5.1917810065829935,-361.78553640321627,-461.45553198403456,-384.42492252232546,-323.90881367377534,-312.4740668306797,-296.6199941212989,-260.6635606720876,-223.63183751631271,-195.05876908043615,-168.21626995887038,-138.4064327805846,-113.11288255157245,-98.77167767325443,-89.34472652018957,-76.88989409001529,-61.782561457977735,-49.87625231435492,-43.26008474974579,-38.54943687086279,-34.11298842366638,-32.35676001018919,-35.12304384232951,-42.15050236239473,-48.26625476434601,-38.83312987481465,-2.4564116839761443,49.06607042266335,89.82001197820256,108.05585357590499,112.0087644354953,114.04654286045732,117.54619774897537,117.45721531655225,109.82709861998713,100.05685478742362,95.56191204666341,95.89449999585177,96.30437293441575,92.59292777619478,83.21812258400394,70.85433212090747,60.602595637488726,53.16720935104494,43.107083575428646,27.045207264593184,8.912491788594636,-5.6817695903714025,-16.716477616869582,-26.343670936990158,-34.76976307471313,-43.39574988970851,-54.81095428720967,-68.82805983372525,-83.62954094194839,-98.97039539534399,-107.44309800787708,-91.89058416203278,-50.378890883563656,-8.1525764917915,13.839575544436242,19.60951513710605,21.828090957082733,25.845689357965366,28.47759556590931,25.918050809112117,20.69687678924634,19.09932235520655,22.960237535568623,26.318809202025886,25.19133692851494,23.944241695691538,23.75316668950901,20.208736095778935,13.040642537454534,4.661752531357879,-3.696356460748052,-12.15574903507214,-20.06004295084324,-27.246768290244386,-35.26197746062289,-43.041123311424165,-49.00195739686654,-54.69806718130239,-62.24882479796816,-73.04903023391748,-84.0706431274117,-80.59043248756386,-49.87244749610398,-4.4432290041852776,30.42822494553733,44.978568144295664,46.96171531026451,46.269197616932736,45.54857464364346,42.60729765134135,37.88749451141092,35.16936924806715,36.555482739866385,39.52446654395274,40.45629567696794,38.25964561534148,33.729602882744715,27.798814338689596,22.513459461838558,18.94529254132035,14.059018288559285,6.471733555630996,-0.9874073875766664,-8.62614298466209,-18.16670256714157,-27.821693341986784,-36.67200415174398,-44.823553059277614,-52.397624649941626,-61.395848276190826,-72.43776689572316,-74.91437633826031,-53.16849894291157,-10.730808151283508,26.89540894530959,41.25129153087627,39.80563307243944,38.204492289359074,39.45113984326015,37.93362923188192,31.861740240530715,24.728899157539704,19.754195353648072,19.587771509970736,24.018763132807386,27.675374484367655,27.298050881988225,24.008642995484117,17.689407834415327,8.272313584944861,-1.2651125291430239,-7.8463057571898585,-11.35997421098407,-14.696962789616132,-20.69381065297559,-28.80524266273303,-35.99182263020022,-41.548865797005746,-48.15571305039455,-58.04316702956602,-69.49799245683269,-73.25433493681561,-55.785558251939584,-18.76231803184689,15.56151907888793,31.489849057924236,34.59355255818041,34.564127952673545,33.33989708980934,33.46528417951175,36.36883146258339,36.57486363181261,32.15704737356767,29.95120107817191,33.5190704484273,37.298977359887836,35.845888765090585,29.417811811689557,20.462632104115357,10.646569599067323,2.793219698457463,-0.9201642466313249,-3.5232424713614012,-8.578058252704828,-14.77095787587541,-21.17618251955747,-29.40886019243569,-37.772073952477214,-44.39630913040061,-52.53108105966517,-64.0175326571119,-72.9692784627611,-68.67483317841085,-44.76060277591036,-9.15678917171947,19.74042799297384,33.04714856780627,36.11354686053314,35.17201823329855,33.37584272180747,33.07653522202554,33.61041352426668,32.38152410228551,28.46476817428926,25.867369529389155,27.743854363017412,31.384400694958938,31.91869849841004,26.9904662948019,18.244637489866005,9.529262081200539,3.7443131583530245,1.2053822606861906,-1.5235630982555528,-7.214056738421245,-14.791676599676054,-22.653169803746636,-31.69008469916683,-41.41871631192914,-47.556964557081216,-49.47774048246154,-55.34038933537826,-68.36232478073765,-74.58502319903872,-54.214242527576474,-10.05000034556307,28.607974125687978,43.24345391755652,42.95718113937282,41.88952538540009,42.83540727128836,42.935490568048294,40.82459744200934,35.61871198368882,28.438078340223573,24.296935499803062,25.75484202654507,28.47473020701928,28.028852630924767,22.65060986502599,13.18051124908019,3.9733872248974857,-0.5731574680411122,-1.0370764646839519,-4.961938443163504,-15.517311067403478,-25.423822183434496,-31.468680556062925,-39.29533624264322,-49.06455384031193,-53.505404492981405,-54.73581288387848,-63.66003136276323,-80.16198754028045,-83.98363156015985,-55.93782657526037,-7.816146113199142,29.899163295530556,46.43865914853063,50.83657532570055,50.62353438217019,50.16606296777397,49.808939085109486,46.10022671793226,54.0,122.0,55.0
22.82833856922613,26.992356084460305,28.299056728080213,24.409405317835116,19.627660280039784,19.802869430329544,24.325360801863813,26.365214888022912,24.611203374832254,23.966388777196226,23.204262726299486,18.397886754994715,10.656316025840777,2.2409060546054325,-6.132887122883962,-14.549087945141514,-22.142894746240486,-29.449369277368067,-37.65468336615653,-44.93116686037279,-50.56421269960049,-56.61828003739971,-65.00302181672737,-76.6328538446285,-85.41238651726495,-74.5177971827566,-37.07952265262538,7.5798452693067855,36.59071652671077,46.31638620866187,46.759303931798144,46.14198310229752,44.998765090392105,41.28924175363722,36.72188409285613,35.18185037256277,37.43723991825268,40.10943433909521,40.119350185519366,37.15418874410746,32.09763065927328,26.09283334014587,21.374890435788686,17.838216179891713,12.048451653316356,4.2036528735196805,-3.0413600749870793,-11.222103581653887,-21.037224812768,-30.446695439384165,-39.111147075767015,-47.027235786626306,-54.71753215275501,-64.56770272328703,-74.82748023304468,-71.50931149986701,-42.14705101712202,1.8859103776020205,33.56450646890542,41.65385993084562,38.93281681274796,38.48038294287649,39.52241660680221,36.536114363930544,29.738746294202336,22.9520052657379,19.11462595062065,20.569947925830686,25.414848820852832,27.96548688090728,26.597585418286442,22.550111383135636,15.201003641401297,5.360674986479487,-3.547742466275503,-9.085593935585262,-12.18517818515259,-16.093116106473733,-22.952345836790485,-31.08491794652296,-37.68741104163456,-43.20581037521074,-50.650232335739716,-61.42643070660748,-72.00684547116774,-70.79994993704669,-46.34526118087532,-7.474429439279899,22.142253960550207,33.14709924115357,34.71099627844371,34.3073555179746,33.04725309036662,34.16890780909865,36.98180566954825,35.57801650721877,30.94265626994655,30.512416684675387,34.92672874739949,37.50491974906162,34.38382629018846,27.00937994089313,17.627901268078343,8.015734014640906,1.3223287678023878,-1.5533669823147143,-4.7085763593760275,-10.369087092158761,-16.529462092555896,-23.345987635647877,-31.979210362555648,-39.79864137462164,-46.39863294765823,-55.60732805565006,-67.31018230817995,-73.54900072880578,-63.761440145230914,-34.90551462572104,0.6104824859866984,25.121881376875198,34.61914858263389,36.099603843049266,34.60276858380986,33.101587089221574,33.245775439684294,33.55430925717205,31.432926068841855,27.34023061545077,25.968094171803656,28.83886427053899,32.0365390217335,31.055828116365287,24.695812527016088,15.561572671393266,7.473998286290843,2.772669358505191,0.6253132502349175,-2.8432353931926952,-9.322776280764542,-17.028111617446214,-25.091771993241903,-34.56515325521262,-43.767384360129135,-48.29755698543146,-50.35685699200806,-58.65335552395983,-71.84245140432395,-71.97260898849623,-42.869797058757705,3.0619065522377857,35.30981811201332,43.91869236024141,42.38143158028154,42.074522534316344,43.049950233336276,42.58388135909176,39.669656731900275,33.576279099528655,26.6855244534308,24.234103530573687,26.67507820148421,28.778104838691394,27.017293912157456,20.191756884650683,10.260074698847072,2.0632321964930203,-0.8854745857905703,-1.4473782228882608,-7.531153706530561,-18.81347866205579,-27.391737808244113,-33.308082742430486,-42.22403271605936,-51.1049450364811,-53.721459141556615,-56.150006631585185,-68.21367463716767,-83.76382642127676,-79.34136677572451,-42.73733399611801,5.216646243498317,36.599825996599215,48.50341654253776,51.04036624669895,50.367575685550456,50.21660516704779,49.15188706964791,44.4095355687654,37.77082068179507,32.039168987038536,30.70969520813477,34.21433367429533,37.45090525752759,35.026357310025716,28.515400272134944,22.85346800674604,18.823866380759572,12.70220013661329,3.0258399464981545,-6.451454577168627,-13.370342931943407,-18.883383564681974,-26.741513555522573,-38.628053474404574,-50.07488385439675,-55.43770343401035,-58.47332734199609,-69.83609061094312,-88.42969424892239,-92.40984350248385,-61.52108678664277,-9.372485679891698,30.690127363428587,44.90924907249904,44.293945643423264,42.315856975887485,40.605576779573724,36.714474467774565,32.46440888022343,28.97192474635391,26.35271943506652,26.931402779745873,32.29929741679998,38.43291394032026,37.2835678125653,27.1665331871859,16.070277774012315,9.558304773290137,5.528146604630882,0.7167372697262482,-6.582229222156222,-17.132938630432506,-27.278732429951518,-33.73987493267535,-37.809894855613855,-41.09640944497088,-44.46956725985524,-51.67881120642172,-66.3573915772166,-81.54899083876494,-79.82054296494769,-48.785702186043196,-1.6341617466373115,34.06113761197833,49.09634700852175,53.83857805958844,56.23342200390942,56.062860135583094,52.05416106789575,44.97603710458443,54.0,122.0,55.0
39.20524270372028,34.79646301039612,27.6308994351092,21.417117989563778,18.947706852128803,21.87125910213086,26.579874308643802,27.905933771971057,25.697842445982015,20.801868375546633,12.483322333377913,2.534939560395275,-5.524159988957249,-10.104522151678191,-13.084727915867038,-17.767247587423036,-25.32408522069029,-33.21203302023226,-39.27180125836523,-45.036954263259794,-53.45156030663354,-64.85423607193708,-73.55123475198809,-66.24542706392442,-35.57741444150867,2.9182336018466497,27.02324738505876,34.04825420326373,34.72344059634437,33.93894663620398,32.986966950834635,35.06611728111673,37.18223411843551,34.253106169410295,30.140865044770024,31.536282887405033,36.15215479552458,37.1945336210017,32.56571296900467,24.441632648065138,14.757226609511745,5.641295683189052,0.21700859119769675,-2.2287062758824945,-6.142236143388047,-12.176355561104138,-18.33025322709858,-25.70935856327231,-34.4605439117135,-41.68391977489974,-48.64965708918478,-58.95173673414973,-70.1663239369878,-72.74406456379332,-57.138661846948985,-24.447148847120513,9.344313319564046,29.16878446896582,35.55439870523991,35.846271744463166,34.038627813987404,32.989812317203025,33.43654562847847,33.27699564108362,30.27879527390222,26.471658825464676,26.46489979983317,29.962787445073335,32.315215022039354,29.717477905065593,22.161273862491054,12.978192967188154,5.720024557148817,2.0427244363594483,-0.08553933443028215,-4.442816926590323,-11.523864439124079,-19.275051067852296,-27.669548519620097,-37.44852726582251,-45.67361144322594,-48.7698529400075,-51.83237596298272,-62.504066405982755,-74.23688310118082,-66.69649000204971,-29.9673874581815,14.852399527718662,39.860124518389924,43.783659888280305,41.9987780060637,42.37685823979539,43.12512429206389,42.03534639893049,38.22467587729893,31.43964641223265,25.34145412388972,24.628761387550295,27.54165397666122,28.75043705468596,25.560192248681062,17.450934642037087,7.492767523547283,0.6337553261732384,-0.9464978442671074,-2.3887962343390887,-10.60284619204024,-21.809552864319837,-29.086852074084195,-35.47700209641503,-45.18613228629043,-52.51040820956561,-53.89029114971266,-58.4860336944685,-73.20258321074901,-85.6238643888824,-71.74573942357794,-28.534699242165065,16.64684974709072,41.594023114186534,49.83881346279871,50.97480802735181,50.20040190672239,50.20307632779659,48.142307538220855,42.56617955252041,35.87374340477986,31.07427676256479,31.364314717871935,35.48576312656624,37.42276699956029,33.319882380855525,26.65116224179461,21.629989465797035,17.45986890731231,10.155071968824783,0.08867787622998548,-8.72077518264945,-14.976141422348848,-20.737158756186055,-29.84434119855504,-42.3016684720795,-52.329893672554945,-56.0794458999964,-60.5595535400722,-75.0855502397934,-92.36016591609462,-87.2300935193435,-47.15170491484993,4.650994298126211,37.27538140450153,45.499666037183246,43.558512933780534,41.95853404501266,39.69198175807525,35.40787789991465,31.402318508187932,28.059926117977334,26.060354719753818,28.033920303243217,34.33908401525437,39.146220083095585,35.039529010717544,23.654625547742068,13.70317411185879,8.32455694286901,4.299177417496784,-1.0538092406743917,-9.368465182256575,-20.340896885494438,-29.52684952195214,-35.0621283504149,-38.80740731711184,-41.98614495491036,-45.893736437627624,-55.20381777560021,-71.33379688537623,-83.64329396906791,-73.8556318193928,-35.56291063386677,10.806460292221852,40.242690477108845,50.980910417067534,54.68434533705321,56.53503167075776,55.30780258856084,50.22530749860066,42.792925408929904,36.75179708670841,33.67752794246469,32.39299927994158,33.70186696886413,35.50595827821548,31.764846821384573,22.54508876765493,12.998735702812482,6.725284751326268,3.347535077598206,-1.9972422810510229,-12.063299636361336,-22.51748032494911,-31.07119870688888,-42.11714926655301,-55.21814832762942,-64.0172093151458,-70.19874033702487,-82.41000646166351,-98.21626530335611,-96.24521068531426,-61.33057270427424,-10.957579731122218,26.289316529585562,41.6104359178242,45.516335922555264,46.95772166490823,46.770044598045,45.29188110355535,42.3071222337564,38.55446233663638,38.42332636537247,44.41741136435631,51.00450891457637,50.70614223033163,44.10294568374534,37.954983374743534,33.03865358374621,24.00305994131544,11.518664240464314,1.1159981160627102,-5.315290571168699,-10.754327313962698,-20.384351976823567,-35.02319582082256,-49.4175545030058,-59.245850331003325,-66.17647943086335,-77.4933264138377,-96.98499685949474,-109.52264567435074,-91.19013697625233,-42.58745857128699,6.761954671743288,33.988251541406484,42.40011379277444,43.27918344937192,43.494100039307284,45.86695572675359,47.55469452288134,44.655222661156465,39.83915524887219,54.0,122.0,55.0
33.58016685666821,32.72975524644458,29.03196292223068,25.96330041912076,27.285284269102416,30.98336222135983,32.153090916346,27.940505744216324,19.491863676765924,10.566390833377548,4.2926285320805775,1.4577911237974477,-1.009988490957241,-6.292200676745925,-13.759477661808248,-21.568131806053632,-30.392154624062268,-40.218908139302734,-47.076317224968996,-49.21053507109004,-54.0533440518675,-66.55301549381399,-74.96149758810189,-58.73081149068051,-16.33449033289698,24.763918164240124,42.53391962366583,43.24714642613562,41.8683137749429,42.701797587790686,43.03572307773567,41.26421813689483,36.49814107162451,29.346114474579696,24.50215099783047,25.353203489597604,28.236274952855275,28.34990743431368,23.66358104988741,14.542514143102819,5.000252965045804,-0.29966499971494903,-0.9705745767611291,-3.990989248402109,-13.951393730967553,-24.38542372764104,-30.698017635031867,-38.01528792436972,-47.9350539112031,-53.30546584193863,-54.34294655573145,-61.81243364547331,-78.10547564885611,-85.13156209379983,-61.45221417550075,-14.219601151840738,26.172364415730954,45.17634746030105,50.62353804389966,50.749412645378435,50.15393133389766,49.998153829430514,46.80796159967865,40.634407961214016,34.1237230466096,30.56932834966584,32.375479647813904,36.563014739136015,36.825976416829064,31.399848624526708,24.96070350026205,20.50791320344589,15.794302801323033,7.348063407421225,-2.7166194022932886,-10.758217548658425,-16.520592220383598,-22.900658225441244,-33.27242217975884,-45.764668431593755,-53.97184645276931,-56.75515249518833,-63.60644595676733,-80.71437745782657,-94.33838068787125,-78.83959679556003,-31.753945720709496,16.862899877952522,41.6875891101964,45.28037446541129,42.94850383470994,41.536030420577205,38.57347466004668,34.151608748326936,30.389848610056962,27.242354110910266,26.112765105084247,29.546221992852384,36.27286920425537,39.0436338031758,32.12808657278948,20.315007598891814,11.766157570387138,7.19061167777759,2.9532158851460646,-3.0779370137848607,-12.41857644333555,-23.37346324278965,-31.440571101236692,-36.24524136996118,-39.762432489086386,-42.901592129865826,-47.78745620753141,-59.387994750724474,-76.05450743029326,-83.82079541679688,-65.29323158799536,-21.630058724318477,21.637646254136286,44.772087202765135,52.34413323664743,55.42040099887214,56.56951516111767,54.218380821092914,48.17829008300083,40.744401492302394,35.60816253776483,33.13522271271183,32.45690359032584,34.453701583326435,35.16354005660137,29.45869841432398,19.600920205999124,10.776494130976811,5.600094334541538,2.2603961572402658,-4.510532675435267,-15.298172754077275,-25.05245365087792,-33.826178384451445,-45.97115486229382,-58.37858998811756,-65.68729369312791,-72.84420219115113,-87.26318924801792,-100.6265033131849,-89.39045337358571,-46.95306428816853,2.048124658962141,32.70669110769674,43.32025279146551,46.066070890882,47.08188778055141,46.45170336510271,44.61889971868907,41.16120054517522,37.91809278219929,39.61274994812599,46.66408123567105,51.798202613576876,49.17052007352792,42.039243511589696,36.6363152091464,31.00774465244807,20.50135916218983,8.114530836087608,-1.1040526335036567,-6.7529973471611475,-12.930998295319354,-24.25648440402639,-39.48818245155041,-52.7768371624113,-61.306912956319216,-68.61156262723357,-82.52075934615566,-102.49301429397264,-108.07583991650228,-79.28479505477215,-26.90794709937209,17.16875381767312,37.80469609607971,43.03947651764989,43.202845220005074,43.966650555047494,46.673850612418114,47.20492078126632,43.206377981718305,38.875350783129726,38.564408355779385,42.17982827986132,45.332038696082606,43.997752623110415,37.862952332380864,30.6484521450497,25.455951975823385,19.932591105285454,10.878438626639367,-0.3304399015229432,-8.869646023151633,-13.340838824752197,-19.69084801658912,-31.162474800679163,-43.38888173408401,-52.625172780947594,-60.44395941132741,-70.59141418273217,-84.51992551413419,-99.0654819099082,-102.5635035246998,-80.64377015150696,-33.85082150827149,15.336013124023408,44.207516374804165,52.46372413602406,53.599124839544764,54.79108967556577,54.175911430769496,50.3559246760347,46.59542950545659,46.3660691850888,51.141793499276126,57.478552781933956,58.1529506287968,52.35385161824589,44.95990173990648,35.92975943682461,23.748846249819984,12.389113381930818,2.465176914353982,-7.682621960385615,-17.045730956903984,-28.79669749796265,-44.93378660574988,-56.95814958234293,-60.232559720486115,-63.65521386922108,-73.36037821356352,-89.4219660261617,-108.90342641343653,-112.45322360324134,-78.13599546032523,-21.112740739717864,21.90589770788721,38.80636277919058,42.13426677848838,46.4113652632379,55.34639284782645,61.00644615397788,58.49452943883494,52.552259555100534,54.0,122.0,55.0
45.2123014117916,38.6706754704856,32.620665955318486,30.554573671714817,33.612049660201286,37.27981988207277,35.698485724986284,29.415952160924363,23.47280826168253,19.38048916659418,13.763811660878384,4.398752757004333,-5.325240336167714,-12.58678562764112,-18.10634425561443,-25.43852635886804,-36.91647303134072,-48.83419230485259,-55.07009832834769,-57.78948836438702,-67.6573043646669,-86.16442963314483,-93.71201820444855,-67.54600240947279,-16.280655581682016,26.86889957820385,44.244426190564226,44.64168230566669,42.490183438844156,40.94918537788443,37.31677553215734,32.97743044560615,29.411199954046644,26.58293259252919,26.571964207704486,31.381495515451366,37.87172819774608,38.04451642494597,28.78268084699259,17.31287442704669,10.19049522026571,6.064353199528896,1.4622739508227398,-5.402431631487622,-15.632501284776842,-26.12381900896538,-33.06843250764641,-37.332293044476366,-40.68209034232464,-43.92628988261742,-50.292155444481494,-64.08421564009335,-80.07059619076416,-81.6735625226874,-54.43017355424901,-7.782226321423435,30.587850111833603,47.97139530711438,53.40832139585376,56.018320098259075,56.297998126554916,52.80676954065406,45.99767352895106,38.91953216903969,34.69772799758295,32.71335449827613,32.79221210660148,35.111402516620764,34.21959425880896,26.79031973422198,16.763315276250584,8.886491504332747,4.662176304395456,0.8487633782342802,-7.410891311092321,-18.400672144749308,-27.46116104348162,-36.93344771608596,-49.87203535280081,-61.02123525678324,-67.32006466496755,-76.21040716143841,-92.16647558916178,-100.8578022914345,-79.67333477317942,-32.04380369649074,13.342684099947464,37.34953516156839,44.439120006914415,46.51443585148828,47.05217490633773,46.04965547380272,43.79135673214402,40.00623422605993,37.723692029939215,41.31499019037448,48.73802803543651,51.87292746681907,47.23053907602727,40.194084512376655,35.32234239465691,28.498097854982678,16.832441681823383,5.011632038538079,-2.995474966802402,-8.227033931248416,-15.583312291744335,-28.49196555222923,-43.76395527113834,-55.696704659213175,-63.227423672686996,-71.64528887575008,-88.21919369746526,-106.81140093566732,-103.5183127495741,-65.24135073033976,-12.069705635803382,25.44180910024769,40.34466415851271,43.28903840787427,43.198376193677646,44.64880189960366,47.285363892829416,46.42040890099893,41.73551342958102,38.27634514252033,39.34690788697132,43.368562250549296,45.500529245753036,42.62189550678199,35.66612808332874,28.949868726400137,24.086437183558072,17.722116955636064,7.673258130149418,-3.2772736979945276,-10.417886250302168,-14.667772336302043,-22.583384619689394,-34.86755118894139,-46.39702007607634,-54.849668150657706,-63.01576647450577,-74.24220822752285,-89.00079288476682,-101.92136642513317,-99.26195114575017,-69.019162912747,-18.59951546039446,26.25639155086776,48.16778061295056,52.97923292730134,53.91688422760658,54.956486832149885,53.31696658220576,49.07825056923685,46.0547644637575,47.25188668189515,53.13925641777912,58.483730485897134,56.938418209383684,50.23139294466614,42.67907195255066,32.62378583086475,20.210172376081527,9.506163347004783,-0.48311492545202883,-10.449539774682057,-19.94643512733831,-33.20579027723195,-49.32342154591656,-58.56878253702827,-60.7399315252476,-65.79012416540591,-77.33537690008713,-95.14513552318036,-112.87189421592402,-106.65012535266133,-62.297110549042856,-6.020392229338328,29.157136469745183,40.41645996445141,42.82895922440963,48.73169542287188,57.74038627221096,61.03244713101934,56.83080875118785,51.05478744905814,47.92802256877283,47.14396904795966,47.55810889390105,49.63459125170195,50.33284196907136,46.479788660911446,39.02356189519686,28.718005531355654,17.141297441849662,6.887153187343127,-2.690996789946472,-12.780392253886525,-23.216745677786104,-33.81155045328544,-45.08718434824049,-56.68837378635528,-68.49691531156816,-80.7671836242595,-95.28994477984699,-112.99395907165244,-120.07942622137973,-93.84767843729347,-37.5757285452869,15.350358802764044,41.06384633060459,44.993226676374064,44.417553990873905,47.584268051012714,51.717221270852164,52.94115255911168,51.341714676692895,49.4818880812214,49.32496320226086,51.797193658555976,54.14003473779281,50.653732793528434,42.308571453343596,33.84554237279817,24.962504976337875,14.036697266373567,1.5310492154407382,-9.610811754775963,-18.280004717796633,-26.60816105470597,-36.87421614900838,-48.99281701497556,-59.976086981173076,-70.31374850779899,-86.72308891073197,-103.2710666968058,-95.89574926554317,-54.17094475009116,-0.26667272737348985,36.40020164987253,49.637664885545036,51.60396196900438,52.05507083371409,53.517495132205376,55.0031116426883,54.64883803316829,50.58067334234552,43.88857534903227,54.0,122.0,55.0
43.78911248537854,37.369824962829114,33.96713050757204,32.44735925521883,33.37432887187998,35.48122917496869,32.668602623061915,23.906809066491533,14.126367040118081,7.334174172509426,3.779289052153423,-0.9913025488950951,-10.566975301780841,-21.276242323265187,-29.89493012100044,-40.408683107737694,-53.60739697228978,-63.16514538246575,-69.18733490329062,-80.30843944480641,-96.55255611309245,-98.38549703547287,-67.54887762407266,-17.410799782401458,22.67157176426494,40.53312081331766,45.221614892561874,46.849145501334895,46.88540921531474,45.556501023766785,42.80665527178859,38.961398365657544,38.06851345254372,43.38952797613976,50.41606640577149,51.227355865361865,45.095360746274054,38.609010499018545,33.832270576524,25.515936599391,13.165709160578604,2.260606050886726,-4.625264907991156,-9.886860619858844,-18.75234565018702,-32.94403992730932,-47.72350119607926,-58.20712826462902,-65.19404493369842,-75.45240236289617,-94.24008478558643,-109.22827427616065,-95.77880588148575,-49.870891321638645,1.2567238175353017,31.707397609920115,41.921295227594634,43.30905876078351,43.35279518234783,45.47146967509252,47.564869446267764,45.273581705202346,40.38610781995698,38.088280381890726,40.40161312313887,44.384392321430305,45.22476772349356,40.87547406893599,33.511647778729035,27.44710560031829,22.580712220666136,15.16591082702271,4.375326216657651,-5.864632407615935,-11.670648990692404,-16.356038022884874,-25.88500022414434,-38.48440871469109,-49.10788450897998,-57.04993156537131,-65.8623409449962,-78.22143166485594,-93.3956033379305,-103.47615517055968,-93.51563486228814,-55.56255296318369,-3.8801323791149156,35.07837774580652,50.65584069867629,53.25210950236069,54.2920464854026,54.86925519476972,52.211419330382,47.91406860631326,45.876720414243565,48.57402289876656,55.107652754904265,58.84292281445174,55.270589940449646,48.10165415257473,40.16954128873986,29.076209031366517,16.87337998562995,6.670424819547029,-3.4487684873171243,-13.122692716287101,-23.200020831220474,-37.94263280353809,-53.05275991106417,-59.50187196085019,-61.559722085927376,-68.48314772868514,-81.85081116457852,-101.02238443807012,-114.79494259682441,-97.31865403208866,-45.42272510481142,7.055364338660223,34.30345385271978,41.31211155736845,43.90848107393615,51.381073121254275,59.59273319228714,60.373985724650616,55.0552485211358,49.81299175703259,47.553547052263575,47.11588503465167,48.02499162191273,50.20014746020839,49.69324427797733,44.63370497177395,36.32085940928821,25.363932147554078,14.002159706176519,4.13422744749889,-5.542950184185563,-15.786438054215733,-26.23672930230715,-36.997167026231914,-48.42920999726161,-60.067216221573226,-71.97215652522183,-84.58055654770872,-100.29345517343492,-117.22989292373938,-116.55069560242154,-79.49859462806539,-20.348189647473653,25.831327858239835,43.665583346671056,44.65240522540817,44.940437186111474,48.90952316342955,52.443478095432845,52.672319500955474,50.718357302735356,49.20146405056738,49.776662651932796,52.76259771647747,53.87336161726395,48.48873502661503,39.786915935309274,31.422106847603416,22.046376306380115,10.484823701622403,-1.9587964142705858,-12.310613254913173,-20.598575827280364,-29.31601234366975,-40.28158433714962,-52.419046442143795,-62.763197277179756,-74.24156338734592,-92.38459008733453,-104.65689750272969,-86.93087755568672,-38.33225090199203,12.929148657721965,42.230106733859756,50.77587027215406,51.66683345746128,52.390080149685375,54.01013688577383,55.197617144028484,53.873503592419276,48.80950540219293,41.75768948067202,34.592097861394016,30.089324796247336,27.30175437796082,20.076188342423055,8.48052767802172,0.1390004907996189,-3.697492281255311,-10.378995504786037,-24.106962504523494,-40.885793409732614,-53.10014817061202,-60.67778874613018,-73.34878280052459,-94.37794318520899,-108.47638844573547,-92.56849907486595,-44.981630725949344,5.5858826654084055,33.686689044549944,41.751809442505625,43.94473674506339,47.241706554349314,51.18683097392658,51.76779598008902,48.34786459998741,44.328266509095755,42.20802779209535,42.46818038829859,42.61041581743289,38.921438014884046,31.52986623722563,23.60537319681832,16.079487740585957,7.391080243930441,-2.761059796209768,-13.636310675013537,-25.11089122477392,-36.49875423551529,-46.33888717827529,-57.09054056460138,-72.48702295688875,-89.38216958119823,-97.09455678741996,-82.33409257676811,-43.51774694819665,1.1838239523110667,29.835940085711787,37.51171964122096,35.60154159651041,36.79720572539038,42.83916474020967,45.84946863831632,42.213679041224864,36.51363080465401,34.66674647939728,36.33776396584281,36.29912626247025,33.36551759050196,29.261785342676482,23.8368324696294,18.221956677128052,13.723843349381784,54.0,122.0,55.0
39.278360390220925,38.321681498906194,41.60880074359036,45.11565222786797,44.489298822889225,38.85401427036941,31.50519624219613,26.072903168181956,20.837653780242462,12.29253454650618,1.1183388201651732,-8.022782001101803,-12.80260279319824,-18.520703603068405,-29.462537455659753,-41.90199828205469,-51.56070519413364,-59.33506618059057,-69.02245529651562,-82.48402055620124,-97.4248579884291,-103.31815474396527,-85.26379049142874,-40.858821131403374,9.648278971500174,41.786352560915795,52.06747461034044,53.47881167174204,54.65488352190556,54.46991571709428,50.95528936681104,46.95102097200572,46.110034977042396,50.26781331007855,56.82717827885166,58.520814890032526,53.31167452374856,45.96449026390976,37.34666843938396,25.42480927950832,13.760085487724707,3.8060696242783707,-6.368239272715695,-15.785221250560033,-26.91639576804909,-42.765570044447145,-55.933260031488025,-60.03466739404329,-62.864981380875285,-71.7030639784649,-86.91499621213265,-106.6011466024278,-113.94203429340152,-84.79896026050729,-28.58669621479184,17.778852268815257,37.70882673254406,41.88319421141134,45.49906818112398,54.12469683629834,60.7382136043792,59.17829087006151,53.31200993238101,48.85363310124008,47.32113195760925,47.18853084892599,48.6410924941782,50.51883030235157,48.64626262163258,42.53223502400132,33.37981330136984,21.97476140332873,11.021155303164383,1.385177492566275,-8.448847294496936,-18.806289755043004,-29.278380438514358,-40.24925162464291,-51.77993194685918,-63.471473856802476,-75.48660152220904,-88.66478078754689,-105.54213231654319,-120.01953799213959,-109.72072715916381,-63.13920590735318,-4.372595282168308,33.74720904908268,44.83980572969232,44.34935673226397,45.829722468572875,50.18136110446357,52.86507433171205,52.2104480048189,50.14290336551533,49.096764588387785,50.46793581095181,53.58215957954583,52.992061005483855,46.04730775116501,37.34109847186289,28.9035556377522,18.93392840392583,6.839952025678935,-5.2453332161426065,-14.822413651388528,-22.95803122882365,-32.23092003114868,-43.808935480728906,-55.65026943905368,-65.59932375950909,-78.87354525355494,-97.66563226162025,-103.35504871325378,-75.1616571764714,-22.306465288200446,24.083952409457485,46.253002413869496,51.33149086125267,51.75775162693687,52.812412086963384,54.47085148851718,55.181571412525344,52.75541101398096,46.88350398570008,39.598691206906445,32.913538636307614,29.352518628555206,25.890415931546286,16.87440095023405,5.452523847023032,-1.1836501263176706,-4.994414194102403,-13.656872294460724,-28.983327676970237,-45.137691895961176,-55.4240130382525,-63.38036751506789,-78.87656169438861,-100.25529514971628,-107.69890140757327,-81.21130300965018,-29.11345007092303,16.419732722540225,37.422389019691664,42.49843746242788,44.69282987037477,48.474111571468576,51.84985338453094,51.06387845327752,47.100837192012705,43.45489586960323,42.08782489827156,42.70359137825963,42.03962892785034,37.0312367965858,29.18181858631413,21.443012901331098,13.747165420709123,4.573382033559382,-5.84997432812283,-16.886009879920337,-28.49162584450576,-39.501251132663825,-49.121997254402906,-61.037340154462235,-77.5627203495714,-93.17497156288027,-95.58240614131202,-73.11313958770002,-30.08316538658891,11.749385162315933,33.89417332372483,37.27672578236227,35.277721980902434,38.32100494171599,44.36416450718929,45.39299422046438,40.46727832947735,35.43462992654476,35.01005775270707,36.678650532482756,35.6607349566277,32.27284762566673,27.844383454111938,22.11221873590056,16.8776543668207,12.17742275850542,3.564608793567594,-9.024965225089108,-19.411624894845225,-25.016791636283653,-30.560690458095273,-40.41755088016786,-51.079598145224196,-60.501372175860354,-72.7491350300762,-83.28771707444247,-74.98464603448272,-40.479074065535926,1.8085688742628345,28.116843127086348,33.44335337697791,29.361952157021314,28.154245125521882,32.693333887467205,37.730233425321885,38.07670213944216,34.57820580099418,32.474726339954955,33.98293487718746,35.36636042197118,33.48490386374662,29.078768924989422,23.761778142741203,19.000760761543095,13.878850633988588,6.624812159065882,0.04397213344403603,-4.274871263391421,-10.972720640234623,-21.645367699619424,-30.432727565113456,-35.20253149565997,-40.942278199483596,-48.61485509869534,-55.377594243677876,-63.29272155181688,-70.20987324316863,-61.57513741897606,-31.336531561816788,3.8216448618633794,24.405527845609313,27.56122086602113,25.26093378609487,28.250450542116198,33.52452608371762,33.70927316091623,30.01245950789331,25.89248470204944,22.397837720799874,22.256246829978497,25.496949481055466,28.02616377739549,25.723697662930743,19.72450985851347,15.712687117839929,13.949239901634016,10.60838854632781,6.181091849132203,54.0,122.0,55.0
51.71650869687523,48.16515331672623,47.182865093428944,47.40235691560117,49.32717011338798,50.48519081798493,47.2367403232654,40.186996950020344,30.22797805145065,18.6398727462323,8.171003361510008,-1.3940580740423838,-11.40407587608055,-21.82585387947094,-32.36653190002396,-43.55262878338953,-55.1369422477004,-66.90455904002482,-79.07307888630196,-93.1077302096619,-110.73911742233604,-120.67328752197369,-99.5708487487377,-45.701491824711994,9.663864893390867,39.252442301537954,45.07385953821627,44.31086635664526,46.99176164465669,51.28714065317947,52.98250319915405,51.629067710208204,49.661794669461926,49.19957210952927,51.35139493244735,54.07172593042144,51.51301905531406,43.490305162383365,34.947060520736386,26.24458075519296,15.624218294994598,3.1894296873126513,-8.29000311857344,-17.205806907909594,-25.421891162095026,-35.36170815879798,-47.368687244065164,-58.656295784140255,-68.7162003396664,-84.14454016911633,-101.88418317868141,-98.98483975550356,-61.166199060188596,-6.932263745608534,33.02129386434552,48.830708800179586,51.557204680969186,51.936286423053375,53.28922138694116,54.860497723217016,54.89048211241709,51.32750784709377,44.85175344623968,37.46952077402163,31.54414330551571,28.653486121397076,23.938431511879227,13.435896971469965,2.9031161195131157,-2.225136971347369,-6.747988000185736,-17.543771189374663,-33.943790186838,-48.816414035089906,-57.49789852626972,-66.79750553341309,-85.03540531318446,-104.9856633892863,-103.87457142972576,-67.52177818772505,-13.916736685845986,24.996911360383663,39.81766594426251,43.07444852683504,45.61212336917955,49.69088625579133,52.12164176483913,50.07903703502795,45.89477036495956,42.78384427738425,42.15617100184198,42.83482786514225,41.065874574594666,34.89476773460956,26.86830200240678,19.297247239353926,11.272195926307411,1.6505363512989981,-8.982032633846389,-20.193692247847487,-31.82688834786047,-42.344735500099965,-52.106390656470644,-65.42738142046056,-82.60660045572195,-95.8761775421122,-91.87641573840196,-62.039098429718244,-16.774911460265724,20.519818942413032,36.30345743665655,36.61495081163566,35.47078113313756,40.14286814890227,45.40648191529929,44.391577178424285,38.7195438070443,34.79915372603402,35.54650807507121,36.746055279966875,34.82147726760278,31.1144829616997,26.29247250499271,20.44089119436577,15.62244537341827,10.267367501136043,0.10600917337884712,-12.513418899869446,-21.426665405031784,-26.315884701102412,-32.98352577935449,-43.667652455354954,-53.77912769863372,-63.642843918318896,-76.59879523214292,-83.59710901858276,-67.33469934186228,-27.819051323911435,11.712641777299932,31.481462120244576,32.573433145263145,28.377092460220062,29.018976168032864,34.398818829648604,38.410281685791794,37.25831960540835,33.60400442549226,32.62596739564432,34.6129921712328,35.17927069771196,32.39378377615408,27.56636817528465,22.29379770668377,17.68700229370271,11.967802575651703,4.463135029318373,-1.313358986843454,-5.725305265179794,-13.82788036687554,-24.65487731038671,-32.06121657697783,-36.55318225993996,-43.11927558493744,-50.674297500729026,-57.396350826795604,-65.87753094669,-70.00512380076732,-54.67812781889438,-20.62677591274593,11.769329305081607,26.75440904600228,26.79051474429301,25.440914012014556,29.95529227019362,34.22632690809837,32.816093588958786,28.82580265251794,24.721368953034215,21.908018546307467,22.978999101525513,26.522485866638686,27.951687901660904,24.129450749881222,18.174917010035024,15.16731718003433,13.222500516861691,9.326547459837384,4.991561775038949,0.6724125108404937,-5.6060881136626834,-13.716574864127287,-22.971530036232465,-31.652993616601094,-35.25926250303947,-35.96971553684235,-42.1398509991421,-54.694984147259596,-63.68668777436413,-54.86049636732717,-25.41685121574281,8.199249644656268,28.424250549065928,34.279363337008526,33.43645791259124,30.288532598956454,27.068328710225337,24.83333112088988,23.21937437034542,21.76063280094361,20.755296376537405,21.57029904853578,23.191947374842698,23.015780061412773,21.319016413000245,17.369739026998175,10.803782456748225,6.308903758485789,5.6994351420890785,4.089704553877172,-1.9118093668736065,-8.567086313989227,-11.91086787751521,-15.23854097314352,-22.89427712743102,-32.647390928910134,-38.79381100590935,-40.081355298521636,-41.39013279625509,-49.85473005721217,-65.06174853082197,-69.2999795399812,-44.4330151842176,-1.0744769964608465,31.261324560700192,40.257032907689144,37.30397844900261,34.14786136344868,33.03208333203411,32.544676731053045,31.843239021651417,30.959743323121636,29.44214468714624,29.233613707782276,32.30624215098343,34.41207875485122,30.42175402396764,22.733055066206038,16.513548785898507,12.31842872113223,8.860137730151557,54.0,122.0,55.0
42.7460399946032,35.4553103811325,30.48697698815317,27.800620466421293,21.4155402572972,9.998898240383514,0.8922448201488081,-3.20333595094218,-9.085694224624133,-21.944013798250584,-38.76774797738877,-51.87963637806351,-59.60810171053935,-71.07583302738922,-91.46082083731795,-107.90919730545237,-96.85431808912483,-52.28151039211169,-0.13578242416545655,31.39920541006222,41.28453154773297,43.6491604475988,46.69708287087583,50.770134564040745,51.972824837889334,48.915946999282575,44.78994846479001,42.33688503073755,42.354717127142266,42.75038323630653,39.68506573309246,32.608752964922985,24.61937510892537,17.1140922704304,8.648228222698682,-1.3540877459287444,-12.15658317417,-23.55189827249327,-35.05806953126928,-45.08396450218801,-55.422791396250666,-70.1948242633161,-87.36526303078769,-97.11485036228362,-85.86961563001043,-49.57518189035419,-4.208879509178562,27.344983584793717,37.37198835058891,35.879664054951306,36.249419666265894,42.0226648794169,45.85459027721599,42.96854179955351,37.14199704392407,34.61483975683104,36.11132942217472,36.507867357731946,33.846319493101326,29.871567355374783,24.628066571103325,18.888280946061702,14.352325135569398,7.896174408794481,-3.5883323128856186,-15.644217880264861,-23.05626159722108,-27.789967585047062,-35.80934672455312,-46.81945493481197,-56.42158134665512,-67.14354497255236,-80.02950586664146,-81.83420089339396,-57.55510871754073,-15.195627059573178,19.807375151500054,33.204294764404004,31.29156058875823,27.872514557184218,30.31982168382526,35.973094605363656,38.609124499307235,36.21088309973702,32.892116863511205,33.06394969610616,35.099619559051895,34.68759551665831,31.136708564537145,26.012797989631625,20.91026002207967,16.27352392592681,9.86427261889072,2.48013764357742,-2.5113365839020436,-7.5369175267754,-16.957897237423165,-27.318613113962492,-33.405724011865466,-38.1392142713314,-45.383468886485375,-52.60986997229484,-59.63098176451031,-68.19132890868002,-68.04811822556012,-46.0594941472189,-10.102998244094087,18.129127723062368,27.774754119544003,25.952462489927182,26.223088157043325,31.62626077987404,34.375932584117294,31.728532568554886,27.63795171890942,23.638148603684133,21.779077686757606,23.928713930824145,27.365811014657577,27.389108539100487,22.335264956802607,16.938090110257534,14.714691958454543,12.289731757097783,8.021000719830468,3.8284245524712412,-0.8908260154312112,-7.814390802034322,-16.281430610434267,-25.73041182367001,-33.340668122292854,-35.38707127298809,-36.927252771995995,-45.368522079096266,-58.31244727365926,-63.46289874000606,-48.04871575248506,-15.135593478079448,15.797091344838066,31.264582929609055,34.43984014669476,32.658019653231804,29.281443053578084,26.32547184636534,24.32668187892301,22.79653731841128,21.365333027012106,20.77099888137244,22.094911517947903,23.370408186465706,22.64008201655424,20.51773013847003,15.597847836866043,9.067485253115397,5.863879742277556,5.606368433135258,2.7657234773526183,-4.045931415326053,-9.861916492173805,-12.603729068902734,-16.962386005409666,-25.757774107558177,-34.982128548068445,-39.54374350687276,-40.13513050645293,-42.848861876571235,-54.01106536430473,-68.5139511902684,-65.30802799586567,-32.53749836035505,10.517762830775435,36.03229636831531,39.92545375029974,36.170531952782035,33.66335695294605,32.892227816737254,32.3626120087424,31.621974563157693,30.580483518675877,29.078317392175165,29.85006054300479,33.32189941161571,33.94463152435898,28.300996158488303,20.66965279639839,15.15773324180927,11.279363233855511,7.910740270073533,4.153567216000568,-2.322958728365749,-11.176606542824732,-18.8572059519826,-24.746737798220227,-29.99526997895178,-35.209403976250094,-41.43149553640919,-47.74097085293763,-53.06801974018076,-60.28561383236332,-71.15992216958466,-75.13541267497901,-54.81098445829609,-12.762587403591905,24.571590341237115,39.01806921338251,38.38648061412982,38.110422858279534,41.89918022075968,43.3717521024813,39.12550553425199,33.97222417590677,32.692313992557345,34.226361062637544,35.115357192635095,34.551822581477374,32.64278264199594,28.255365832421806,22.091531887128884,17.657145006686807,14.908854738684152,8.895243087467719,-0.6406722104574262,-10.259115388166101,-18.02176076824045,-23.22224237428527,-26.906941520168196,-32.99234296582637,-43.99381926693465,-55.619776604656025,-63.16737078134653,-71.37034288954871,-83.44722263261907,-83.66499968263204,-55.81889313499181,-10.533421046064294,26.731878910006934,43.47696295980468,47.074627251429064,48.9729367746305,51.718266250825266,52.289797036096125,49.134701703175345,42.28741545056846,33.976765132211,30.423301592363767,34.210533048086454,38.29309974346857,34.9201147300961,27.331521865022264,21.853244068011993,54.0,122.0,55.0
12.927689021684355,5.036130768475417,-7.333631209823569,-18.33111020272839,-24.426812819058778,-29.591495119731082,-38.926274711025364,-49.7823407539234,-59.16187264795486,-70.94447880047666,-82.56352792455404,-77.71131321700756,-46.12893933344215,-3.2831753640930823,25.9452554571999,33.60406163626431,29.933669452205855,27.933080316749535,31.909581757241316,37.264337950643764,38.34095323398798,35.082801260758615,32.52193615722081,33.67756224046386,35.348533413770284,33.91992221682816,29.751418109809023,24.462641398350623,19.596293292937077,14.684435555468184,7.650739114634855,0.7502407256537648,-3.6911620452445377,-9.786418638366214,-20.182289112401875,-29.55145925109628,-34.6301570520811,-39.99986179388194,-47.61893300378775,-54.49458926124567,-62.09936095907741,-69.81900646832781,-64.09269796639083,-36.16961665288521,-0.31518923081209116,22.806540168094408,27.78970193064878,25.372889291888928,27.524516109806044,33.02432917251414,34.01702295446173,30.55936177883653,26.44315036872852,22.730973897236346,22.024423640914563,24.99716718674878,27.907410022106717,26.347521299380475,20.520022036744372,16.032560318263066,14.221032112764002,11.17152417879788,6.748321282825984,2.630945576400179,-2.663767086027867,-10.141293007403076,-18.944620471974037,-28.35873947000907,-34.48406673188664,-35.45214221785274,-38.538733165307356,-49.040597105888466,-61.29411634964015,-61.40639519454817,-39.641672489900685,-5.073796899552131,21.970685317771874,33.060105072757196,34.22622084201015,31.746715053139418,28.322051200119063,25.66858583488588,23.858486250367637,22.374800209494616,21.031743886254528,20.97565271279006,22.616387163291527,23.350355812629232,22.17951918752458,19.4599061067342,13.653777654079528,7.6549864615810606,5.708046671869754,5.263391107006176,1.0558275288812695,-6.072699253664511,-10.841191706514559,-13.448999394884973,-19.1116017339509,-28.665532248892227,-36.88122665897206,-39.926228785651844,-40.35691517083239,-45.086751624857094,-58.58480887507743,-70.43031917235241,-58.59474816438046,-19.719365843802375,20.44890126526826,38.8657424133926,39.01602733958225,35.200277199898416,33.33169885972322,32.76296313378868,32.15872073906119,31.385169871139396,30.12977775543422,28.92253036888722,30.743542787691922,34.085321309693235,32.886057809210065,26.021970110122574,18.822599914237404,13.937602779954414,10.27625351045924,6.947766769884848,2.652803853112861,-4.791858099064027,-13.628381956090637,-20.678816251474124,-26.307560865863238,-31.45647136485996,-36.88735920945811,-43.34454458623199,-49.332292864416914,-54.758313921197846,-63.21648431009046,-73.85395860435068,-72.24542747729782,-43.97488799238978,-0.21563028620735572,31.183950765180782,39.60404757830947,37.8229967247215,38.97451084825954,42.886762727963024,42.629268985169084,37.4318684597477,33.137917148465654,33.016419006543174,34.647613283272854,35.07380378600113,34.178241903133625,31.66757521672325,26.527286710887534,20.491498484695708,16.892738435571154,13.665303558623423,6.347325914117204,-3.5319833819582303,-12.741792256675579,-19.78880923861503,-24.321288430483982,-28.20791935812756,-35.72456132855763,-47.60632097332761,-58.20963074164945,-65.07643230567267,-74.78436198421714,-85.77056187108275,-78.60637441872156,-43.41042633067864,2.033037628587808,33.64196054560599,45.26525513761035,47.48943104294638,49.78991279832944,52.228873935812594,51.770538775554705,47.51370188581801,39.814138826585285,32.17660697616415,30.911727840224682,35.8272553647903,38.17790630382848,32.77224297589005,25.483084292153126,20.376713744437367,12.520107164048087,1.7857679134584201,-4.990165097592754,-8.881797004889235,-16.74945616207004,-26.53947242545484,-31.71262369477871,-34.96177962637816,-42.671545971809245,-53.04812207001026,-61.93572468139241,-71.40741094157005,-83.76731158646723,-92.48121690391596,-82.15665112228349,-45.17302463170589,2.2873405312095603,35.573310399073264,47.48422334402109,49.29098559840705,50.561751399745546,51.686389947519764,51.20390006796977,49.65340820697837,47.64565926382552,45.17255858242209,43.542445660386086,42.96361525359283,41.40273341668178,39.656462207273904,37.886474345902926,31.829810198397542,21.022312073203477,10.578319673051746,2.072629199109173,-6.840666071223992,-17.100324232605782,-28.333030025793807,-38.45496427941558,-46.86508469076899,-56.05732194948045,-65.01940453553449,-72.50156892239815,-83.59152490737158,-98.28856754806974,-99.23356273030437,-68.7199736212041,-16.80337851734509,25.82641217222113,42.74664313850894,44.08804933194853,45.761115023179066,49.99781145796737,49.971639718731524,45.27049983242668,42.88132626325561,44.0703038928139,44.947918075431,46.02672429107533,48.77943746063927,49.45206751543136,45.02579309763097,54.0,122.0,55.0
5.53398303426456,1.327192849921725,-4.636998845877924,-12.566728929547237,-21.69052396897913,-30.706525336787067,-35.111702558677585,-35.714924451291296,-40.84858879610655,-52.919083311928354,-63.2425780267086,-57.380012994316296,-30.072824388274718,4.257358436109226,26.70256654863322,34.04131120819586,33.73634788321024,30.756364314417404,27.442472335814625,25.08322205649114,23.41706388714552,21.95261124680783,20.808145393710607,21.35220240633006,23.04559738906892,23.15384790927167,21.62213555727093,18.099324430524135,11.679924858304716,6.639310824911794,5.699577045943127,4.556508984017347,-0.9373529829047562,-7.8539006714040305,-11.598577174709519,-14.586661532304069,-21.633701690741223,-31.449373005528155,-38.300353908304864,-40.061381815832576,-40.943142370904724,-48.1641886840845,-63.13056026038608,-70.23028065369263,-49.3884932430127,-6.820748942386101,28.347577621237477,40.10658650761764,37.85553242289863,34.43306468726545,33.109741605815294,32.61941503938945,31.94372927885398,31.108474093952847,29.650718598391464,29.059301705499276,31.80341167708746,34.43012018201048,31.298538731541356,23.74556121839492,17.195857417588332,12.813616347119932,9.301662508890947,5.920547006948926,0.852085675227218,-7.388454052533639,-15.896407196893104,-22.383989665931583,-27.830481770417478,-32.93557811938392,-38.67468775018542,-45.20681185015819,-50.843543240467575,-56.72532898790607,-66.4391016834623,-75.54665080215493,-66.92464129738057,-31.710267091602677,11.1548259398114,35.69814144243836,39.350972974355486,37.60824277607199,40.11984821205534,43.47095562563525,41.42324814537272,35.837507336937854,32.69717772764078,33.48795310331126,34.94200643956142,34.926864617500364,33.679593680092665,30.45071032082616,24.70495556147538,19.14126087520741,16.184324158135418,12.021468902050179,3.580953613858404,-6.352580695599835,-15.039513739994801,-21.332490136586213,-25.34155071608171,-29.8377577891715,-38.87669310108669,-51.09069899919895,-60.40065821330871,-67.27847301419196,-78.46763196346978,-86.50660433523285,-70.98297563282941,-30.109741954597666,13.304161213380885,38.759937511674806,46.287492283552346,47.98701423505544,50.63501293226969,52.4757665624218,50.931955547860014,45.58474750559307,37.31400164283153,30.959280743980013,31.985519662658454,37.20591455143695,37.31735610613558,30.485241638152832,23.902679006767677,18.62384371518335,9.418798592435115,-0.7767924722038188,-6.068534421194575,-10.60241728463795,-19.733788051708277,-28.616637606213587,-32.486188058778666,-36.63388831478697,-45.65218380599659,-55.802679723253526,-64.40828156673648,-74.76074660806735,-87.23614421932368,-92.16203578671517,-73.94407362019415,-31.343406031188188,14.153796734220519,40.90885503442184,48.42629785588772,49.57188851242924,50.994468549367035,51.724129301504036,50.812255985634415,49.13004444146061,46.949839427670284,44.53948831694802,43.356628997771786,42.656907291363794,40.81389897165995,39.29546654366783,36.75064693558204,29.006514981667486,17.764784833582993,8.014534379900743,-0.3792137726041367,-9.663973787224066,-20.301718533720905,-31.485044038542668,-40.95780603877309,-49.38094046260914,-58.81804682806775,-67.21479350279071,-75.05639547995,-87.92022727242858,-101.04030491576789,-93.86723600174697,-54.66446211322276,-2.266275628652875,33.31251673793393,43.89508960899136,44.123686804230964,46.99531391683712,50.6688612666806,48.81911641607103,44.08929661241348,43.03975439876797,44.446082190576874,45.10464938359486,46.719936581088774,49.4259852208902,48.671105105133904,43.01602898729337,34.4832919747128,24.551543478366472,15.43698212966157,5.911098860121039,-6.271679012518333,-18.08399039007579,-27.466979533899696,-36.07926354445641,-46.4874074737206,-60.03708068890362,-72.77201078463652,-81.64906888963534,-92.0284733798641,-105.78555497716577,-108.49836471325959,-81.89341480532963,-29.25236948189221,22.954228932893542,50.92851710164878,54.47220625478169,49.744800628866926,49.9958122193115,54.57703288501041,55.41321153078553,50.719575320299526,45.44867317479193,44.63279120195636,48.1557926953078,52.19225459847834,53.684565255857635,49.735062395875225,39.68893905320654,28.367347137501433,18.3080133105477,7.415581302604639,-2.249502437018976,-8.428151287584717,-15.671812587652244,-26.789955828414687,-38.34054725775604,-48.258447984247525,-57.24816728907687,-66.82857690059537,-76.95270682127816,-87.38019918966894,-100.84324272158338,-111.30486217171185,-96.85800869808052,-49.455061975703615,5.625325029423385,39.27867708594646,46.84081024025193,44.67980182627755,46.98701862609142,54.92356615297975,62.399330401689504,62.66571489563349,56.411746955649846,50.8555810053806,50.24000806662747,51.91573584108696,51.52616534724754,54.0,122.0,55.0
8.347968181343848,4.757574181666488,-1.2569022328414015,-9.998309496798036,-17.9655776135726,-24.013277210028242,-29.31841587431428,-34.47178395720439,-40.54983187484658,-46.968976273163804,-52.34824757087318,-59.06662577950166,-69.72131498630134,-75.71043359842118,-59.157967272026546,-18.750833691282853,20.802586707310855,38.33571700524014,38.70699279826399,37.8460519455815,41.35711987837456,43.532496365049774,39.89325335872395,34.48497296322034,32.62204372181592,34.00126082133535,35.092796461372885,34.690383911134994,33.01589285081824,28.99692670722393,22.8925679709414,18.067813437534845,15.366735296204665,9.967702307455577,0.7002726229327114,-9.059046396526856,-17.131170658331616,-22.668059451727316,-26.384593230304567,-31.889648004770816,-42.33761249057339,-54.28081762703155,-62.319028109503265,-69.95559431484581,-82.0103763681973,-85.1236471513671,-61.05102311310908,-16.623937771950157,22.91634623337367,42.29686531193508,46.8734856773972,48.62919291096677,51.41057312696641,52.421365205143694,49.77522415037141,43.37975964066946,34.960045789732206,30.427626886815556,33.46068108685936,38.098596102803064,35.796751549810324,28.277598278947547,22.491862468980507,16.4625416206454,6.20660863638277,-2.837498937232032,-7.0725884406089445,-12.799975685088425,-22.696590772909435,-30.183004917431624,-33.293690413115186,-38.78715455072607,-48.71357941860469,-58.3723668873023,-67.05254317973049,-78.36006980532689,-90.1346200493792,-89.80838172941668,-63.514454626626794,-17.27385998043085,24.28912287968548,44.53934868478666,48.900603591295926,49.93124395336155,51.36223432395265,51.60824487546794,50.365166962421,48.56587455565541,46.22023253298772,44.028899414782174,43.22264253183483,42.218762741035995,40.27885954732463,38.87891148720081,35.12895778276774,25.86132032674637,14.681873904005082,5.575809227789959,-2.923447119743962,-12.602926186799237,-23.56745115086559,-34.46797082119215,-43.35600960259713,-52.02651228558902,-61.47179037783775,-69.3069283212942,-78.10728508538965,-92.40452830566107,-102.04256925347656,-85.58294966266405,-39.42321247338142,10.690900277558645,38.54109501897319,44.20354884106447,44.49944982522375,48.32771382343976,50.80134419332415,47.39096647372887,43.289832158448625,43.41481972465102,44.71101725389728,45.355411834914534,47.550357249246744,49.75142141380021,47.45364999092666,40.781073018687145,31.66525991636253,21.77558909933979,12.90385215496351,2.6122596983417306,-9.902958156453616,-21.014582431108764,-29.924527416275343,-38.78441739000781,-50.139517152258954,-64.07604248746534,-75.62554209803166,-84.17644222195695,-95.96653967922693,-108.68516696226638,-104.23683267820199,-68.47557579623839,-12.74409901841587,34.024812441161664,53.886604813842006,53.16660027653323,49.05026113620557,51.23336456545566,55.46876500447605,54.47387891628712,48.9823994814096,44.63450399515645,45.36093038467565,49.427299926027736,53.00304247183931,53.22953908137855,47.32464088367389,36.2984769005431,25.41240017538864,15.277860449914963,4.288976321116894,-4.299348653607672,-10.142195967425767,-18.576928803488773,-30.251053252028672,-41.37376343546488,-50.883997413829675,-59.90774396692298,-69.75532496012897,-79.84780721788135,-90.88071648557035,-104.96106791074301,-110.67612505678929,-85.9458237667643,-32.75939748005677,18.316931830004314,43.63814294368944,46.35409956979754,44.61745197326527,48.89027486309102,57.488092731500664,63.37620165431035,61.26038132351404,54.41001485288901,50.18226265790899,50.70820086603073,52.15045036974957,50.706861081902616,45.45700873276342,38.29418952858015,31.872694896557206,24.828890556145232,15.289051678845151,3.9726017884946323,-9.881860210946828,-24.30815307534222,-34.53070715044477,-42.677224226480234,-52.71446049920127,-61.82645723926074,-68.56203183343207,-79.02251680822104,-98.35542878319427,-118.60817040502866,-117.19539172185056,-76.92870629305695,-15.195846016320697,29.016674505616475,43.91751259565801,46.84868254653019,50.87587816622842,56.0263462035027,58.33436783083298,56.55569508686735,52.56727091035058,50.26897286538056,52.11253590149622,55.5716930394039,57.17221724095792,55.6492305181963,49.81276489689338,39.83861937011598,29.43816358529026,21.501714144384064,15.6281321063325,7.436716530516628,-5.76139227953518,-20.488312198880312,-33.85982066878957,-46.49927536144617,-56.40246089568452,-62.40853729569023,-69.24858783407032,-81.04618428690546,-99.51852816854645,-120.40861394515677,-125.99413479922137,-96.30203883458653,-37.423136053989296,17.8967247652027,47.233855344622626,55.29153056791701,55.276185859321856,55.08037655803617,57.20006842158846,58.69776585630924,55.12163213025215,48.12719827304074,45.45598389021641,50.73262305561137,54.0,122.0,55.0
21.08115984501949,13.855864909801474,3.1125865951223517,-4.405139630626193,-8.23585228883018,-15.428655743689172,-25.417397717639126,-31.30435239015815,-34.347142444065284,-41.3685836539965,-51.714160093673286,-60.81942109949542,-69.96267488821177,-82.07321333958512,-92.05154070115191,-85.13297123786616,-51.273520498467256,-3.65975825523728,32.472147862668116,46.798781482482426,49.17740608052176,50.35612940192086,51.61672166403744,51.35697283580261,49.88426895548255,47.9491440248417,45.493345513703865,43.66382726698657,43.064275177124514,41.67407577489469,39.83381546923595,38.27093953338609,32.986250505849085,22.55513992419358,11.822279001733053,3.1818218543729553,-5.578016664875388,-15.656041545560367,-26.841105189262006,-37.24417335828948,-45.743399559873474,-54.77461837947922,-63.946751784567056,-71.44655108175304,-81.73427018626916,-96.6018981126679,-100.73565805271102,-74.58398907579345,-23.853611392156424,21.58052441131306,41.797285759374795,44.136276955250345,45.27855607447159,49.53922540313153,50.357396099983,45.90986332272262,42.91761481983301,43.86811059919679,44.883436730554656,45.77007808759755,48.411097367825825,49.65415153603224,45.86413036889818,38.34926729317654,28.768799898695335,19.130180153824096,10.236505707941225,-0.9157835486155029,-13.385506783733282,-23.741921489406952,-32.377657647766796,-41.70727766587514,-54.058906304859605,-67.87970880250447,-78.16286202866641,-87.03656170781869,-100.11456380677882,-110.12809235288861,-97.16803893552895,-53.25493338143846,2.9276151246313864,42.665392457175805,55.0566833731721,51.635387866123395,48.98966558404963,52.66113668065591,55.85458609783697,53.12900149067064,47.35092942433823,44.291140180676805,46.37844019954623,50.646298650211634,53.54057593014228,52.23712200040681,44.44340112465398,32.965556678926845,22.54248610578137,12.122637114265418,1.3886278002844834,-6.065284684030518,-12.118131798896268,-21.78920439780629,-33.635625054641174,-44.2613115776446,-53.46452003254462,-62.65591729803892,-72.6948426063027,-82.78878338966354,-94.73842998600772,-108.49386214967629,-107.31558826951017,-72.42752227012203,-16.309874707758752,28.658635270489945,46.00280645363928,45.567517222872354,45.14392212714452,51.18434443695233,59.82055479080262,63.61605585744623,59.428995419354855,52.67087969133351,49.950015082798146,51.24805350045912,52.123356141835174,49.55269837203293,43.432762352285835,36.332039717103505,30.0453979316513,22.3127520041663,12.1929298617738,0.2735754249288607,-14.24765095890113,-27.76658198316752,-36.83261584020196,-45.387099230474334,-55.651901855767186,-63.85830836640788,-70.84064868028786,-83.72002153711075,-104.91013341864698,-121.57179666678803,-109.59610503658189,-59.546987647582554,0.7192067009707162,35.815681676078896,45.120238551249884,47.72240376075508,52.42613538293607,57.12011064982906,58.199395123844894,55.49039441097169,51.53724382359246,50.40534441473249,53.132097226603676,56.31842656899458,57.08324289965924,54.47210481224805,47.23309511592027,36.69680498446867,26.836827412364396,19.722523208893953,13.734705442245911,4.07225788600584,-10.074674255967697,-24.48614150318357,-37.58784574032072,-49.80630366624385,-58.404277769339615,-64.05155889950778,-72.04176303632346,-85.68580004185998,-105.81984647348158,-124.6650369422439,-121.47846285181087,-81.08734536419219,-19.556251650495096,29.25742672520476,51.122940672264185,55.64594044836894,55.035892689228135,55.47990822679481,57.939610997916574,58.27238368876601,53.16854709112516,46.558536373857905,46.309306582262636,52.81082173316601,56.21732328896767,50.8657236835661,41.99030579500276,34.26799504641445,26.8287166514214,18.304296034801148,9.732665779293095,2.163028288369555,-6.0859055020769395,-17.174828392239743,-28.89139017639326,-38.09588744065557,-45.277474353021184,-53.535955455016165,-62.395259871725585,-69.63483936100289,-79.35818287431306,-97.85220794823113,-116.16913367660766,-107.7424012790952,-60.733836385638746,0.29345796093678794,41.47334219056623,54.754426679635095,56.069161620758344,58.72150216165504,59.971026295633145,54.05145034137451,45.554231255268995,42.54960292564695,47.45923828875477,55.627415534989396,58.19228757248355,52.91837746146629,46.3600352077096,40.91218983309221,32.08429296080204,20.875865979335273,12.449730807579504,5.568040655865644,-2.8779122905321257,-11.604935553785708,-20.737128441623394,-29.251699174490557,-36.733791143695406,-47.097594357722194,-59.84034385759389,-68.98209200758478,-74.93855712317196,-88.10673813243474,-107.22029200442225,-105.95788125575683,-65.79530228658989,-7.649963995289105,32.85335808317312,46.3323412314397,47.714293293469396,48.28926872462974,47.926096781988655,47.604443402471944,47.659603603651945,44.00486600404338,54.0,122.0,55.0
43.972969663933526,35.73977843566945,25.86849350479115,16.591451820265785,7.339385903186781,-4.574528144054131,-16.655488040574056,-26.31569917238499,-34.8865478678351,-44.907757184875486,-58.14122216918436,-71.32295281595987,-80.54609525775649,-90.34525221470354,-104.11820851639412,-109.56408274323059,-87.3141789391428,-36.932230971175684,17.086226514899636,48.85786306599598,54.878618524282224,50.25163509426574,49.55449198496785,54.029995210704875,55.67951648677888,51.51381225062499,45.96810699001229,44.423332384682226,47.574052212828235,51.74402077761693,53.7335709785357,50.66045647710504,41.2333949347375,29.778994751538512,19.663003473504,8.89763390570977,-1.1858247200018706,-7.684164182325789,-14.45881581526178,-25.192018693652475,-36.890471775006816,-47.02155499899839,-56.04546127750234,-65.49465952368513,-75.61542240724535,-85.87558473177116,-98.88791085292235,-110.82298613706058,-100.88296099499567,-56.988213046371364,-0.9211864944682537,36.496928770099416,46.83298285082857,44.879902513215136,46.27497551529981,53.72064303912278,61.71887372438903,63.12160395157171,57.37483675560156,51.32381394782152,50.084046179030075,51.73703087630773,51.790235222531415,48.08265060172484,41.32823907810371,34.478247127138815,28.08002607540582,19.58131639595451,8.972992616438011,-3.6881276306370157,-18.532415692893704,-30.78356117167305,-39.10928928962107,-48.29916594893249,-58.3733075804596,-65.73746004334637,-73.6410689859328,-89.2211216367011,-111.18073151937152,-122.05801108533362,-98.51840589000214,-41.24389853761022,14.235798757564963,40.327092121682945,45.86764819345369,48.84365966156097,53.98255993607302,57.88139767162621,57.73473936907734,54.30503860352797,50.76551439047776,50.900571398398235,54.18203284820937,56.844178906003165,56.72432324579472,52.88737807240936,44.35497512328374,33.6301184989753,24.485324337930745,18.069285998376458,11.501254758281785,0.29002301874097824,-14.382904736021334,-28.352496500665435,-41.282571965927,-52.78013581385841,-60.11913377119913,-65.91669970630912,-75.31155580345006,-90.92119734543802,-112.121171462736,-127.0613606865126,-113.61179896441453,-63.96663346427066,-2.9174710536666635,38.18997314187069,53.5683775829464,55.61792134305085,54.91126477176998,56.08958624972836,58.496529678015584,57.33774418196744,51.054469747348826,45.57579569768861,47.813682678945284,54.594982946646994,55.47990743455538,48.33689460471153,39.606253276923916,32.18873336714512,24.47157537838119,15.753452365232183,7.45488792049335,-0.007175782670559469,-9.005873594402955,-20.676646409335262,-31.871698200475077,-40.24688158584749,-47.46012375469689,-56.185222469214864,-64.62491025876214,-71.83188839929412,-83.74695825072833,-104.17507755652828,-117.64363204610831,-97.66845129178893,-42.8221125224023,15.226107249576835,47.7224061196525,55.4957604164644,56.54837067317268,59.608958612755714,59.00206604629396,51.44947041386839,43.88362864247246,43.222488165795,49.8683385425858,57.26665853686964,57.2666574814731,50.85241626997952,44.836295852810416,38.852461415998675,28.826733467651625,18.050059652192253,10.521639439318799,3.273943927294761,-5.416139872300566,-14.177300422401832,-23.371428532518053,-31.384220300285502,-39.2857978887628,-50.77686717375927,-63.065941793453554,-70.67277067255873,-77.56295571496358,-93.82362281332938,-110.35043672304226,-98.19428698870449,-49.09578730164703,6.9589881374142495,39.089206490651364,47.19710257911784,47.856547260825266,48.33271616092436,47.70108515222223,47.745228599673695,47.094948201271706,42.34331004040937,39.19714289138496,45.08278433078029,52.38753564222333,50.006628357696044,41.551957057506996,33.90845052799775,25.74401126150259,16.22204326036656,9.17054480302388,4.3861002754218115,-2.773079401884618,-12.366260664255483,-20.73925878769616,-28.977122502569554,-39.61192527919452,-49.91310052870275,-56.584931433092706,-60.44820154701709,-65.2710327559933,-77.08767750967294,-95.18479305216498,-102.06353384198238,-74.45310153569636,-18.215335467497045,29.32333286857356,45.90598872961342,44.25539493828758,44.193390884684135,49.85715136253087,53.42818997299887,49.0146688761141,40.552844310227506,37.33173630957094,41.41884206406269,46.549634057574195,47.28458401957481,43.3746849648065,36.8227526623093,30.07359161075565,25.193708663244173,20.11630450828603,12.847153444372724,5.222681191358648,-2.2596068040468076,-10.814014072598491,-21.784963204521247,-34.802498499098554,-45.63354926231713,-52.12350285507374,-57.661505230135845,-65.89819838405002,-79.02462358040377,-94.70180197148129,-97.86717001523962,-70.49036444338894,-20.044176968771374,24.05031182017774,44.99558863966706,47.67149942074707,44.54178093535402,44.869996416513345,48.03756764903236,54.0,122.0,55.0
51.12664625510964,46.337296628804815,39.23492560461389,32.69295668840345,25.909089347434076,16.67586491106287,5.596495512500121,-7.888258021685461,-22.568921795692077,-33.415053140164375,-41.50515131289672,-51.32097753692067,-60.80541637246395,-67.63001080902407,-77.13987391766997,-95.3733887964645,-116.58609131371594,-119.5077048888944,-84.33230179077563,-23.159670558906114,24.997773691362692,43.08096352529486,46.51630472068376,50.19409593224957,55.42808778089244,58.27670366737149,56.98361117710898,53.09901125492508,50.337143197157204,51.682365609250716,55.164407414964074,57.12661281341398,56.065718695385456,50.87792994041201,41.28579048863727,30.715207785505093,22.388244166382083,16.423514269389713,8.829490806728623,-3.8045348345097025,-18.59424319934449,-32.13276849145446,-44.890277117929784,-55.35421668920904,-61.68921953784415,-68.10762436648321,-79.10663544720826,-96.70300546097958,-117.99201276159936,-126.99713884127695,-102.45969913936193,-45.84728658938285,11.844656295346635,44.85061468570581,54.93420608494997,55.3990105056181,54.975066791959,56.83822641868516,58.73083323157281,55.91772370517482,48.994625259991665,45.315490460340044,49.76142014998915,55.81402210653344,54.00285682784812,45.71531275172501,37.364867116729656,30.074104308994023,22.01223598641566,13.245882064515444,5.270977494972241,-2.312587520870782,-12.188840382415812,-24.127711826259755,-34.587708928028654,-42.287045489907044,-49.81351063559247,-58.805198598865566,-66.69295591829764,-74.42217312488128,-88.99514613252995,-110.02356691341909,-116.13529128574423,-84.42109028785075,-24.676494446517694,27.795585382318386,51.785609167745235,55.75896407745107,57.31075563582456,60.16394497758095,57.36569637309432,48.8563891473606,42.834913917776525,44.552864830965504,52.3611238298662,58.21288411251168,55.75519450714999,48.886283115580696,43.35043331130257,36.38241699821195,25.50178769437784,15.56231646898987,8.598938013754067,0.8277298334401371,-7.929422520199754,-16.817186531312345,-25.88259006324253,-33.476076176090416,-42.19723882190842,-54.54824686315275,-65.8278142394916,-72.23312844849852,-81.11864187252307,-99.7393463202273,-110.92999404507442,-87.0371801149043,-31.82112893214524,19.323017938696776,43.20323630041277,47.53275798295545,48.04654514152396,48.23947042143894,47.56487502287723,47.856029400220365,46.1068703795234,40.78863590832176,39.97160019184674,47.722865491099796,52.81960209339745,47.76061403032256,39.18128246026528,31.76436645098462,22.98932844108377,13.79517667083381,7.750456276693452,2.712071457423418,-5.473013307999128,-14.986184793333049,-22.95797208441553,-31.822257481596044,-42.83322850229137,-52.24832508178315,-57.87835205225583,-61.48942096656457,-67.74724953244937,-82.09969076771584,-99.49853400699344,-98.21600932292337,-59.76547076447143,-1.905346350105956,37.263522323090676,46.24389024772669,43.548206900728346,45.476539098814946,51.51262601332657,52.99995720849837,46.57035304457964,38.76885317180066,37.95790931327475,43.12015467829405,47.31864271438703,46.545362192945085,41.66529045913435,34.757287184593714,28.47609722821248,23.913985047128893,18.201521918943985,10.592981301785716,3.09632153346916,-4.5644464188715315,-13.683562521590744,-25.46489958847627,-38.37091181037193,-47.874945408695005,-53.6226273445615,-59.64863923250121,-69.13099954795918,-83.67584374964713,-97.88442848004729,-93.43716055492591,-57.110510017880664,-5.422286741043684,32.56399831058805,47.124418065994774,46.817203184939075,44.09934957748078,45.77227855794867,48.45725960101158,45.3016296335607,36.370076500791995,30.25259839227756,32.05820649869196,36.53139086947213,38.70498144896821,39.42578726128435,37.79586702978064,30.444060321489584,18.757405203538823,7.0943761514043295,-2.866363450947868,-10.826900251878639,-15.841908074847751,-19.84394159459724,-27.003474637101732,-37.09075584873629,-47.242284678049906,-56.34014601858307,-62.535557305999106,-69.682483641643,-86.65910753711094,-102.90860523433659,-88.07537492039107,-35.453743233896,22.47672874896088,54.411195296795114,59.7256544126579,55.385149168518815,52.876248454626726,53.0663173808258,50.98373341906285,44.27068795681767,38.50590323712698,39.12754116581704,42.01747425358086,40.49943047212519,38.236666759397764,39.261158798059625,36.757059893013356,27.6086121602247,18.426739884763233,11.396947965745259,1.7710235811225963,-10.468368500021668,-19.769926181983337,-26.969553702323513,-36.52150401694005,-46.37151116135222,-52.43153976188306,-57.823532658064195,-66.62776944442392,-77.4801762405497,-91.12615495056772,-107.58014758575398,-110.57380925234523,-77.65362008236431,-17.66265974923046,33.09882056827111,54.57088352150033,56.02354395198715,53.77750055603407,54.0,122.0,55.0
51.87073184303621,56.28089186916012,51.950252775251606,43.138897389988514,35.230780542101535,27.877338292694535,19.482272268170664,10.818314883840884,3.1426955808215378,-4.834373932990468,-15.57268207177524,-27.43509672605379,-37.042757523336554,-44.31725272326757,-52.3326764037781,-61.302854493239806,-68.6938156020668,-77.62419872072144,-94.95361190887442,-114.6578254853318,-111.21275773833551,-68.63516473574195,-7.2578023107225,37.76091056429692,54.118458948537175,55.9379646228908,58.26548800141876,60.182411343439014,55.18607061323431,46.50331510283766,42.47561384330795,46.44146022517041,54.683589812362314,58.37891506752051,53.86007786006957,47.11111966218388,41.740719709887884,33.515721708856404,22.282995700314295,13.379260328547206,6.564001188901385,-1.702721854136625,-10.43854244379438,-19.5008278584746,-28.226971828022556,-35.65862387570986,-45.47714345245564,-58.226820658466146,-68.09142158824048,-73.97673783409189,-85.68910501851533,-105.13619783066535,-108.33295716695305,-73.01135062826935,-14.998423707401926,29.170234413312883,45.63853687310393,47.664328543462126,48.2288638406568,48.03707623359363,47.56278561948798,47.789851608506275,44.73318244540703,39.63253534004238,41.60169543743203,50.10463959858165,52.27910940820151,45.25060732766891,36.97429446743726,29.466423097960764,20.174793560100305,11.682855016382852,6.433422258702932,0.7203850815955177,-8.292859940041277,-17.425870555685115,-25.26258672505035,-34.892793804435684,-45.90392246229887,-54.23813242899569,-58.98887193262783,-62.73195634336592,-70.97095607282549,-87.49578384291928,-102.25916299132163,-90.97413589491383,-43.29178195032746,12.621244259216745,42.453573709696165,45.649199967703694,43.35382786723932,47.15845317324799,52.74453122142164,51.8370918053578,43.99295254356559,37.64842041728665,39.12293943363066,44.715768049697566,47.633860111193464,45.46272883098799,39.78019386365529,32.750243914113845,27.061607487436635,22.516083063994042,16.102473259243105,8.375423032997457,0.9570000566016075,-6.987517310104231,-16.793459998607045,-29.270384521249706,-41.61765775470717,-49.76852949792198,-55.15986276872525,-61.92742562878992,-72.82537555671244,-88.40778743099162,-99.49344954680524,-86.10267582224893,-42.352466998322804,7.8876744827436776,38.99935879266553,47.99444865402828,45.798421738546,44.10154904623435,46.78492165118174,48.336978438088565,43.04198676597493,33.8803413771726,30.047220710212198,33.41698929418576,37.429396208487894,38.99486736040782,39.37075147302733,36.32118414718855,27.311801825414737,15.240674351737239,4.0425310414577345,-5.41779032195504,-12.584251059552802,-16.90032899378447,-21.47979403142416,-29.761944180639265,-40.08643969365977,-50.04289902348778,-58.47099848065781,-64.04562015043327,-73.45370637129811,-92.67977591316028,-102.96559082391545,-75.84386687792716,-17.420100051864118,35.00081035082022,58.021849824546756,58.728255917286724,54.269555280524074,52.81292164154602,52.945387638489095,49.40131637348369,42.14964878061459,38.00559130486707,40.13241721676137,42.08807874988169,39.56079951415663,38.33642972027078,39.28441242858749,34.58606800904371,24.666575986918946,16.337476625106408,9.070509719866704,-1.7434166913774671,-13.604315379151558,-21.82525735217185,-29.418897112507988,-39.59554387995631,-48.52482282460717,-53.7779390974666,-60.01101606154648,-69.62748647323302,-80.98535109635407,-95.90922951792545,-111.01500302176834,-105.21035778922403,-61.64442944440238,-0.5442877045712116,42.34060861231107,56.206876999768745,55.28535610484387,53.49542835757351,54.124753428792616,56.09341063360787,56.51947019833432,54.050276988247624,50.59248397973276,49.79561655678157,52.99802418759243,55.81259016818863,52.91653209732157,45.27288619270462,36.205192367799285,25.17918714931492,12.153974582887818,0.5126661302568697,-8.142743017746435,-16.007235217736724,-24.686639893449893,-33.41744959215684,-42.211016584569556,-53.48437923428613,-65.25523510538564,-74.36578073872765,-85.38530939761492,-103.00353300829926,-114.75401290194837,-98.26272921615404,-50.4098189393422,4.866648405282535,41.53101261885887,54.026228100537836,53.26022123250119,51.45380594571973,55.07511771200461,60.078185424659075,57.957518083452705,50.13119863231573,46.45149642685935,49.879480900053906,54.458891471161266,54.414722930945366,47.77124711615848,36.933945498168555,28.606406871117102,23.506961192105113,15.290256051007162,3.374694970707094,-8.18917112764534,-17.908668756192448,-27.46120283178532,-38.96498987062509,-51.847183592639915,-63.51907540041367,-72.09487606725631,-80.35251530824087,-93.25562622784507,-111.68101031682906,-127.19141109043605,-119.3897662043663,-74.74954701047466,-13.27155708994504,30.561306309537198,46.95359404434132,54.0,122.0,55.0
43.11303260626839,39.14324008606524,43.89195634602698,51.86262955533171,50.88185633458883,42.698406583318615,34.87146772760712,26.964458348112235,17.42907542097076,9.896545431143624,5.0701709021051355,-1.6025275357891973,-11.104061637365392,-19.714495639472183,-27.750380595136516,-38.11013052490508,-48.72044773821952,-55.90925941036636,-59.993704086902845,-64.3494956357714,-74.98480045228187,-92.86519666916304,-102.76577182758804,-80.37356668156957,-26.086897941637194,24.694147391128865,45.26469386255189,44.689355968669354,43.78459191683214,49.01331909414234,53.37415170059696,50.0255100605575,41.556289059843515,37.264089429571385,40.6482437359305,46.05304264479522,47.49405836599222,44.09104513891375,37.772209472296154,30.876842193137488,25.771527127911035,20.925151369273845,13.886795055273055,6.2083233439182575,-1.2283939019221677,-9.56387305856693,-20.1548543151107,-33.081871145890204,-44.464003016898076,-51.41497165202287,-56.82769987130487,-64.5543593268185,-76.97551977071029,-92.86565707828584,-98.96456652924545,-75.98773915117614,-27.049605914571867,19.415110411461622,43.50491604760204,47.92775733836229,44.8763008681397,44.541451720343105,47.70323673076544,47.5809401819376,40.402506143257064,31.89910551043653,30.51280135704608,34.79236692177447,38.08349302814704,39.2248821402647,39.033163200249454,34.30072721437972,23.91888127589865,11.825828142087989,1.1340707612710006,-7.7836330760156995,-14.071476559769309,-17.974463061133847,-23.471295933493025,-32.69227768817703,-43.033904537961526,-52.73770474279871,-60.2917872764309,-65.85563143209566,-78.24671313364267,-98.05596043534659,-99.62133078472407,-60.75300728106637,-0.01549365498824095,44.83981910459839,59.71055799885845,57.379244171048626,53.46467588353013,52.91472046430307,52.47554141443917,47.45221136810029,40.31537450774092,38.1112961822224,41.10779665486042,41.68767777977849,38.776878136710984,38.70335018861451,38.75471654146849,31.926178701658657,21.926071915018277,14.37189932438385,6.38293773959491,-5.367853616260528,-16.362564256731524,-23.82789366906889,-32.14954512688177,-42.55293745654366,-50.305374376150574,-55.23126934235564,-62.52174819077035,-72.72898105557267,-84.81158615347042,-100.85948489728385,-112.70043546837438,-96.38728116571,-44.05543876954769,14.846157648194842,48.97607004514621,56.630089658733176,54.56159092869554,53.431936119115356,54.66541791592759,56.498661104500606,56.074906255768965,53.00066149767021,49.939874537602904,50.39566250953818,54.152977461020846,55.659549638934685,51.004471084359736,42.752095500110705,33.296642066456656,21.509464897270064,8.489594674040006,-2.239677465703632,-10.378335755336554,-18.42777533121036,-27.268923721367315,-35.84425496068845,-45.172611101520324,-57.05682109407237,-68.12788453665081,-76.9805370535986,-89.93538951821942,-108.04079012411103,-113.6177387188552,-86.98162465263319,-33.80820154012277,18.074645569780596,47.30762295865319,54.55949257460339,52.41000890958246,51.90014304355971,56.807748707711255,60.40684357703068,55.87709418859829,48.2772525985596,46.882132893638826,51.410442294467664,55.07324581888573,53.17426837034659,44.805571276413225,34.01779955100195,27.060128502101843,21.662164335558373,12.04425081879071,-0.13683057141915098,-11.16393427885631,-20.56081387806339,-30.5520724175653,-42.63780769805204,-55.477461746309174,-66.29832777832083,-74.27349386441918,-83.44750794024993,-98.15092725750264,-117.17823027838206,-128.3634020140063,-110.09938964346357,-57.055931561094766,2.3002053857762057,37.71608403705053,48.48472890071164,51.22492240531937,55.85183990948622,61.02896523836186,62.44907949859566,61.32745493509033,61.2907753289227,61.85525918945439,62.627633993429924,65.2396197703214,66.84610358846332,63.980441880693284,57.79723415307198,50.34443531457873,42.374476821225564,33.61387864883013,23.863763823961122,13.388476487923505,3.786949465042145,-5.101165087961086,-15.627733848094127,-26.636563927448833,-36.813194426137876,-47.47223872533863,-57.90757835449117,-67.24850425459442,-77.20474991516545,-88.74916424441719,-104.93423771277723,-128.86962929866795,-145.72913742807265,-127.45889951292547,-70.47175080119796,-6.856634797975533,32.24621046894778,43.4294093785243,42.570802943877204,44.505732676864625,51.763950154246366,57.98118966438156,58.481629865540626,56.82704093359465,58.528748535871784,62.74767760531112,65.60453749963763,65.81231500585471,63.207745948790844,58.10234053286584,51.51334590272693,43.832374143489986,34.84114906396302,25.032503980361433,14.385442782698917,3.1374318739356504,-5.8926422745312665,-12.429093254112713,-19.345947669270412,-27.129711970348893,-35.6795405376526,-45.722184367049856,-55.3408450271095,-63.77952573949203,-74.24446485150773,54.0,122.0,55.0
48.32267562930048,46.16480186915416,37.62288859939693,30.598806430924807,31.490459331345168,36.03260178568672,38.54133003164156,39.387974223532545,38.29680504620884,31.76548591541751,20.394068789423162,8.552186450674515,-1.6367053582533286,-9.925088859116727,-15.323815002087557,-19.197162778659955,-25.81613240779763,-35.69982502043459,-45.92732092490685,-55.258659908990914,-61.85852766722468,-68.27996859375996,-83.88559752379147,-101.8997764080842,-92.56965047805465,-43.69378818263109,15.863752513405627,51.97911497918002,59.96035603188677,55.98355144823181,52.99066414932633,53.04259741379975,51.56315927045562,45.287870100938356,38.945521282567825,38.72322672445165,41.823590908435605,40.92327982813216,38.316611364821256,39.12284139043905,37.54740489348652,28.991423257757173,19.465929508877625,12.374081779054713,3.306811682908479,-8.911057686517948,-18.761470048557317,-25.930966165549584,-35.109817098548895,-45.24739917032108,-51.800037883212795,-56.931474617572626,-65.28872264664162,-75.94383736476513,-89.03781158178438,-105.60519813001822,-111.9282989878129,-84.24443440124304,-25.920326738893422,27.93498985480584,53.26993457573096,56.31018724801293,53.980029022103544,53.5789609251666,55.26879986787991,56.69368483700075,55.38917197483967,51.94369777875106,49.60583498961682,51.31674884574952,55.108147180014356,54.93534471667232,48.79839785825861,40.16535210254196,30.17100305428388,17.714354758849726,5.0448013321115885,-4.753193947770394,-12.622071062132127,-20.93086666553304,-29.811941454440955,-38.31808626259946,-48.400886055169316,-60.54686581847009,-70.74509196125648,-79.96582350189507,-95.07146995832198,-112.05785844850215,-109.5961169092555,-73.31677067561972,-17.371784017926107,29.22399312491091,51.17233489215245,54.3303216957028,51.73662737638439,52.88468199238096,58.434187376687504,59.958879949523336,53.50496103420194,47.02549783808478,47.85213301181692,52.84567072699375,55.2009513078544,51.36181586826777,41.60718972994907,31.498414084695142,25.674710829708975,19.3925188021001,8.577766450351048,-3.527754886459127,-13.981384044531445,-23.269162529750524,-33.84011272343106,-46.38273680897867,-58.93000906727551,-68.79774043369075,-76.55155228173481,-87.03992367777573,-103.4783496548493,-122.10927696131498,-126.97459162684058,-97.62469100969376,-38.82891973450672,15.633257569948873,42.69539974777509,49.41275941749132,52.26367920846572,57.5203014328709,61.90755135199174,62.18502876744215,61.14378440781031,61.48220719216839,61.96588548360246,63.206592727247205,66.03742666356237,66.49966607152233,62.42092383718663,55.71757303925022,48.095537072865184,39.94001910605125,30.903524344506895,20.863530699173342,10.451062072124623,1.2641880325267116,-7.942537442338816,-18.879819196347334,-29.62200780112199,-39.80615971724576,-50.60546729041129,-60.66664502184713,-69.98899070689005,-80.34198235212799,-92.68306272147674,-111.22713861551355,-135.72832824833344,-145.00855845999934,-114.0266964307548,-50.98921841466665,7.665685481835579,37.82870967923571,43.58855926472385,42.47514272331746,46.253925892109066,53.999361802824176,58.712403021014204,57.90972460287952,56.8752482647954,59.676224788169066,63.82658049870065,65.94105209433893,65.35598464705582,61.94661715860785,56.313570214408365,49.41543267070437,41.36590220352654,32.05965406334876,22.07961452856298,11.100084169139048,0.18702372524556635,-7.9180808523487,-14.296434942734475,-21.5505272078362,-29.466111234194166,-38.46061667727825,-48.66148177194438,-57.80934915195252,-66.41647111524487,-78.17257219454747,-95.82185114792252,-116.03928799547292,-121.2881324687181,-90.63814797416214,-32.08403797453188,17.569799599842433,37.33583282684684,37.65211028580732,37.20489749508587,42.91557716534783,49.517508232729625,50.582654256018465,47.273314059369504,46.08638790212915,48.213266546088185,50.47134100904383,52.95707147877626,53.204757545337664,48.42320238838931,45.44121111170939,45.965184182284496,39.80073149592123,25.292700862555876,12.651380898547899,6.412422550891959,0.462146945187507,-10.377417250332005,-23.58827377162907,-34.821741560821536,-43.59659446847026,-52.042672656336215,-63.168298329470204,-74.89840405621257,-82.03329328456596,-89.12411060140093,-105.51494275241555,-119.14685800010423,-100.44016043136888,-46.52126945573876,8.069329645686128,36.963406317068966,45.709378145479604,48.269069229095386,51.72383452665893,57.99450714692347,63.882352806674554,62.652129137669284,54.68662222369985,50.19838908054885,53.978466329711466,59.25224386762757,59.74480619579221,56.41483359224671,51.695076117351896,45.130068442176174,35.507722472543826,24.330388770593355,13.404766017677101,3.248115029550869,-5.813172427138868,-13.275853153605311,-20.467687636316583,54.0,122.0,55.0
53.59830421868148,53.91544672144583,55.85385329684841,56.63602610425846,54.50649629154539,50.97856152661803,49.645446268845376,52.447361461656655,55.69947304556649,53.66521941926318,46.41092608137921,37.48565479731174,26.80710819793399,13.893781657272738,1.875444478115072,-7.097364710927818,-14.920845420764032,-23.49433890606191,-32.29257784823177,-40.933318847708684,-51.84817505836748,-63.832323629887995,-73.222125820748,-83.51964789329577,-100.51183809845583,-114.40430812189325,-102.53010331490549,-57.90086135867881,-1.8276338654612347,38.15827831248118,53.43098009172007,53.64872811174386,51.431449652976916,54.314006913715254,59.689285185370444,58.74473773775953,51.13883260075255,46.47054438163686,49.19106784557924,54.03095048998701,54.792571948078965,49.01337162661196,38.37650479981078,29.424058110230394,24.24058068281042,16.678024253425324,5.017100852428625,-6.758721125824346,-16.68425863150081,-26.100332238673836,-37.3116483739281,-50.134809598755865,-62.13684013680778,-71.08386538554272,-79.07252491086521,-91.16975865945803,-109.07646178578926,-125.95051634076688,-122.54314481196506,-82.45160481753251,-21.05971921275743,26.442064962964167,45.92307860805838,50.105707818937596,53.568970254132445,59.11549401689259,62.38798359369623,61.81507838673504,61.11396400415343,61.663509610096256,62.13161846108113,63.9681844186363,66.61676157977058,65.74090032158962,60.65054357242558,53.56806876088457,45.80901623227135,37.4278310975167,28.107491421258878,17.817985420384467,7.642471651557083,-1.2522850106380172,-10.967312489543895,-22.09698607774656,-32.54397638917661,-42.88098971746082,-53.66079993016363,-63.34809764471595,-72.83387303923575,-83.61112845869035,-97.14536983321096,-118.1900749497653,-141.36842335610436,-140.66612050108074,-97.69668506813417,-31.98749825887598,19.60271416406067,41.28606273973716,43.22271982361063,42.882937429786736,48.374163905291084,55.94737679858183,58.91772447443922,57.332430859134924,57.29736644046465,60.9392616765779,64.70995557255284,66.05463597873515,64.65683883853308,60.496800122009866,54.42628309976077,47.22491398902013,38.784359401875996,29.23452901283447,19.03267968200246,7.799266657189685,-2.4928539826077865,-9.786237591194833,-16.26840633183318,-23.79761762767428,-31.892029505994557,-41.369385380611334,-51.48721108839953,-60.20827022272253,-69.32543725378386,-82.62118771983144,-101.87045582459118,-120.2068404887935,-116.56875646219949,-75.18058996930036,-15.225686049905908,26.344068763803982,38.51670264399904,36.991237782514844,38.305181079690946,45.09721544546717,50.52230525250617,49.80178449767923,46.486019064197755,46.51833155306778,48.90740570615545,51.15168775160221,53.508276392401015,52.201915725919,46.99706965242351,45.59106808287629,45.282061449184525,36.098023248256744,21.00698907810871,10.329232738844631,5.022405411692289,-2.142750424848967,-14.194890057664615,-27.130528934873507,-37.55438983042914,-45.91994382594199,-54.92450824492073,-66.7696854624271,-77.50666820586709,-83.55286597258575,-92.84107755232576,-111.02906275297578,-118.07844122705912,-87.38496861355875,-29.04383093796963,19.302516202567844,40.8555696774893,46.63802786582346,49.0148769573792,53.27223873815767,60.02724458177105,64.48652116482172,60.68290329676453,52.5729294860381,50.585743835795974,55.76217868145417,59.95362780346654,59.03187323512753,55.154317245080556,50.07231294559672,42.64791521943383,32.33297216046696,21.10449593288883,10.388289411457869,0.48443009668005527,-8.126078934902445,-15.25216922238225,-22.97507142740908,-34.341286293243776,-47.59588659355683,-58.35606792266493,-67.82266829613323,-78.29922663356572,-88.64435463131754,-99.05150106012425,-108.15922035340368,-101.39901034332858,-62.91666931885838,-7.087370316588577,31.275383266292874,39.64417347524704,36.058732445252986,38.17195836443059,44.02245181393745,44.129221865185706,39.02748967844763,35.6927531312097,35.663205791800245,36.94833735905297,38.61743697764439,39.282299271772494,36.63130776343638,31.82948066534614,26.946020558839145,21.207584529855694,15.11844811890628,11.210498445042234,7.8351460292379365,1.252314710572774,-6.9004204969670075,-12.919897833579466,-17.311968449853868,-23.766419021913645,-33.21414803150758,-41.63410653984974,-45.62524353358815,-51.652436561825795,-65.78873739064184,-75.5327241832268,-59.877810140616475,-18.941959150747497,18.88221262872234,34.319982581800296,37.698504760364834,40.73390182287094,41.23663957437673,37.57415034054907,32.64460548770169,27.034258421617068,22.16162680418617,21.473835542604267,25.828099685638623,31.871557373014312,33.28100624909352,28.253756717887267,21.376838460298277,15.392206387470088,8.996582091119024,1.0522635409969,-8.45346140741372,54.0,122.0,55.0
47.879334899674845,50.83093209495162,55.0974530115296,60.49701203063414,62.49983915485928,61.45975194602915,61.214660690801495,61.80342358175504,62.429080531918906,64.83623434977949,66.8644693894635,64.61015886349006,58.72510757625267,51.37013114986894,43.472565825493064,34.83585639127091,25.22266964391823,14.774850398057353,4.975287440884228,-3.852739735317723,-14.136588072448301,-25.22806299333797,-35.45733741672491,-46.01810955759712,-56.597236211887235,-66.01041192797119,-75.79806221148712,-87.06602284789969,-102.29697336105585,-125.51047444283361,-144.97183720433122,-132.4930779184091,-79.33954994011854,-14.341401797357891,28.858510055033044,43.052460913600896,42.739496958946624,43.86438041199195,50.687515352620444,57.458897817122484,58.69089808910257,56.92229441094959,58.07171782375268,62.19793320982169,65.37402985672418,65.94224752071926,63.71790026626405,58.88880416204577,52.45178936125201,44.92935885449554,36.10376117251644,26.369967231191495,15.875826344681288,4.573013648753268,-4.882740350294215,-11.592195431002859,-18.352640455431047,-26.07101234255372,-34.449034766421676,-44.34718219937306,-54.160478004991,-62.62825960305954,-72.59455586418244,-87.61576505206216,-107.96128825214106,-122.52649401110564,-108.4200782054385,-58.02482852326775,-0.12663070952617989,32.47430675790031,38.56121818732736,36.676577964542254,39.928104316689904,47.14641189907256,50.94897325832079,48.78210497969657,46.04334585944957,47.15568668457959,49.55133163825349,51.88974259502615,53.73290554367551,50.783024436502295,45.98744496998061,45.901525680654615,43.73834113192119,31.84694434697983,17.169316519503827,8.520871056973396,3.438313367395356,-5.213267106537988,-18.074204916132143,-30.433287317570986,-40.104291160881196,-48.29009722688454,-58.098584785402515,-70.2853574095908,-79.62104918444317,-85.34096347166624,-97.51303365841528,-115.68929738630136,-113.56248245957259,-71.79972180439484,-12.587952701107007,28.085889310396773,43.4532144482281,47.33435360014936,49.94042874463251,55.06890374150466,61.88760726387394,64.32067923127181,58.29674332481018,51.05053740215732,51.64516238556981,57.422034370754616,60.179837304230546,58.08074336173839,53.81708980354033,48.25026772334595,39.8997369179968,29.090695123891077,17.929886258642455,7.436602154773063,-2.171303845300344,-10.298254276132072,-17.265045554516682,-25.825249175240074,-38.217501485357204,-51.0293474073433,-61.05849089746223,-70.75455668696694,-81.36175125868742,-91.56554517229159,-102.15484237059917,-108.80797615589574,-93.64853983017801,-47.038361912992976,7.057062041995133,36.36322435245131,38.74447284990909,35.80679414970912,39.957413126196855,44.8736765318749,42.87277932972074,37.66731665341415,35.43638275457991,35.96091023170552,37.417960779311635,39.02951999371788,38.895972398062106,35.322990848306006,30.426664397761197,25.420231822427194,19.36737647598657,13.713881542267828,10.394395180035872,6.309083521833537,-1.1359421789084982,-8.947188245601875,-14.196858508724928,-18.83533253993523,-26.276142381218207,-36.01836193543867,-43.1653515402499,-46.67277520901467,-55.04842157777655,-70.06607362650949,-74.25444630507643,-49.738866397217485,-6.2557328882394145,25.60728657676913,35.74536962245599,38.51805983223339,41.36289009954341,40.4813488780468,36.20089784554891,31.097907030144633,25.398637689186483,21.415761348488953,22.27961007679289,27.663001078996267,32.99847465427996,32.34625394721816,26.235111772016214,19.572504432223454,13.666544166971581,6.876182663933676,-1.5616615962596692,-11.307215474252358,-19.725068428493724,-22.883281633986968,-21.767944811552102,-22.71507437997653,-29.291078822759232,-38.073839112166375,-43.18467115832275,-45.559318233442795,-51.38566440193043,-63.77077629701311,-76.19271002245907,-71.7174641958812,-39.12895851459666,5.325997915340351,31.824999855372266,34.14084210734659,29.57241257593896,31.57716179128716,37.82173178351182,41.66269576602735,42.84427523294639,41.01857963069335,36.52844624379968,35.49419324380486,39.93011273876341,41.593034536949055,35.49319231298699,27.395303454816784,22.916383952782027,20.9864396300185,18.034830303213173,12.39592021989357,6.003056184736783,-0.6723369977538991,-9.607242719376703,-19.17248212010825,-25.54585456167437,-29.1852839276087,-34.82340849056493,-44.87179246757957,-54.659944008263864,-59.44774538292682,-64.54584815942863,-73.28967607580621,-75.36629922021987,-57.28895214884954,-22.044145350148657,10.768290068047254,26.636741839355164,28.878073266171725,27.970486984101004,29.971386840679752,35.73487183540037,40.986490359141584,40.68335308524414,36.31148396668941,33.81841762772954,35.43850839320792,37.68286299833953,36.37558211387206,31.538873074064984,27.047269329005672,54.0,122.0,55.0
-76.29968169857813,-93.1303540303752,-113.67653440012522,-122.35855832513504,-96.94163197209615,-40.2154638563791,12.599709754849014,36.26077255245859,37.99087991961209,36.898552388345,41.92338392065541,48.87304130213894,50.81291179652711,47.72189518298547,45.98823442049072,47.87863182115612,50.17602053342563,52.637483514853095,53.49324044232701,49.16287182952191,45.49820995795111,46.04757751667324,41.25121777080911,27.355945598136458,13.92860822263436,7.042900083176787,1.5024105469659466,-8.678803920675113,-21.883961319733803,-33.49072028029916,-42.51561032570039,-50.807129306486225,-61.52768472399163,-73.53416037859557,-81.32893573868476,-87.73696166340662,-102.90894860752657,-118.61733399716648,-105.39690932610355,-54.65290211185335,2.066298839297813,34.61714393899674,45.14342067603132,47.96516771434479,51.10056676372606,57.049136923035796,63.376228178087146,63.3518002884448,55.792608303449065,50.28140089368516,53.17872848149506,58.77071730799315,59.96945635246896,56.967036370665966,52.39124457205458,46.17869410398368,36.932477275712955,25.829644640921195,14.81754965588424,4.552446156839433,-4.697019635548868,-12.354786115616513,-19.408283629214537,-29.046782952779278,-42.12733898619331,-54.17661672964397,-63.74982277591835,-73.78800522730974,-84.36205285032766,-94.5445927510549,-105.05139553899646,-107.59603364592294,-82.99431754902903,-30.469300104890596,18.889100579111382,39.02207812746694,37.49115308939637,36.291874880836104,41.809945068736674,45.049281514631694,41.33400909913207,36.61571266646885,35.41280266024235,36.326545068259264,37.909536451830334,39.3018045490819,38.183771470049024,33.916113531215906,29.035151392457117,23.78563457833391,17.549210542028625,12.55289886124765,9.510103974796621,4.452575575711156,-3.551426039312435,-10.739931045162121,-15.412792511730018,-20.62089662506728,-29.015636195375254,-38.583569080107516,-44.30276791217491,-48.17228754879645,-59.15829784243362,-73.45064673863064,-70.37256576505135,-37.8345748303063,5.281178994000092,30.321104239858116,36.63815459041932,39.43823767792244,41.62564494546763,39.429176381662245,34.78771920894477,29.47778899070717,23.898039053789052,21.10308157255781,23.488710487504168,29.513407858461704,33.569990671799445,30.92199145393035,24.204704583378625,17.852826758375162,11.854952866676193,4.615297701987607,-4.301389847250771,-14.065561865649538,-21.285618450376266,-22.756262272927128,-21.55664453503769,-24.052997165567806,-31.905211294298233,-40.06370840422655,-43.89987314221366,-46.63230941512669,-54.34527126368398,-67.96622526151816,-77.46943254187843,-65.08009115035841,-26.08522449407914,15.758512837469365,34.427170928954766,32.65406276368056,29.306224489688734,33.32603572992846,39.29198340938814,42.22416380815609,42.707482661026695,39.809123407545115,35.571903030856255,36.447909648043215,41.1282592548013,40.52730402557549,32.986220272705495,25.671903942381455,22.251609895873344,20.38159303947769,16.646056903938742,10.5193078058742,4.196667337910831,-2.9899696816188963,-12.496629106003422,-21.440685881529248,-26.703215050002694,-30.39872550103516,-37.33316008813053,-48.082932187512746,-56.49116364449269,-60.53361019051386,-66.89316757093667,-75.29987351437865,-72.51279555806744,-48.17401132677685,-11.367127924156621,17.262008810744426,28.20573957700147,28.55605282111827,28.12436047729654,31.341470063144158,37.592283524742314,41.558628121210106,39.58771450926242,35.171258664090956,33.941425233032696,36.24533969835559,37.776889695893736,35.1987221675894,30.04144870423822,26.15309490385807,23.50743082593598,18.887751170493715,10.45815219446738,1.1126185776281217,-4.583551007387409,-8.049144542244306,-13.93906914045702,-21.87246138964169,-28.995429950015314,-33.66285371769019,-36.45991881846647,-40.919841422334194,-49.03098963680428,-60.20957351356731,-72.71011691032481,-80.49598974038646,-69.75934453055724,-36.539660602289416,-0.8173085227638649,19.43635785405695,26.437554155553055,28.683533026612277,30.809759171780634,34.940216884004556,38.473062387671646,37.98526692674336,36.57428537283657,39.8892596461976,46.90547421488639,51.15091907136039,50.22669172709708,45.61562609264934,39.72870764519176,34.70554338150098,30.858396467252813,24.387864476955688,14.627969691107072,7.148708813024178,2.270105037751376,-5.063614344450032,-14.020627751376875,-21.0233674333836,-26.20428071606763,-31.777911476152912,-38.656066736386904,-46.76506905380239,-55.20553244713676,-61.71016699608736,-68.14231348772527,-81.9151743780834,-98.47681802605149,-95.1524969766087,-59.890552739413,-12.20643850885698,20.872911194986845,32.732464199332256,34.82021666995163,38.96844062450016,46.30203701483767,48.788260947892304,42.78150446264581,37.11397194096359,54.0,122.0,55.0
-21.780069038904525,-32.60848594773123,-45.92018967597383,-57.078358784717445,-66.5117492118255,-76.87457470404549,-87.30106098122653,-97.61321958418182,-107.39382692523004,-103.98661269311076,-69.74231552230059,-14.211330401750372,28.015622880435608,39.76994190889813,36.40052075730409,37.45577149973497,43.42768506804406,44.55565143086924,39.73192667533197,35.907897803725966,35.556088811116624,36.74273900648493,38.4011455505924,39.353098675452856,37.17683302202186,32.484685595174795,27.61903531609638,22.04145990014151,15.843533789160752,11.601442488636978,8.428445498415439,2.311572208254316,-5.881591782273529,-12.281447864906713,-16.68063173020888,-22.70404373964104,-31.884735960627896,-40.77429146287149,-45.21386581312721,-50.366047782039416,-63.68385601103893,-75.32996326259016,-63.786799076334205,-24.958406657135765,15.063480983653765,33.358735663677436,37.358379049399176,40.35525192188944,41.45794101359984,38.18600385867656,33.333749117826954,27.80718311296124,22.635867557566634,21.250760003988617,25.031509282997245,31.199970331406732,33.516909936407224,29.14780948920459,22.24495522710227,16.170539746175123,9.92829609870918,2.21008073304646,-7.132464247244938,-16.616151297030274,-22.314306367135778,-22.381601851874144,-21.689559926613363,-25.8901684628672,-34.54504225861853,-41.625440576180864,-44.506012005747735,-48.154252140773146,-57.87447816705412,-71.88653179343468,-76.83823825035931,-55.98826495503386,-12.781857736172565,24.017873651549948,35.21215507524942,31.121857306233828,29.76834891590538,35.22175247191268,40.456056190057964,42.611857955421435,42.26486626370226,38.43999351074196,35.106823449246846,37.788211569377125,41.820690430649854,38.8092552193718,30.53631252926494,24.316608647504918,21.720753502247046,19.601428989060135,15.029802760964426,8.656632737096709,2.3271610175052615,-5.541957816918198,-15.34067134136794,-23.359843583934367,-27.708025949948063,-31.91239545026145,-40.22122286937064,-51.06718945293426,-57.87468480512713,-61.87011684807493,-69.51779835289116,-76.35868637061616,-67.70976627973731,-37.92729895690166,-1.4640080755234042,22.151309995768237,28.884046923906837,28.211877647423517,28.609146153398655,33.00541971840659,39.24725421618656,41.57697564893409,38.27231197036475,34.34010874472899,34.393269308064724,36.980286254141134,37.490332436757726,33.78613465461184,28.684684561409664,25.38486504240721,22.51926555345144,16.817966718205234,7.608305905234128,-0.9980027314692956,-5.575667096750124,-9.398958290503376,-16.161903797540887,-24.105950124458776,-30.640707897397814,-34.5319686015926,-37.42772941855676,-42.879077376762375,-52.007368510204515,-63.80291108547624,-75.95037012785822,-79.91750999872166,-61.948763697293806,-25.324658423391035,6.856467111846905,22.399021932900794,27.303188220940907,29.16661734110874,31.803240666399706,36.250621686214046,38.744151783463586,37.38927804950789,36.90293551454199,41.81570039174022,48.64169490943243,51.3858552513958,49.16839136838134,43.945478653822036,38.103612515442805,33.58314964447419,29.442572031162953,21.70870890225961,12.01689980100349,5.709453659394738,0.5240982539803368,-7.685669926502394,-16.313094936261113,-22.61735120729441,-27.691357044285933,-33.634108318555114,-40.880986820443724,-49.259833954617264,-57.357213648737634,-63.265072360547926,-71.15178083343376,-87.2062999756688,-100.6366669036521,-87.92487322482293,-45.996017203079674,-0.3733427421709471,26.17021879476797,33.678315527857784,35.520399686731054,41.01813227184924,47.91151811368758,47.726540441912185,40.57303513744548,36.931052599751744,40.89672250153336,46.439425410151344,49.6295265001793,49.85922917982135,45.63288558427619,38.86674643305096,32.13889285087433,25.376197128842925,20.31649595751799,16.692285339476687,10.39602624458409,1.8751372640818316,-5.165593047249604,-10.243973147417524,-15.578484904843497,-24.017204821131426,-36.06111687241947,-48.853274502547364,-59.260059982298316,-66.28661298576662,-72.46712613991343,-83.46524164970421,-98.25709887941981,-100.51377988100441,-71.91926457645695,-21.153949741324055,20.73262617460719,38.5430175608136,42.00893518188017,43.179410087142806,46.40391715406288,50.85180591118045,53.040357303786095,51.935125424270375,51.06914894615841,54.278326294312755,57.79900127513209,55.927962937205386,49.81548387473249,43.8859875820373,38.558148931092724,31.356832751167946,20.91965627224409,10.141708476678087,-0.6138077694111079,-12.59293326969687,-21.743399695213373,-25.637225751554496,-29.76837778697061,-39.13291279574329,-51.64269116526164,-61.664942556448665,-67.57458596766128,-74.14002238708898,-87.53029765982613,-104.42555606827847,-103.84465481055926,-68.37030214963252,-15.45348513711084,22.912463602766042,37.84438775642879,42.1483972004946,54.0,122.0,55.0
-9.997164653122487,-18.84033184005652,-22.813884275233185,-21.941637911274416,-22.27461499876585,-28.14570742621898,-37.02706096556694,-42.77321068875314,-45.17877337942854,-50.22718216205543,-61.84728168135072,-75.0908738909278,-73.91148710979711,-44.81656492406575,-0.09388448232326951,29.902267528212946,34.679760087514794,29.930267831151536,30.886001606543882,37.048451465293056,41.33732090556889,42.81979008491423,41.48658084273495,37.088629022656924,35.23331297437786,39.273370063267734,41.83667652349171,36.60976971375859,28.3127628412293,23.29383627721405,21.227397992936407,18.58865635638147,13.2496900211398,6.83347438298915,0.3189274285621238,-8.292715838547057,-18.020927323303983,-24.928834964568715,-28.696134442480965,-33.80809598314076,-43.37525032728859,-53.64193358541623,-58.97543399094751,-63.599838581825956,-72.160836546782,-76.05864898270123,-60.98558708670042,-27.084114739398625,7.241645536212794,25.53204087802701,28.965929015776435,27.99589546879154,29.45665378917328,34.85712831123511,40.54417234024814,41.07048145627686,36.90922052889823,33.89047668469159,35.0773312194632,37.52466556166476,36.81224463939752,32.25287891676408,27.51829371738896,24.663595009971836,21.278371332319296,14.415781654117346,4.810409864387663,-2.713319341292943,-6.502528251182575,-11.044480734244447,-18.480963090536346,-26.21516726327351,-32.04453039508081,-35.29991569190657,-38.632087906223774,-45.159263852260864,-55.207034377418196,-67.46627765148985,-78.57227428308784,-77.37940920523151,-52.407486084556965,-14.586236280871193,13.000823561193625,24.482030616588517,27.945372778125257,29.722077411389154,32.99265095912715,37.38283273286055,38.63905900653787,36.86395133890371,37.75137703456114,43.91990350825353,49.989451738610704,51.19315224130053,47.856410066033696,42.22603287959654,36.60556319240176,32.526920812906596,27.678245312142362,18.82676787582101,9.76239451089072,4.378106925169363,-1.5400875419589646,-10.334408696214929,-18.38273378560498,-24.10024699497922,-29.26951635215216,-35.597506130025394,-43.20911652821042,-51.74383230622725,-59.278209485081646,-64.94795268120959,-74.97800285826963,-92.39587711558413,-100.45563142271493,-78.02863737810719,-31.829699641138085,9.691053051516601,29.78859359584191,34.18839331893859,36.60835447051347,43.237887989769064,48.861754607090745,45.99218277985825,38.71668296901392,37.46699571841185,42.637304593780016,47.6197221937985,50.07379540697806,49.10309799721601,43.76548277393419,36.90586164700872,30.16486540649629,23.63622340175468,19.29621715922088,15.26899581646648,7.981045659258094,-0.41030475318226645,-6.767133931980715,-11.626371874999954,-17.60158503920611,-27.207865997163864,-39.84419017354358,-52.19947634797427,-61.60857987235471,-67.92854829727739,-74.94261691666429,-87.78449436477973,-101.22071686176726,-95.73863507770314,-58.268168887962084,-6.882494960484966,28.22792302674324,40.343424731282674,42.2667980077666,43.8509742902909,47.71001505196636,51.843047709676284,52.99050376287493,51.408165808986425,51.58266871795347,55.589736864413716,57.914136118558844,54.375203076034296,47.97199001595195,42.36775535857402,36.80174116292018,28.60246287629692,17.7076570843663,7.1475998473009374,-4.027234327281271,-15.778252975682813,-23.28720583470542,-26.47170476048755,-31.895709784339484,-42.67024313595051,-54.99893674561699,-63.68132597266203,-69.09230945217864,-77.14966343587744,-92.66848598282917,-107.25590808017914,-97.14358531917364,-53.30954401661475,-1.8851163206442016,29.281682034182815,39.477395383814915,43.34065823869793,49.53478365111607,57.06722561667061,61.58835873758506,60.774826020877974,55.53525931466932,50.94986698535574,51.86104143362077,56.35391725519031,56.60238275071462,48.44546433880085,38.147441010646524,32.34781022470962,28.013483972040078,20.02682300352711,8.461119189502456,-4.315574918190734,-15.877205425330306,-25.099696496493284,-33.54949132674442,-42.23726097285612,-49.46407358399658,-56.049787729261546,-65.10176523648154,-74.92107657304719,-85.00230867736835,-99.5747169682198,-111.32043785498284,-98.28937633641321,-54.262478984561454,-2.5118780951280613,31.429459004688944,41.48066597313161,38.97849105859902,38.53228962722114,44.75613324783593,52.582238233058774,55.204714045165275,52.27650415563706,49.67601640063711,50.317161640478574,52.43699625648831,53.21053065345446,51.131808080822694,46.7416937660184,41.42637561702901,33.83111172473789,23.569473361017604,13.1888159587435,2.1855959167213883,-9.415687876351287,-17.484030042682434,-23.985318988985483,-35.00904191326708,-48.62138034414308,-58.63367652329816,-65.99312217028717,-77.76186854921706,-95.2503747420368,-105.93482139632418,-91.16628795396689,-46.64658688419862,4.6513517471932175,54.0,122.0,55.0
26.54566127215762,23.89939093299608,19.72232382175576,11.748413708534178,2.2102698425115253,-4.061852314787954,-7.516440230783247,-12.971319496922485,-20.812615613196456,-28.162435706781412,-33.20359184375219,-36.072257280068044,-40.125555471925075,-47.74418231150005,-58.59442515928723,-71.09432536621819,-80.19774324742161,-72.67025776099953,-41.69155176237426,-4.857626959166148,17.70291189131719,25.927823207003087,28.463533587687294,30.422591951770126,34.31488120861456,38.21439929862538,38.2367304781776,36.580444613020525,39.11182726634084,46.003618573235286,50.89060636247669,50.61218772172644,46.35469346955749,40.506992463583344,35.26756346935905,31.421613912736248,25.51541636850832,15.922187753592688,7.894257184384385,2.979992658884635,-3.8991178189378095,-12.89454219430423,-20.235062343401296,-25.538064167935193,-30.95973977499056,-37.66634954745483,-45.62702887269583,-54.146400139156384,-60.97942717675006,-67.0022912216701,-79.5836328021267,-96.85651928607037,-97.50454894280173,-65.98005228143948,-18.158318059309796,17.79951431816706,32.047097119349765,34.593409526130735,38.13000959914039,45.39784152021429,49.00699724868513,43.83378728982481,37.45405033466248,38.59213915183401,44.314215445591934,48.584326023182165,50.2418498897424,47.942390130040906,41.78677108370514,34.97264361984879,28.178977792937893,22.11641049957553,18.320860557543085,13.518098197819308,5.471241887108108,-2.49515912900534,-8.23239734050605,-13.099574448500267,-19.952234901413597,-30.671923147877408,-43.59695481258814,-55.28372193599688,-63.67340400547564,-69.60578997832837,-77.9789417104466,-92.26804306200161,-102.57870671773101,-88.03934433377658,-43.35912011225237,5.830290690720055,33.66221182240544,41.33868192390971,42.543958259640334,44.74167755376617,49.050146066120874,52.55814015492132,52.679317118627736,51.04067772270074,52.48496564748188,56.7460690966015,57.480244470749305,52.58168168553459,46.23314464041013,40.86329932319299,34.81026843328008,25.58586974438131,14.570525336555054,4.093223412535744,-7.538464448819605,-18.56814288046436,-24.412122407263134,-27.527059404194862,-34.5200712530653,-46.34882049934379,-58.0067178105955,-65.38540759079785,-70.83087233249562,-80.87102790076005,-97.86522078704242,-107.92908804018415,-87.33097683359752,-37.61846062196799,9.774792419862536,33.795026215060375,40.643170676694794,44.79461911807073,51.76776126985777,58.842056680668,61.931392864672716,59.56758196605953,53.849461103826535,50.57911645704306,53.074777972798074,57.22748256363669,55.006907117509975,45.257366475019424,35.96474549152583,31.246624842736107,26.171773207855484,16.954118116489298,4.787365128317387,-7.882534539202539,-18.749711682360235,-27.526629784205962,-36.07487013118981,-44.547890491364605,-51.261915304590296,-58.37851488726547,-68.01845899334886,-77.6227661202232,-88.68414630166384,-104.1256526211927,-110.9832952560785,-88.15046151160634,-38.71448276373553,9.805813204640184,36.52983234440533,41.307362989040314,38.19557410716287,39.7429412573269,47.200028754285235,54.06605009458159,54.71312933019623,51.242164914767265,49.553141326322475,50.90661302349442,52.904359605899515,52.91871248633973,50.02285520485573,45.29706413581183,39.57278162012674,31.02834730932884,20.52098227165861,10.170205504304008,-1.2676003897070311,-12.224176036916482,-19.202514362419,-26.590666542511617,-38.98689882470281,-52.034131119523195,-60.75320017161852,-68.65757411983617,-82.51741341234533,-99.88940605405762,-104.94439069670156,-80.83144752911026,-31.02074519909968,16.21748048801914,38.376096914581055,40.25745837329115,37.95229727729044,39.847769630864214,44.51080484124846,46.31616433761276,42.3259055226811,37.32551070975227,39.08866407201925,47.19154897417405,52.47575399787455,50.72421477250893,44.31315353011843,35.46946220531414,27.519631549455816,22.60163729235457,16.920446385908946,5.983872690763953,-8.890169702074449,-22.479675408167637,-32.83948398188807,-42.78098042325197,-52.99231195967702,-59.94078763044729,-64.54908879184516,-72.88253038198596,-88.95451313759769,-106.04069666984945,-102.93552239329615,-65.03126826126432,-11.412659925533019,24.22375704402332,35.5148553122813,37.66018270673651,40.725027691423605,47.20351362177763,54.630271938797414,57.99738407937643,55.04771993337119,48.35403977290516,43.55902231181527,44.26573692997501,47.3241687988181,44.80044979126183,36.50889932887196,29.98134788672198,24.090823210757705,13.261498889356552,1.1108929559471499,-6.406430467141514,-10.578258087387896,-15.988603949157097,-23.883133459715367,-33.135343455756384,-43.261985137617984,-53.63402849539341,-62.886067006005774,-72.71211866888764,-86.4770668407032,-93.53483058187042,-72.70307247549509,-26.035806032894286,54.0,122.0,55.0
36.92145819641659,40.116866802988056,45.81894299087215,49.34697223183492,50.06918757101728,46.4272118904457,39.78331999156952,33.038603810691704,26.236156989856333,20.835490954515507,17.25259537594882,11.444465809199647,2.9851754635176433,-4.368909468164083,-9.616082886517432,-14.742606054159115,-22.654290670598282,-34.33223277519423,-47.23495920376951,-58.07549020361586,-65.50190786430984,-71.48482821503946,-81.6089473346846,-96.51587356152808,-101.75885142628614,-77.56780147448251,-28.078113134985053,16.535586865157423,37.33664435439304,41.85735297062952,42.939147566920354,45.839665096213736,50.31897080550198,52.961580356100974,52.18930169243348,50.972125732005054,53.67549241356817,57.57003045281121,56.523269649093365,50.68855666360173,44.60538802018484,39.310225642395295,32.52122856601753,22.407275710668358,11.52452382989992,0.9086658589549129,-11.031052123836032,-20.86289753328728,-25.27446504982814,-28.95556452271539,-37.591718745367544,-50.00674346469597,-60.606457185061764,-66.89922612042837,-72.97138517858028,-85.29135975997796,-102.58689196502843,-105.84736262675018,-74.84071481164484,-22.222658986827884,19.273525200858447,36.82761329717264,41.66149424031784,46.53942829244297,54.01504696269429,60.26351388731406,61.79909061209362,58.04686056616355,52.387038486323874,50.74374917907139,54.46202714231897,57.516483939115794,52.70553273003384,42.14137668187921,34.24222169943748,30.09639432602634,23.944913138800093,13.632576623156384,1.0703050867413002,-11.284518879118435,-21.429343031972,-29.947015594376353,-38.618268493598876,-46.671370152837085,-53.09111842630769,-60.97008681199627,-70.89097894374572,-80.41624335836144,-92.85944131401936,-108.04692526558965,-107.97322327530895,-75.59800784823034,-23.313737580088432,20.157268960811248,39.69714391626701,40.49149350273008,37.88812080564541,41.49932177420685,49.588388683003785,54.969680678589576,53.8468745825002,50.4007804761108,49.706278585729756,51.55137196828946,53.1920555578302,52.37153272655733,48.758064373159954,43.80018396311659,37.454966879268966,28.04905700709602,17.52341305823334,7.034928262894259,-4.710498538086762,-14.622379030698262,-20.95396561047204,-29.693262430074256,-43.02256712003866,-55.015101749632706,-62.77767979758334,-71.88503011025213,-87.66724331384584,-103.5171709450658,-101.3780426566165,-68.14797889304127,-15.658650681069822,25.471154118981435,40.27482984852371,39.430955291033214,37.98664176759934,41.13376732373388,45.573837448067756,45.69791300087685,40.605695136938635,36.916988592304904,41.12036996640974,49.391448884520514,52.628851630563496,49.238327218541,41.89990547365399,32.902730517044624,25.841246716240796,21.311113066966776,14.367160702459994,1.878433471403124,-13.153205005691408,-25.729658710574984,-35.613093141111065,-45.83556293908733,-55.45145593530149,-61.27609816063453,-66.30168389868234,-76.73029731711335,-94.5168762381388,-108.29357787790957,-95.44109829979044,-49.498890010532904,1.7198715398660358,29.422712207808235,36.42897198265454,38.24093505827185,42.26697582641039,49.46673845636188,56.21232525582848,57.76844581462527,53.27233220014223,46.52700591158904,43.18080428822365,45.24933588634187,47.43727233532453,42.66585415820493,34.23644641310183,28.546032217152412,21.508368370639598,9.533793656381127,-1.6286321187756296,-7.737183320926915,-11.873326161210954,-18.05818000804017,-26.45563924185093,-35.98004857699315,-46.29316005666117,-56.4546024304844,-65.4458262483395,-76.35415237260085,-90.18455837218352,-91.01734582902243,-60.80159334036726,-11.99950216285046,23.11114997911293,32.26587168907802,30.322330207364203,33.72310460016501,40.976311577749414,41.504815004949755,34.8791993616411,30.325677098588034,32.028931396189265,35.487266054988346,35.79772045142353,33.33315890132052,31.287215428416662,30.557777854213,28.938678480512806,23.65982418829399,14.1919497286491,4.692462646172479,-0.8380626242730731,-5.01274054093683,-11.990371652408626,-21.11331142192795,-29.986498256637432,-37.63018233598122,-44.34004475260716,-52.98261791115757,-65.24386712706293,-74.9214328380805,-71.4602714441505,-47.383171858630085,-10.787931803620133,16.49453738480353,25.80758141775973,27.388942259312373,30.860767730704715,35.841797861348816,38.22551136074402,36.46648369986043,32.88038926001296,30.754762245068367,30.62112453858345,31.037869737292976,30.893679727236066,29.1733819994835,23.319523551180684,14.873659314643305,9.565191724144444,7.596535929541614,3.436675741622082,-4.38660830261125,-11.147793486804003,-15.395996510428802,-21.72429907807792,-31.98084526005795,-41.164174949881996,-44.875027053613465,-46.77130554918151,-55.32717476771581,-68.5455167748732,-69.15218484308957,-44.31984695474593,-7.647398327692704,54.0,122.0,55.0
