-4.401586637083667,463.5539568709187,601.689122917214,521.061113813153,455.9241579276562,447.37045080722265,436.18131779175354,400.6605291314588,356.65548727024304,319.2708875661296,287.35367945871127,254.46244734537504,219.92710068364065,185.95299058699752,152.92834064819638,121.84361170206869,94.71182328507089,69.10403994097285,42.44630489619626,16.22975845552681,-8.56432399036112,-33.3196135439841,-56.56967141866084,-74.5690256296263,-87.93553685835518,-102.51316346378786,-121.25757212503025,-138.20507731503875,-147.55598211240684,-152.2978943430319,-158.69176801147577,-166.76749113175623,-164.5648272305224,-140.0337692138398,-104.73161745200944,-80.30949757472752,-68.18259416936176,-56.83560103788627,-40.86936253510109,-23.485334873021017,-10.879873040176218,-6.423126573926187,-7.48344907293342,-7.329353336773104,-1.6293238789800912,8.365951182647484,16.915217631560676,21.78015784655919,25.95047284474141,28.786940713019884,27.530828123726202,23.72756779730486,20.92396628301262,19.369031725497937,15.740902007023307,8.561583153629858,2.3060304924365735,-0.3571115582874926,-3.0134538248973453,-7.988775566514734,-13.022468082970622,-18.386196924645503,-28.598609450406208,-43.09099709854826,-47.959822145680874,-27.60549516436386,10.17115097243812,38.50184387901026,47.40741783860609,48.251577969830926,50.28723098165173,54.79404776950037,61.4468737575815,65.44144011972024,60.38467829239257,50.94301968025194,45.687064785236714,42.964614094987525,36.56691029440175,27.60760619788326,22.025330391442914,20.345985772086877,16.884613572664833,9.013721948363063,-0.8467542284040512,-10.606810617047968,-18.2777601402884,-22.645388216440374,-25.27506397404488,-30.08856358502132,-37.36498960136813,-43.90648547490441,-50.266293560615566,-56.4784124989073,-61.60863931183016,-69.11278140572831,-77.33901778493727,-71.10356962266992,-41.88749103112956,-8.496622930490938,8.186298919480603,11.857256455841728,16.705755320427016,26.896486566813504,36.93932586983322,40.90700241157043,38.8832653977029,34.28234165835997,30.77530117251372,29.93341434225394,31.66224387635642,32.94154180763706,29.001065657687388,21.528996959865818,16.177979441853534,13.04271159448047,9.059011971872312,4.176187501244073,-0.2537507211741354,-4.223930747660252,-8.247227253762869,-11.29030625772923,-13.934667102471803,-19.07008824452303,-24.274191301193717,-25.625152095817782,-27.473577220589384,-33.04414356889743,-37.92833778048978,-41.61315759389455,-49.43430932449391,-57.06384542386892,-47.904784427645026,-18.87706430358156,9.746003834902353,22.373571301061048,24.773942709749264,28.54080434691575,35.81438597075839,40.49589642368411,39.1079336115161,33.310872860884025,28.258265450466382,27.99015431590243,28.015255517953083,25.000821564269195,22.73696523489194,22.962500944706854,22.35924862037131,19.37705414434587,14.744141129236963,8.434234860578146,0.34416243542749797,-6.777978742825031,-10.725634966087322,-14.311519993444298,-20.71336136255644,-28.01173961964341,-32.89458742294858,-36.53088912935332,-41.14348036397761,-46.038847416755644,-50.924817244142496,-57.57625810275719,-58.95130200501389,-40.456680856171204,-7.405446363017584,15.77665958230453,22.31839137375895,26.668302064229685,36.330134119784844,42.83659385839251,39.9183993598573,34.73608766339051,32.947061667919016,30.49870923246663,26.29857314038513,24.855850919076868,26.671476870888178,27.375434810173083,25.857673678243362,23.74822796806769,19.14193946592915,10.136983553653154,0.6324730835786061,-5.8378260305360845,-10.119381524128908,-13.66109118160477,-17.380374385242828,-21.4470133108843,-24.468528039149515,-28.078797320818943,-36.72835766554345,-47.65224734507565,-54.27133201800345,-56.63332821138168,-59.865506484373206,-61.55836025997019,-48.16391543563833,-18.421525011486573,7.370170037892091,16.80169033487216,18.61558542011181,24.961199919098977,37.05004016625567,47.443109701889234,50.61981264698824,47.28612953123376,40.87576948127659,33.992565077065386,29.903399892865096,29.3516920328419,29.32302679231316,28.584618914856915,25.600873132835485,18.667397689286958,10.58215621120656,5.053280464520919,2.375376137995306,0.5917206264942125,-2.2065423854429356,-6.673928772382909,-11.767110603146282,-16.849712756522198,-23.24895975092183,-30.748099793186988,-37.236623273862406,-42.8402183842342,-47.29967607699988,-49.198471815202744,-51.2796357405399,-57.638609741002256,-61.382299715819165,-46.01805361098861,-14.162208268790312,10.291941269846756,17.770318339623074,19.365958320864035,24.834823969663198,33.040953413873,38.947600833637644,40.317616840716454,38.358113163144544,35.65708190552779,35.16832269486088,39.337462349168,42.225988257264405,38.024554455533604,31.251104447033136,26.058761461433075,52.0,89.0,57.0
-32.70862388600758,-46.361728823467864,-44.9389458334461,-17.35904117102241,20.343106846768254,42.76509517267696,47.875436577916446,48.574931408632374,51.3376154283514,56.57081428372341,63.24947893800449,64.9676816815019,57.62242340631997,48.844346228541994,44.95604901855504,41.63641788052068,33.9692448152568,25.46146402512485,21.334080584114794,19.785070443575204,14.992646911714516,6.2560523324980455,-3.758566202564758,-13.124461130152042,-19.877610622466538,-23.42166178674313,-26.301147949117855,-32.09173834135484,-39.39084500546461,-45.68126900913668,-52.174036841825554,-57.986833519421474,-63.36712903859091,-71.86928018020717,-77.83693217237254,-64.67179534496299,-31.406887611016796,-1.6417809542419453,9.907578640849628,12.690579306010976,19.237905284831605,30.15065368630411,38.82647066343029,40.809770065420075,37.64115304275372,33.03673908098852,30.242114959200457,30.21552462547595,32.3250293900231,32.43487181559995,26.932259967704848,19.613342060169646,15.202956645081347,12.046934008463491,7.675159622959734,2.813413176715149,-1.4092230014901546,-5.396700649479324,-9.284335794245628,-11.952867538133912,-15.119440725600054,-20.838451925396544,-25.023673005167314,-25.79931740905169,-28.814465159089746,-34.73309275957344,-38.89169025806884,-43.3070313196754,-52.31023014511029,-56.793769403103006,-40.95899950624279,-9.485055453639394,15.126455259193941,23.527411067155843,25.38949504932765,30.488649659602416,37.710478825758784,40.71255033722019,37.7264458192585,31.478861487624076,27.732210910626296,28.28106432106307,27.361730940007856,24.071532834555263,22.64492502879842,23.026216799215547,21.711753468748224,18.187043696765635,13.12211901150602,6.224155012417845,-1.9915946598628569,-8.207105253406917,-11.593561703938917,-15.852979776745308,-22.924263997514853,-29.710383413009655,-33.93591892379409,-37.73942362372015,-42.604022888118244,-47.36244883404619,-52.6889886201541,-59.20686164085467,-56.022065203033264,-31.38491864735473,1.199202753298997,18.910023004633832,23.12323315160204,29.074238035223377,39.06184034005255,42.842672721964,38.19493578953369,33.94064495403562,32.52352290017804,29.295193207984173,25.428119820030776,25.215910447601924,27.152811090339018,27.076022325624617,25.30605865483639,22.841668134264722,16.920830825419667,7.193015936611318,-1.565527099278137,-7.221485278848789,-11.1724547882097,-14.68406950560963,-18.56150131942316,-22.474139584551036,-25.22176787906548,-29.989800256984214,-39.98682246909542,-50.17286578883741,-55.18179869203975,-57.31051058855959,-61.016216206177006,-59.787186153396256,-40.59489291201548,-9.573206266033646,11.688395665416486,17.452016433400523,19.677539288959427,28.12127191452427,40.58430166701302,49.17913285874428,50.17450904645364,45.622770196638726,38.81055076078773,32.38556144143608,29.497391493943052,29.394639094696114,29.20156653313016,28.082113988194433,23.966516618931397,16.24687666467195,8.632289273012933,4.062264437767261,1.8596762531702988,-0.04540073074679392,-3.349358938486512,-8.145415591937498,-13.203061012549256,-18.502771440649244,-25.403568655457647,-32.77498861788611,-38.89995085486324,-44.33600887040952,-48.09665333725068,-49.53760890199504,-52.66341595670896,-59.721176138409625,-59.40994686721702,-37.57591262599364,-5.379295588719164,13.919521899818294,18.208089378198242,20.415579856349403,27.163111377982762,35.15259154393782,39.816763748790585,39.97299295542582,37.553749011209064,35.106846970320376,35.96472466285149,40.73962551955301,41.69501877979678,36.01994008239229,29.597367595083153,24.6467208545699,19.32038147029868,14.897987903147202,12.099355658829678,8.005047933070689,0.35666789802356846,-9.621150333865195,-19.574987057017584,-27.290395601405837,-32.720063607526534,-38.38997026743126,-44.167839677907935,-48.07553870645857,-50.63006400778419,-55.22389386441956,-65.19263840977402,-73.32215732454078,-61.828921413839126,-27.99432607667824,5.494474297315065,21.150124055492544,23.519171418666097,26.142627508954252,34.747731371394295,44.651295084500255,48.9769811412978,46.56302433370899,41.95275157963247,39.454349058503375,39.0808737139997,38.33344560271139,36.103506044394436,32.033626097048014,26.916784642409727,21.850150935426672,17.454826346494972,13.167356207968345,5.87490343740539,-5.30202966408244,-14.819535372594954,-17.509014481733242,-17.009953297753608,-21.587447514170094,-33.214210780006155,-45.306731938560816,-52.39038822407856,-55.99044839244233,-61.30990147426632,-71.26827403709638,-78.7353775304404,-69.38133141795726,-40.788865478747816,-9.480781562947897,7.994377378607658,13.694762850820167,19.291156457026034,28.990158351263535,41.29775867606844,53.10542410416047,59.026781121589806,56.26719152969398,49.584358086946374,46.70711095034526,52.0,89.0,57.0
-25.412875564703217,-26.210436709417635,-30.448117455081935,-36.21121827087373,-39.84767637465774,-45.493163510355444,-54.88058554344316,-54.66120971247683,-32.55863322715078,-0.7846357893139653,19.007803957541423,24.14726338249683,26.360264795586843,32.65234090086313,39.209556893408084,40.40591227612438,36.0448304728809,29.879988126689867,27.64012692706284,28.39543668905078,26.470697401596954,23.336402240349734,22.734043240550356,22.915298433772673,20.876642133962008,16.876094927434448,11.345591841215837,3.8741161658801833,-4.1386085094253895,-9.362712464246862,-12.548644131346537,-17.67130459012766,-25.10496000230491,-31.15488600529364,-34.95105983104051,-39.061969555082975,-44.03890356879999,-48.71612816968417,-54.65118517253564,-60.06027531139055,-51.08675550230047,-21.56738950038844,8.350001834354568,20.815269891740016,24.18653753432137,31.920132256073273,41.202650830366586,42.049431674204136,36.567323479857926,33.44524313467217,31.888274284015907,28.013232989638812,24.91524888233219,25.776718917703093,27.422705482485725,26.630433560571404,24.73411582831007,21.62806881179263,14.333293687592134,4.359180832710931,-3.478644368314849,-8.468671740464806,-12.190912066539378,-15.742638680686692,-19.76230746289915,-23.362990072942193,-26.135307154573415,-32.414224049205814,-43.25948913842687,-52.199452468393716,-55.82761160117292,-58.20506294582361,-61.828493847774524,-56.359385657480075,-31.902543045552857,-1.6834638319195268,14.581806806441875,17.83365491631411,21.35100739285151,31.65574799111105,43.759606841765674,50.23844328810321,49.26009790452267,43.78219051634814,36.76319711393109,31.10770352341958,29.34178416722091,29.404222174689103,29.020563457941748,27.321231903890762,21.992454475174792,13.844226874921993,6.96607179767102,3.2742755211064005,1.3680704765247755,-0.8121333316689733,-4.626802760935811,-9.629721283038574,-14.643164304182191,-20.31432474830622,-27.603001803921032,-34.6716943537967,-40.52572845231167,-45.69221532404355,-48.65898824693012,-50.019800070456924,-54.48272776505081,-61.238750501299535,-55.425590128633466,-28.166086025129275,2.1379685309636085,16.189074112255554,18.533051129577647,21.919423151664027,29.596006791949332,36.96176522986407,40.28611352099085,39.41414614419043,36.74028116202472,34.83769623550145,37.17403252300943,41.775264307807824,40.535433039004594,33.99315139425533,28.10241463633362,23.165967100281,17.83737406301831,14.007675759135294,11.206791939915231,6.166770548721257,-2.396961857628861,-12.599191780022352,-22.112193400212426,-28.990210216190956,-34.25488216345198,-40.150622397225696,-45.52782525273159,-48.85480609367658,-51.53385660345415,-57.56954154450472,-68.45626435652285,-72.70035038202245,-53.655664595853,-17.105861164180574,12.020669513193956,22.59583302335775,23.757240506685456,28.079734493788745,37.8229438805892,46.67267546975212,48.83461293460566,45.21006452809219,40.91869362624181,39.239628951133035,38.98549720504616,37.86068883601478,35.11702503522563,30.592123268436858,25.427465668137234,20.480811438441954,16.315217498563033,11.510448234720428,2.9156127792308038,-8.568598387466395,-16.31905399594157,-17.322115658227563,-17.522105931575915,-24.413566232387016,-37.014440256736926,-47.93243724703453,-53.575499445264576,-57.1212955490102,-63.77208076994954,-74.31623449497049,-78.26106218310497,-62.644506539445366,-31.052330414538204,-2.709608888988094,10.318500341713449,14.937182847658628,21.706536485210925,32.37202011523964,44.971732786612606,55.65598645798956,59.06827881694219,54.34720291896938,48.16775199999286,46.77974524204805,46.97139233318624,42.81241657586415,36.28810745098828,31.9244198197677,28.267453054561688,23.504856596438813,17.94916143479181,11.42549966500926,1.9848739112429634,-8.682996571003944,-15.211367456885105,-17.852908469897834,-21.55632297121042,-26.850496474470514,-31.477707788968512,-36.090756299804646,-43.39358641654939,-53.0265288895278,-61.11257347059945,-67.56679463364665,-75.93573243223662,-82.11333280539483,-72.34134875554,-42.10425284411327,-9.144384476976871,8.894419601949679,16.476420279063614,25.887170040699008,39.36901684293858,50.66143904169023,55.46844208695955,54.00584600769278,49.15683070617413,46.329639237079455,47.43046180866336,47.63358577819714,43.69273398345179,38.96819061383101,36.848272987537406,34.45932527367222,27.656204300361964,17.77098847508365,9.964922038442092,5.17059582721436,-0.4241472720030205,-8.168817021638342,-15.798740879690335,-21.90036391448854,-28.039513261709462,-35.64120064063813,-43.66813092480657,-49.474939560943454,-54.547239603283366,-64.11342724560188,-78.87540057677178,-88.47275143233333,-77.5151432575954,-44.66109051662824,-9.111993067843326,11.811261985399844,20.06898243450184,27.983174917073033,52.0,89.0,57.0
-13.196287015258005,-16.85109842782559,-20.933318531454173,-24.133593854531323,-27.366442633933705,-35.2887938620472,-46.34282687814306,-53.72388639328074,-56.37129577333782,-59.313276279860865,-61.89666043063315,-51.14814673097143,-22.675553602653952,4.862280494150534,16.306501090481515,18.294891065624988,23.679385613940923,35.35295799512452,46.42049244779,50.64073695053141,47.97639373717272,41.81353341081009,34.82336830941566,30.199227525496468,29.333280987768024,29.36117476699627,28.752169221241612,26.228829676137202,19.756980716002815,11.565967075427952,5.592809412123037,2.634771842533047,0.8515549929383508,-1.7303586124538075,-6.01029261290158,-11.098577647207218,-16.1321546553005,-22.289776652666532,-29.77429764583895,-36.44887667865283,-42.1210082191072,-46.84738530360949,-49.048808580222534,-50.792121866809325,-56.61627564725342,-61.67946259522683,-49.412281802782886,-18.50291012587167,8.095557098986104,17.435048183364565,19.026225863654613,23.837591427993242,31.98799366277097,38.410881926351585,40.38381327533969,38.71248843795004,35.974004557906596,34.95906252478602,38.639351822946566,42.2386644800744,38.892628481742655,32.07651017998049,26.698145907608062,21.614800786124892,16.505939546912064,13.224872554498605,10.11117057528871,4.00757710692444,-5.283467309377773,-15.523310214179547,-24.404655291493924,-30.542430100538404,-35.875761732087625,-41.86920683707504,-46.693161004737476,-49.56213367492856,-52.722825609989115,-60.42140488475246,-71.2272164619074,-69.9558528957767,-43.85969512329464,-6.965074417534846,16.85080786375547,23.237112763899663,24.343353789466782,30.52789952631407,40.819122460740765,48.08315542056021,48.178925716186974,43.816840723500064,40.13817853657599,39.14959367114791,38.802153944447326,37.25447105722171,33.96686015746063,29.10534296235718,23.9522355956087,19.192749449412517,15.138911111197872,9.509312157525631,-0.33693504972703947,-11.494114501262281,-17.185635035191392,-17.054595699075477,-18.659930640400447,-27.76651653917551,-40.64103991502845,-50.0655947377039,-54.575714573121786,-58.53240708939286,-66.64979857562422,-76.84225335411139,-76.02622346951166,-54.449773999136674,-21.644430639457372,2.62996035175124,11.922995376729933,16.43972713700906,24.459602001227097,35.9259228937729,48.504356152518376,57.56706604812801,58.37143789964386,52.30454476078467,47.23123787709754,47.005548408766266,46.31580392167089,40.88449850952251,34.77561468515896,30.925535010275173,27.018265981279253,21.94587840311636,16.241500873606697,9.049685016982645,-1.212468012729206,-11.154718365894215,-16.153571499846244,-18.662861749677983,-23.04111152865093,-28.29885055947345,-32.69489914124803,-37.83778718134399,-46.09288205130896,-55.65769380876769,-62.97828665311602,-69.72441894344485,-78.46579728425428,-81.52284197797445,-65.2933357397837,-31.756893933356412,-2.182578275608869,11.537361708781852,18.66409055590631,29.56637372067803,43.162104646862026,52.75407673674958,55.62765155263569,52.73243836662293,47.91056517100753,46.36697943104945,47.84931897587882,46.87377680092276,42.17237366531323,38.09435564615423,36.42717616845264,33.018389043684785,24.895040332221757,15.123122488577085,8.407396256466477,3.793889928189534,-2.5067513278014903,-10.505148142224773,-17.68930243088122,-23.575526911221683,-30.072200664761024,-38.04312657822757,-45.63119625997214,-50.797646982361364,-56.651553709292656,-68.07651214046663,-82.89998474528548,-87.92071022008574,-69.70044339069688,-33.61391296784318,-1.27114338630102,14.97440205743652,21.93802372600184,31.129457925527273,42.478745599219614,48.97587021544771,50.01721940271437,48.429788880116085,44.415717273819155,40.650661503675146,41.15115406778243,43.01843907594695,41.90469327153625,36.65876956176113,29.385587970430947,23.648874117833827,18.949472458765836,13.233279298247046,6.610464367828428,-0.19164992414952636,-7.193011260814255,-13.641055351019123,-19.777885283868216,-28.54096499541095,-39.84205487527536,-49.859631750626235,-56.1439730262565,-61.58957198302258,-69.98598801878498,-78.95949516808098,-80.95068863699657,-67.5284514820351,-38.240324741531,-7.654910066917733,9.992260077329956,18.013518693489207,28.58172017351189,43.713708295943675,54.27305999220253,55.033139940849026,51.15582691424005,49.253953124909884,49.183780220636145,47.62613357157957,43.12380407036256,37.29363119833704,33.41153844618674,32.04618376499768,32.162097695434056,30.69731364763789,23.04876711401039,11.38584843666385,2.916408216601953,-0.8189109907458972,-5.22472882623868,-13.70667625243369,-22.6278023056971,-30.528406080780602,-39.28114726740147,-47.49843338319385,-53.64818798300527,-58.946328640353634,-65.0454546578763,-74.39905159350023,-84.58683565853427,-84.5327075892293,52.0,89.0,57.0
25.304373654657724,20.03697368606012,15.362107656685213,12.46666827409244,8.741764660598,1.5637602156650925,-8.244957038362768,-18.334253430552227,-26.436771239814004,-32.03182283955174,-37.582839061933235,-43.47839626652911,-47.675669905378385,-50.273803506168534,-54.321373734711166,-63.64724684468879,-72.99260829955,-64.91416251558584,-33.08776232878833,1.9181906611321011,20.110150096755277,23.457701824358956,25.442130204437042,33.359460125952666,43.53904257340343,48.842778111787304,47.13546992274884,42.50377980247204,39.616152723705476,39.10543124013546,38.50892188853714,36.50281102808609,32.67082324945771,27.60661503222742,22.50336669763618,17.988253506258623,13.836696620944673,7.114505371211782,-3.7366947386096743,-13.909858211180104,-17.50533720571485,-16.94448223639525,-20.501148807285404,-31.457637656208746,-43.93347292153641,-51.74559787175865,-55.5287101161451,-60.33042560005498,-69.79515121920006,-78.43053266190303,-71.90795282559961,-45.2354606336933,-13.056455873212881,6.5859897964781675,13.159433445907528,18.302576749609774,27.502661831103335,39.591643907503176,51.74909819070582,58.74508236159204,57.04497016931141,50.37667427856481,46.77594492910843,47.18333799970324,45.18854356302608,38.916841913081676,33.4986481884272,29.903131206326282,25.659760189497593,20.345640182805283,14.423190524584268,6.373430027562733,-4.398246944752609,-13.149916042640207,-16.873810447868415,-19.679956255280697,-24.599569893489697,-29.649093739441167,-33.965282586819946,-39.87902470521256,-48.92020696958808,-58.05457462347146,-64.7811555422547,-72.12974097589291,-80.58096644417274,-79.20682061424307,-56.6340978679679,-21.82337981697323,3.2836574485689582,13.637926792558002,21.256807214653513,33.51138382848269,46.579905062977204,54.26768238144137,55.28477973951751,51.282296454127305,46.979349828866596,46.70333765250777,48.02515961436813,45.757154488084566,40.724350184793494,37.47438106212675,35.84737359177747,31.1374250949766,21.980857878520784,12.779225773273671,7.048032015864964,2.2407848467574865,-4.748082931828908,-12.757588162020618,-19.451114873575005,-25.311616545271242,-32.2472352667862,-40.421158288728975,-47.346988426593356,-52.16258899317045,-59.268954602375395,-72.40866609236497,-86.1191635337074,-85.28640976748662,-60.26216386688114,-22.95967201077153,5.080457474942799,17.32959987091483,24.09091651227839,34.51093485533606,45.05366610115981,49.6801295612652,49.78222917139777,47.5102290911872,43.05240292467282,40.34425448072989,41.803600246200844,43.10264615294165,40.79749346646699,34.57702007914509,27.499243882338163,22.299185562488052,17.443353138501966,11.361438430047922,4.6632344538469095,-2.2039972450592087,-9.1652410708146,-15.33297344273262,-21.93908975484012,-31.681263946428224,-43.052353938118536,-52.03883640763817,-57.56656326523905,-63.68111547472336,-72.78882659128689,-80.6535681606381,-78.93890320216445,-60.30640547210214,-28.673116595350745,-1.0117296519477204,12.741964037700825,20.41412485202166,32.78622726931375,47.67177891320501,55.42862515727804,54.0163629333662,50.266274424902186,49.204846771446064,48.99492098296358,46.627262849544614,41.41691561834493,35.88044512317796,32.79923397108221,31.992282930195987,32.13358224048858,29.21891575634388,19.764217411475318,8.373947899795139,1.5053201774770895,-1.728796111138779,-7.3335739768527395,-16.429164043337508,-24.923671152468323,-32.947698322433666,-41.846940924297606,-49.45139684636714,-55.21190368224409,-60.51033175282281,-67.36313533042319,-77.59118611132445,-86.27592584694128,-80.66199177367395,-53.11372980455549,-17.419508440569803,6.190096733326105,16.181964082742866,24.706228491648005,36.806971076096026,47.148686893601244,53.019108878256915,55.29736588181651,52.46179421808494,46.84457357145403,44.35496777322052,45.84004853698095,47.73896763865916,46.23954261045307,39.76395995982671,31.945826732443617,26.042170783620602,20.75822373446239,14.213326395288963,7.522819701532556,1.4560576426702674,-6.292815649046066,-15.165049810323532,-22.532437319683947,-30.193320794124393,-40.45168842365418,-49.364941515269145,-54.461432996052395,-57.88162260547231,-62.669892241062755,-73.27454187052257,-83.29590232892409,-71.72785692096075,-35.74322660718377,-1.0533864004956557,14.660460700119438,18.81262320032336,24.51944422985525,35.96662827370885,46.43807111025075,48.92087227325453,45.90459534991856,44.06551492603045,44.3975424177376,44.08838558753997,42.277457689835956,39.05974990463549,33.67173512221634,27.914708807993264,25.319074600553314,22.936379402224297,15.263829146034182,4.1629366482370855,-6.015444954535011,-15.29451711967832,-22.504723623116554,-26.429915296534542,-31.17696274227258,-40.586449951127264,-51.03661228689934,-56.171009096150634,52.0,89.0,57.0
46.71554996901386,47.12270139811489,43.63751949899746,37.06907928730109,32.39680199116521,28.806431571587126,24.203469368932627,18.714310390057193,12.42594983009244,3.4196739473987523,-7.4030208832424576,-14.661359416218843,-17.53065409977205,-20.91918888772742,-26.153166452880324,-30.913621264458556,-35.372885649228095,-42.22134202544686,-51.75279517324278,-60.199323255052484,-66.64998935005006,-74.72094501866124,-81.89296291706307,-74.96210391229272,-46.83821748773977,-12.848537541637471,7.38759117043538,15.561808246257463,24.32056966782325,37.53936671206808,49.501543523938906,55.21624726492109,54.49639664757554,49.80470134442808,46.440014461455064,47.19665971359872,47.84915542406652,44.38013383866249,39.46412983007799,37.02850097128248,34.98202847969102,28.838158490377005,19.069989594750684,10.776958312650113,5.76799236626181,0.46832817565469587,-7.081983958281306,-14.87520724325705,-21.134336512285113,-27.149621627854174,-34.54841748623346,-42.68547869266924,-48.841008795044914,-53.721454750811354,-62.45468845179503,-76.86665534309566,-88.09537491352562,-80.46135638943487,-49.72354407377094,-13.20225673648187,9.988027904513526,19.240068403725914,26.655806979888073,37.918119012065965,47.06343947457865,50.01048630294252,49.37395680926769,46.36750090252056,41.843766760069926,40.4496992503043,42.422581465426454,42.869836282499676,39.335999589143285,32.42368557370923,25.80963049517772,20.973292777274313,15.815925620195765,9.44347066944254,2.705031036621353,-4.234617147783565,-11.054518301326269,-17.043332746359145,-24.40060961801501,-34.974730376402896,-46.04379658992855,-53.8845180282524,-59.05232336077491,-66.07328806840871,-75.51326153204386,-81.5490082026899,-75.43931703158816,-51.88467928353877,-19.49608570383445,4.330152662939112,14.963689902355583,23.314433855882925,37.25841592736145,50.96888258399236,55.750334512475156,52.822169868951846,49.65952245358423,49.22635858206416,48.61219873132692,45.365445268033184,39.67952856732565,34.70082766364137,32.37480687635217,32.04062705779345,31.85627075350768,27.12254278169606,16.30560621883876,5.798429822920086,0.4386937783547023,-2.877262960525176,-9.782379655906663,-19.054580213382735,-27.17235692683498,-35.477340169520694,-44.283593873837205,-51.23897456702662,-56.73601903645702,-62.19484344103844,-70.01298851820074,-80.71613915178725,-86.75086502469594,-74.78387208548524,-42.57170208091865,-8.845450534003165,10.010766525358642,18.297931241883333,27.97885376407558,40.23750950727144,49.24792050660979,54.0829037215454,55.04370285376506,50.84665483818374,45.626624041939706,44.504476762289706,46.520198509406384,47.8077335219787,44.80968532136977,37.41070198153951,30.035765340207625,24.566391674142828,19.013875625563657,12.187858433670359,5.787802286800489,-0.5330289487329922,-8.885543736001043,-17.47959104161032,-24.521804185566207,-32.96447628712688,-43.397962446853825,-51.171348358192674,-55.5108625857997,-58.928536766702244,-65.03369281684432,-77.06801719365716,-82.96679896688487,-63.02708655738179,-24.293162948820616,5.46849345861397,16.388824272130314,19.887597841205242,27.37094013211416,39.53164619562473,48.05777474112906,48.29293112127929,45.05715745629695,44.06751354661112,44.45787076314633,43.709813747114396,41.51177778717578,37.74388574001094,31.845477434587128,26.807655069788254,24.918528917699362,21.34662180775023,12.155227767176825,1.0628060339555676,-8.762416213637142,-17.72137956918355,-23.889190111722353,-27.45431062439889,-33.41813800976396,-43.83041389395242,-53.21190779545373,-56.65083762168025,-59.93502249345643,-72.47768304619926,-84.9485480094444,-74.88597714359017,-40.34542703372991,-6.433028165531426,9.94374628124572,16.398068504555457,25.506840564421868,38.37896767030811,48.710276191355725,51.91334824848315,48.665259982849435,43.57670998554894,41.22974101197272,43.053299584429745,45.632355032135834,44.521366558503495,40.99773218640402,37.131845271199865,33.11561139591062,28.405106206760838,21.98633116226069,14.514957826590951,7.655433390484117,1.802060499666695,-3.5228546500424,-10.030785167286739,-18.89858965864277,-27.5308273853161,-34.418925223898235,-41.41069984582354,-49.52401773281686,-57.24674292631147,-64.18119064898407,-73.4113322008676,-84.88926866658562,-89.15964755589867,-73.69023087578964,-39.51403594939563,-4.6604794038429125,14.371440541789292,18.833406735542138,23.365419997934463,36.704005472852,51.85110401031913,56.53974026165209,49.117912931348165,41.79227508488826,43.27133540242954,47.52088286530333,47.425953916365366,44.25513279185662,40.65299495820889,35.36130086747137,29.341316589283878,25.303555215339756,21.37230008984266,14.645215245001893,6.83537571526513,0.031537079157537576,-5.594133563993736,52.0,89.0,57.0
29.638843046344526,41.124680296508586,48.49592521248434,50.06468644624873,48.776600096992134,45.05249616528904,40.93694893331559,40.88017880389139,42.8840886717271,42.29219274416973,37.56175309972389,30.315329606547092,24.298894049453224,19.60700368832378,14.071336584745588,7.506172571736276,0.7279031206489558,-6.2651463084908166,-12.845055898919881,-18.86968281797233,-27.169658192198813,-38.316313680750554,-48.73480283869038,-55.46973137370497,-60.72767928516561,-68.71278760604828,-77.97204610204665,-81.41775736037957,-70.37956897002137,-42.645738708767155,-11.140002714433287,8.449496043272786,17.023719093363646,26.792438996875546,41.73150296667115,53.437588597422035,55.38223600852191,51.64697371907095,49.328982435132644,49.21966966869762,47.99638142872198,43.87297785978768,38.01300569435889,33.764803529506665,32.11538601902294,32.13111066572146,31.180537788721594,24.446642198031633,12.890201093943398,3.71371514887951,-0.43352204128639543,-4.388634958584767,-12.446301930395382,-21.533505855149123,-29.450507171783517,-38.077971921490025,-46.53181058832282,-52.90744125770553,-58.245430034975286,-64.08370634098587,-72.96269471435504,-83.50433348199452,-85.65199439777479,-67.03646954157033,-31.928982855506227,-1.6787044480606783,12.895111099052913,20.625517677811633,31.52013484380428,43.343996830279785,50.99198036181358,54.85103733758778,54.305715497920474,49.138126758400865,44.80404442216657,44.929996114693616,47.13885367339287,47.49747280514343,42.96991600661002,35.08622318682024,28.313640999486918,23.07804961151594,17.133172895650745,10.21891336147366,4.07846455206211,-2.730679865974697,-11.499164276246388,-19.619017525490325,-26.646993817128774,-35.95436242630564,-46.07919977130812,-52.671252535664486,-56.48371784890837,-60.1772720527972,-68.01335379242616,-80.43917507640096,-80.25931246261914,-52.58401162233584,-13.75621941132706,10.26040877854487,17.514488466693027,21.37038423274121,30.685434862807778,42.76067064842266,48.909518475092554,47.37009530461895,44.456345763715774,44.190366549202864,44.40393459141377,43.208304608358524,40.628537116862226,36.21451134513635,30.09151553410582,26.028146855753544,24.37087680116207,19.218689506945932,8.89870579902836,-1.8934226814155257,-11.47073302207967,-19.89739647216044,-25.013659990558427,-28.700285258076743,-36.09434075035839,-46.98552357897486,-54.80966304502999,-57.0680314372262,-62.53370290060593,-77.09073742939161,-85.1082358506759,-66.59490546208212,-29.25312162780228,0.1383654567172224,12.138780980588848,18.463009598034724,29.071447148792764,41.915557891968525,50.440688763479365,51.48006031243612,47.14332361441127,42.47923045517919,41.376550743132086,43.98628795393633,45.74182335861342,43.60565620447231,39.896757664925246,35.98707464602664,31.882112266372822,26.74018492816503,19.855122922511217,12.424043532618878,5.871153346929292,0.252136997427141,-5.171780398538109,-12.406757851147704,-21.563356575537735,-29.653114899241128,-36.33256775421268,-43.66953355725244,-51.885081809024676,-59.23541968033589,-66.47173325667158,-76.72503480302132,-87.49313341773973,-87.06202805049558,-65.15667037296798,-28.556592398984964,2.7992110386093656,16.619568400088603,19.466252892930445,26.355143843889355,41.485114148295104,54.66718780388011,55.27591008788649,46.34066806397026,41.3505215121645,44.67413487289606,48.020191754571044,46.64246648261782,43.264694313968675,39.357185879141326,33.538116896241725,27.945874358930286,24.352532024212827,19.713487555248346,12.372210176918,4.717890735543931,-1.6491753912685028,-7.352235020668198,-15.423271538627342,-25.766876253280223,-35.84370425481384,-45.41035508263784,-53.20232421252712,-57.1019436055235,-61.826308711189284,-74.313527306302,-87.48658156308596,-82.78853482796247,-51.91947174492823,-11.443374344767745,12.921203552826935,16.990138282681556,20.017824202741163,34.96836020403047,51.93651233584291,56.50011889978869,50.50325937521903,43.622352143980024,40.52945389558221,41.54236403375318,42.60582809999906,40.169083170384106,35.94244689070869,32.08762470536065,27.29273338063644,20.405273286520842,15.299828743497477,14.275272466426566,10.574207601188924,-0.3472604119105035,-12.096173441410567,-18.98469817050386,-22.62409376950239,-29.13115242285402,-41.880385609461655,-54.774912035047855,-60.3689083374733,-59.87891050076568,-62.92780105466049,-74.09354516500528,-82.7085665803318,-72.14749722658925,-39.95942515900685,-4.841569929357144,15.775374966244152,23.104626909455142,26.95053566406021,34.34849282752632,45.85576387098337,54.3475732229017,53.08507363850063,45.21030564092686,40.33670452196742,41.84407723780375,43.8557125529707,41.049329915276445,35.343184839039424,31.56053633856474,29.061226589364274,24.800053134583393,52.0,89.0,57.0
-82.69649633158976,-57.76433806927204,-21.78615643242614,4.025625402606443,15.206931027060753,23.32327415469464,35.15393693410348,46.04568326360221,52.44019851882783,55.254915279182185,53.12638670784832,47.516949274125835,44.40383913834876,45.53136542703784,47.603108797951855,46.74441385081147,40.82162992611566,32.89426062673308,26.73670328843552,21.516405859247755,15.147805176305992,8.349298521526629,2.3124555111706435,-5.130920461846186,-14.039664861688617,-21.627026500510812,-29.00908687829618,-39.039721864012684,-48.41340643878225,-53.93670192854759,-57.43360828203855,-61.77409648737143,-71.53348867147577,-82.75866695463594,-74.99445504182025,-41.13411138772134,-4.666799497800457,13.554742040429597,18.398095008412035,23.39180592778826,34.280117081179526,45.435768470765055,49.05591288337788,46.35395861158585,44.13058410651712,44.34092962940911,44.21890563931439,42.59522857757041,39.59652762511412,34.50244555963183,28.53633337797698,25.507509908650018,23.493017961300474,16.603510677464634,5.637707243686878,-4.7329736230096655,-14.114303864782219,-21.7593480157494,-25.99022214567084,-30.297312042394065,-39.11655758471482,-49.85612712782636,-55.849177052535175,-57.75909311190963,-66.07215046051792,-81.20488307058262,-82.82978804941868,-56.5763414783047,-18.977909803414665,5.096515608000784,13.8888845651233,20.980736706603622,32.84863202880837,45.063677087380896,51.50924405573052,50.57711090078262,45.60459068136456,41.70184982353146,41.87258456574014,44.83682478810223,45.47580361784947,42.57833963870491,38.78370811323126,34.833847195918416,30.56159373069146,24.91367111812722,17.67647210675456,10.419258568301952,4.166468846436061,-1.2684827211732461,-6.98387884925422,-14.974635024352738,-24.112795808360158,-31.638386486913067,-38.31740202276932,-46.020359464720954,-54.153254602567344,-61.1891044760983,-69.0551576177539,-80.15510889835875,-89.16021085779973,-83.04210015700619,-55.29399243126846,-18.096141181204136,8.652427618863744,17.88769767810347,20.523536170016,30.142177574286602,46.10588640098549,56.330296322605854,53.127615886246325,43.969706291520644,41.7091266856003,46.03631782635071,48.06600033517994,45.707249787433625,42.26244936228237,37.86109406413868,31.737887942006545,26.76141433135097,23.300633069284242,17.792498648242876,10.087294594233898,2.7165188901702253,-3.2463387326009596,-9.338121488909243,-18.30817601995785,-28.75985379681491,-38.650105712420796,-47.983288076515066,-54.700609708275856,-57.968732156036886,-64.58857344146065,-78.80805846870251,-88.73280597710067,-76.30107267059302,-39.95824862880932,-1.964347127792826,15.57866127670659,16.99226844982845,23.165985909933195,40.47622901731963,54.80393679074087,55.388801121070806,48.29307519445937,42.24982350156659,40.50391236228586,42.08625723268804,42.274832290394535,38.979385666415084,34.788871174907555,30.913022389687974,25.444895011210043,18.49793901773617,14.732629944512386,13.891000740863266,8.027281041499888,-4.038435748599357,-14.643702717543931,-20.14582151276303,-23.915749636591077,-32.27021833195162,-46.01814805676564,-57.292764559671824,-60.52096438533143,-59.94073731429826,-65.5107392193113,-77.62611863002982,-82.17598252011202,-64.54576348067816,-29.04968625992224,2.891051446981365,18.842422876911883,24.169975452690355,28.546016538484476,37.44752454103324,49.03438787271212,55.06924151710122,51.08087704741926,43.130616105933,40.26055095792893,42.718612407170255,43.59584422788617,39.45678631754658,33.936604293134735,30.894442186106748,28.025834202389955,23.41239876312206,19.66859138843735,16.666598803289997,10.291449867987417,1.2058379053745734,-6.157520994455972,-9.4989803468629,-12.32221402490125,-19.811382685239302,-30.421013743387615,-38.426144603686325,-44.40711556469273,-51.33632216289041,-56.538763317414585,-57.290850745726736,-59.43309491871935,-69.42842053843172,-75.01100594561613,-55.54676974355204,-17.05114545126827,12.163746194255669,21.228609227478284,21.96131028727699,25.959803462728626,34.52898680252535,42.544127592355295,43.934177909577755,38.12491214301141,32.54795013735528,34.20294591190434,39.98796680036079,42.789612309718905,40.24728168010558,33.797260927763034,26.7353837406216,21.889986948868184,18.92141817829841,15.308794827653989,9.711720670297836,2.4624330730167663,-6.256876459617319,-14.65871743098387,-20.433961637138605,-25.247978272411096,-30.809092699725433,-36.550638007226766,-41.83274489643453,-46.184171145988486,-49.867289259612384,-55.17813446169822,-62.6376310447838,-64.06729982872866,-46.66753686345248,-13.597667953118531,13.608312457320414,23.729868242338043,25.907712635652786,30.924303203113407,39.32782282094367,44.65777029310169,41.330812702719484,34.2114514557654,32.320910371921904,52.0,89.0,57.0
-56.45606348405707,-59.05733001945748,-70.35504037141362,-84.15642868678918,-77.96782274985335,-45.55025297958109,-10.02680838753105,8.669309182124222,15.565502868084181,23.978195160873906,36.660651550461964,47.69626364714263,51.92725513903577,49.32407520613146,44.1720016685333,41.29016528384891,42.64041183086698,45.45604080239787,44.882358583758986,41.50140052051983,37.65623140477855,33.66509415560667,29.11906451417237,22.938767552939307,15.502716247937895,8.506768567102936,2.5335699841310846,-2.798982492436277,-9.013781404972674,-17.653376215962197,-26.49454097947163,-33.54660412650147,-40.407471497247734,-48.41847973707201,-56.29873264749,-63.202900028128845,-71.96516838560612,-83.47592372403011,-89.52328195007468,-77.06984851601767,-44.58568384258503,-8.604651681739687,12.908060743436295,18.58461496970596,22.277456136038612,34.54267304193338,50.2169077037081,56.75386831124616,50.43451409389704,42.28790679886847,42.68431748439688,47.140494491759405,47.70503388106085,44.71481427285619,41.19049181347085,36.1812699897921,30.056206932778686,25.741927565293892,22.041806265966237,15.669760337119497,7.844469521499888,0.8474632872554899,-4.836415842100576,-11.605606706236516,-21.318452785116676,-31.681849284400933,-41.43406773739965,-50.33639509508798,-55.84122194893856,-59.125266727608974,-68.1172902267693,-82.99366904061287,-87.99539541928533,-67.63030216086288,-27.856238632757524,5.598684933369599,16.760351461047097,17.51392988027179,27.406642514534713,45.70301049752273,56.379417379944655,53.635299197610095,46.21420287968539,41.25687664174669,40.791041582102984,42.49134221965333,41.612543442065515,37.7309187324224,33.68694534064236,29.59322408947015,23.427371824445313,16.89460462423259,14.481602490383475,13.02837639197241,4.887584837523656,-7.565750513921377,-16.717016613421684,-21.13905427915259,-25.62704300271351,-35.93599347398119,-49.92470906583142,-59.07028703343442,-60.30149081293665,-60.59083964292523,-68.75014400340038,-80.53783506639037,-79.65132044857552,-55.31146185317908,-18.51839833714232,9.151197208057981,21.006685599040416,25.18639747895738,30.566488689620932,40.824275830597486,51.72146735422025,54.871520688297196,48.72195631882694,41.547141993100176,40.68417493399745,43.42991336758931,42.862201488144756,37.74546721722,32.794286272891085,30.235589266991212,26.802349333569236,22.12087830833196,18.903305907861203,15.284786073341069,7.754125600480938,-1.2763748676725721,-7.505423732014531,-10.083073667250153,-13.903337965179556,-22.834634683456848,-33.139364490107695,-40.16618101641843,-46.3178399269988,-53.235671826203244,-57.14646369856394,-57.30587764703787,-61.60418670547038,-72.55946134929856,-72.42097193973967,-45.20591309569878,-6.58319685915861,16.567064040619027,21.607601279942728,22.54074310408664,28.117395445114134,37.206547795447676,43.80606712277833,42.79813614404144,36.0442202316051,32.2181510511277,35.80150070691525,41.317752950102744,42.58446595135314,38.66513118968284,31.655737365269133,25.052404711299697,20.938028793047238,18.05035554131792,13.892090081677186,7.774405573410361,0.07207593951712078,-8.864090216975615,-16.59937000329107,-21.792644409821065,-26.780047234468096,-32.48930014615944,-38.140672341825265,-43.207567117066944,-47.24963924765211,-51.11157419497561,-57.26956580592336,-64.28365943879787,-61.32816526075804,-37.91920317885669,-4.194946589981275,18.159384199784245,24.5409677189864,26.850921070638144,33.201941976260855,41.55028273845607,44.601717523709695,39.194958368775616,32.91515382488337,32.92169875107942,35.03412473855333,32.74866642563986,29.214485938178505,27.72672664170844,25.14553216959868,20.151715015852535,14.212544354422361,8.71167234533462,4.401669013643645,0.5514801758307677,-4.244850196079375,-11.045291953137614,-19.513474914242355,-25.86981966044143,-27.430098155733273,-28.3120902547934,-32.62041776640208,-39.07936871790893,-43.055531093186424,-43.24134197039963,-45.65759096520963,-55.68655471096576,-64.2712081911692,-53.02960785414565,-21.743036350733096,6.906359439971098,18.776134426655833,21.560961839912252,27.12081393743274,35.24638031988858,40.685295588963214,42.192653421462644,39.75687806022347,36.33411524337911,36.194439039721345,38.586991471762836,39.74469237004508,37.59440457378438,34.2431931808562,31.092665335303455,26.27231729814279,19.10872802215532,11.01417094587543,5.095437412972928,2.6767610333630416,-0.5854624628040269,-8.817968808496342,-17.643324959770503,-21.280971992719824,-23.01410872005377,-29.0129560554915,-38.73499438884018,-46.09028151046822,-47.930017808540114,-49.24853099475859,-55.06840843480686,-64.58516071619059,-70.96385762241178,-59.76721810763922,-25.935993404000925,9.301864736933435,24.875835690878883,52.0,89.0,57.0
-6.518186463384677,-14.159675547010908,-24.36769212153615,-34.54072889142399,-44.17498064088692,-52.381760743102475,-56.72921521995665,-60.81458912009559,-72.2671895639659,-86.3568874184522,-84.98298864346398,-57.18031536061818,-16.355680900411805,11.08048572444931,17.015196066494624,18.966281113080314,32.46764412532654,50.2048755323045,56.714762502061795,51.52623223086331,44.37143949857013,40.666570199769474,41.28335047839651,42.6428220217942,40.672953930398016,36.4953018426825,32.599592283771166,28.071055864211203,21.346519079075197,15.70070075961316,14.356818599486322,11.514103942003786,1.3515370633435628,-10.763751291712975,-18.354780699713046,-22.12413172696842,-27.88596806808002,-39.96341069052405,-53.3811552225226,-60.11385034888729,-59.979443354398015,-62.00143390865111,-72.38343173415856,-82.35905340413072,-75.0001506903021,-44.95027029426444,-8.878814740562671,13.985033316493077,22.53886172389068,26.334744135516242,33.050936194330696,44.29032757242861,53.70992391759675,53.81879103881627,46.284879184427936,40.57236605354494,41.439507160683824,43.817678290544556,41.701902650065904,36.067806262942376,31.904350436337694,29.471334358492435,25.446263101163197,20.99386055437282,18.123081638241626,13.519454809147087,5.08532070091104,-3.5061843211560038,-8.49748306239307,-10.779164804693334,-15.973787251257534,-25.98278570401912,-35.51586807509288,-41.844214116415976,-48.342750958823196,-54.86245918377614,-57.364033798483106,-57.693616420533935,-64.50402554097128,-74.76824788234238,-67.30684618998748,-33.82282116364571,2.380526089214747,19.345588404766325,21.697645899928805,23.57848945579501,30.597399264502005,39.672678046296085,44.38392784060486,41.12483959869567,34.24060411629489,32.58905431034853,37.559505161984106,42.249365203447105,41.93194845653345,36.812547834693234,29.55768053448615,23.603871495252353,20.097505910543287,17.056555404501577,12.303822704618925,5.711447025301766,-2.4424004270050372,-11.365247738876398,-18.290789798580505,-23.153334415862897,-28.38363857401952,-34.159607274654846,-39.68436620804254,-44.48795172011307,-48.28311255394605,-52.57098267162383,-59.50647930096299,-65.11465839660127,-56.713922542659,-28.211436326564726,4.111540348780383,21.251926552092165,25.056505504750813,28.20447553142561,35.682915765334656,43.30596480738056,43.74774756954196,36.989630229483176,32.238722188327394,33.71936191698192,34.873435837607325,31.561831116226678,28.653820741212037,27.24149207566395,23.90145032025517,18.463880576300443,12.524608167243187,7.347458664371281,3.303360725069088,-0.6771871025042303,-5.978264515793824,-13.410677691431836,-21.80170034120224,-26.7353608646813,-27.493794312791877,-29.153807703110186,-34.44963895799036,-40.674279163305215,-43.35465267303607,-43.33150042022621,-47.81725402802216,-59.15425067470161,-63.64573714038192,-45.273730444798666,-12.124103579573434,12.048937212422464,19.854136838990893,22.637309149662936,29.48119175513969,37.21575613124125,41.53254881757484,41.85340043681185,38.634392634493295,35.87762082434922,36.77996036670353,39.21124373145279,39.43726032019367,36.610388490289374,33.363943437731336,29.956078626939032,24.409797365087524,16.75830061785779,8.928366660926628,4.129725254144506,2.1049435797413025,-2.468281629545349,-11.676090032532167,-19.264985215582662,-21.64527491130096,-24.17145479181824,-31.6604247448952,-41.38745655644873,-47.09724233681951,-48.041517034053676,-50.40255324027426,-57.59665761813843,-67.28060304597966,-70.19606895437451,-51.83140686223412,-14.571518262222659,16.067899390249693,26.02305502386002,26.964572260287824,31.536821648734907,38.123062997993394,40.75176201838811,39.05349746258848,36.28020476681596,34.16508206377446,32.29999712241376,31.308554276419287,32.80243646401501,33.10540727722033,28.652509961137017,22.119708565442377,15.807088531204258,11.04288802762703,8.960349473785891,7.097727373982111,1.4826007117860083,-6.786596891798884,-13.185618166871187,-18.462123169106253,-26.44110033785666,-34.95735192231358,-39.27533254796051,-41.523759096959864,-45.97293393472582,-51.66144715496809,-58.56816414200596,-63.65417211222205,-53.19858930426433,-21.148153904582127,12.275496290233326,25.21080084772079,23.78957368556568,26.173838908937235,35.00584248608372,41.96143626648842,43.673125324908106,40.76357684430864,36.350145517450024,35.24568588358099,36.17763135715415,35.64888026277573,34.11378053925249,31.142445372667805,24.29747262008689,15.13338231152687,8.752441671726409,4.789987703135411,-0.6049354108548308,-6.666052724162368,-11.243060928024398,-16.65338339820762,-24.92101135297206,-33.874090976333775,-38.56015276989266,-39.02214315575889,-42.53735140300871,-51.83322510201835,-60.027946407202634,-64.94559007469238,-71.7143356145217,52.0,89.0,57.0
24.045642007986373,20.050687416220406,17.187225375462063,11.383146305230408,2.4094814811135223,-5.406687301832576,-9.220113233657782,-11.747322440939836,-18.509807748636792,-29.06700099596923,-37.56796038482215,-43.572187567171255,-50.40478669588732,-56.10987326138266,-57.331476162679614,-58.70655879821673,-67.85455042525439,-75.40482526554267,-59.75330063335366,-22.23474045096863,9.51699819117553,20.85114574409638,21.822581709623996,25.101700884809024,33.271992474545854,41.75568106613467,44.2396186520461,39.106181375960794,32.936269379738675,33.579183197603825,39.267820777709154,42.7274491867731,40.86575860830066,34.77401693018553,27.58455612152751,22.383843770478425,19.297206832425285,15.9012974176445,10.561651221456593,3.518797057256099,-5.044593510551994,-13.675305767501122,-19.787549003397714,-24.569078806602185,-30.03710773947328,-35.80404821465381,-41.170833009243125,-45.66980046761922,-49.34635980938879,-54.29305354121486,-61.70651337560109,-64.74390412008684,-50.23125529805979,-18.164639588793428,10.97662656584661,23.15610623399148,25.589401360965194,29.97798451556155,38.204763813432535,44.407881612590835,42.21279276544796,34.994175304633174,32.17312713388597,34.46905000191281,34.252772179698404,30.45457311255983,28.254699064131962,26.56036520565111,22.47339726924488,16.73802065705701,10.904722852447673,6.09013380886989,2.210922501765647,-2.0197344577555496,-7.898283170614382,-15.890430716732704,-23.77141073228915,-27.2022936698995,-27.65539171410982,-30.3395367486646,-36.372378414746,-41.93305465759585,-43.37536800592868,-43.824900153625386,-50.67854825443696,-62.08433475836629,-60.917774972660574,-36.153034835617945,-3.4010708876675415,15.68672086839155,20.538007026237757,24.15727106887194,31.911647827642128,38.8658287358344,42.052337419713,41.18393077984424,37.555088242064656,35.77238124373386,37.500594373784416,39.63264877522565,38.84148944006613,35.61599234073663,32.49113902041154,28.61871624093276,22.36388226850839,14.377074577562146,7.121712546361886,3.438531563827706,1.2998033019412183,-4.814035400557252,-14.374639903241052,-20.37580037821169,-22.030402495358484,-25.803169309159376,-34.521234995239865,-43.66349291892761,-47.64538148320383,-48.30222939759795,-51.99746061839322,-60.371560628385005,-69.47529907357085,-67.53113654579941,-42.11422304770849,-3.862266658719622,20.898748594150717,26.427154198832703,27.737944581245877,33.548587969718966,39.43297703203874,40.57572491570122,38.23169453451818,35.59655277912402,33.62666368888069,31.8202780604406,31.5171990280031,33.29290841789364,32.26346215823962,26.824062948457165,20.226301218107135,14.192451728112847,10.185987835245118,8.60584231798615,5.951055467190143,-0.8522590809174734,-8.939508446808956,-14.622964895996441,-20.432328718489323,-29.110058821237654,-36.70734481247684,-39.86960064285409,-42.551735316701105,-47.56205316718719,-53.478606892638524,-60.67134839155033,-62.916372282139754,-45.73360762259608,-10.30674967026871,18.42162211212705,25.381816686684257,23.57501478648169,28.407772779692145,37.504469460703405,42.987383191798465,43.2487195152817,39.39502976731071,35.59393937399197,35.52148503970673,36.21036670995027,35.260583375513846,33.5114790559339,29.624529838720065,21.651018247278042,12.863545962480522,7.554969175016219,3.4599472412634062,-2.442770831493578,-8.114289029735941,-12.565719353734437,-18.75755423405841,-27.648088778431095,-35.838541564466674,-38.88142238291117,-39.38727631271444,-44.82809976020167,-54.646255263159524,-61.55434037804214,-66.65266878112871,-73.39195266847447,-68.74991267884891,-39.501743643058916,-1.0188444129728351,21.038053619113917,25.31312908435177,26.744086035884038,33.98093360456819,45.547347531473164,52.17177458782597,48.043293682588036,41.02269909081398,39.703621539011856,42.54999804127121,43.131714772293314,40.41878580413415,37.6699864903676,34.55470957061568,29.368782560363524,24.792909030367902,21.83312493359387,16.558149951477724,8.095566311773219,0.7704911888182782,-4.57371825120515,-11.021073875101685,-19.3036116835203,-28.027610627980096,-34.829709963951416,-38.74078902072697,-41.32677961550352,-43.662039707201224,-47.46320958261599,-54.51834913207841,-63.77879372633411,-72.35669790840957,-71.80410189570526,-50.82286027844869,-16.338421949428092,8.075641970365988,16.092265194202064,22.602382287724673,35.28857375123295,48.09478951318048,54.51522483627773,53.16716771478023,46.8574333779396,41.29994498133985,39.58657088240651,38.51001343102113,33.823498548160174,28.02276006523247,25.02487569988423,22.721192340676872,18.41150760369135,12.360330444866912,5.544557140376207,-0.503860767436292,-5.517289385967253,-11.29403931052204,-18.85455931849031,-28.97208596367723,-40.317824781077654,52.0,89.0,57.0
32.60582808654613,34.949222568788024,33.27431941983558,29.54941647765955,27.904780395985917,25.646256533889577,20.907430907031316,15.005328886751897,9.378725112197289,4.919896099400658,1.0886542978790124,-3.505260614669344,-10.009502370141474,-18.3897718163452,-25.315873136024756,-27.393221417184638,-28.037126799429792,-31.840131064938948,-38.25913653408208,-42.79465021811804,-43.274366083410364,-44.91544015873147,-54.049685054858585,-63.92998733210753,-55.999180673454454,-26.32057837664138,4.004187424629883,18.037814046155113,21.18983100016533,26.105837831080095,34.242747895266575,40.1861578553281,42.22995446314548,40.24914577343177,36.65642548628433,35.99641355101286,38.25549060187529,39.780519385076325,38.02274303231527,34.663277395827436,31.560613709660764,27.062630627543964,20.164302912893454,12.045930893836042,5.653080483488734,2.907928131345829,0.11609929080154602,-7.508048329700581,-16.719756425124412,-21.06434745839297,-22.625441969456645,-27.903617592070326,-37.42867414767439,-45.44843701238431,-47.87803828546624,-48.86139743419822,-54.01172774131545,-63.26297089317292,-70.7806609139417,-62.724357932291255,-31.184448703252894,5.539353026178864,23.964837085233356,26.54609775305728,28.990856077892623,35.55888643182785,40.29744001042401,40.09716692229872,37.404919160758865,34.981428364563065,33.08467334002203,31.462175171305788,31.95755088850697,33.515383770424805,31.012664250678263,24.92221192301542,18.376670884773528,12.749211220567522,9.567140021114866,8.160787645739727,4.40705516696975,-3.3026341350382653,-10.836196835434631,-16.06685596037839,-22.703570928173907,-31.684902131200047,-38.01949845824553,-40.43914722239878,-43.81632761845717,-49.191674786248996,-55.4514832605838,-62.44628438411285,-60.44384600886982,-36.53936382510163,-0.10784495325540133,22.519473818715923,24.815592799566467,24.067170647277333,31.028079370317904,39.63965989381636,43.57275988819394,42.455518303639565,38.02633403324403,35.212795540174,35.84799371045486,36.076072687142364,34.82909840931139,32.74044323844721,27.71949177326952,18.924371538464307,10.945102592272786,6.461943625208099,1.9315898307318162,-4.25036563587325,-9.422706775127343,-14.05483904973935,-21.116291130703452,-30.33295894267679,-37.31628772252879,-38.94579192177032,-40.231533099142084,-47.54649990018343,-57.137964604940684,-62.89299052685915,-68.64719787482188,-74.13899625966455,-62.766813879841294,-27.988650182345772,7.675383839041593,23.495821810119182,25.419196671634104,28.134544184945803,37.1715440783541,48.460109085264655,51.953609681135596,45.78770068740355,39.91756355054825,40.40096146967562,43.144436860029046,42.550230307760415,39.533306844520965,36.93863402851428,33.22816725344221,27.818867664887176,23.902555177690928,20.71922643007363,14.288473170283279,5.68999728549101,-0.8463781023549437,-6.224340712432729,-13.26572961205192,-21.86916483355241,-30.29614727585778,-36.20893346747474,-39.55415735299815,-41.98985660696272,-44.49213773361395,-49.16115397037288,-57.06175767782692,-66.53677374801337,-73.7199295381567,-68.06544258333237,-41.253535799216515,-7.390507732160654,11.594083842516826,17.44256186670916,25.75225460370819,39.35250961578556,50.758203160570794,54.874861109609874,51.62719598318889,44.927262719155834,40.44109828820514,39.46594011188833,37.565858818377244,32.00240753051854,26.858331895111807,24.46635697827523,21.709704218972842,16.80018376135084,10.415604195854401,3.648274094177817,-1.9889683910352869,-7.036842428970246,-13.274593721912694,-21.4775597549258,-32.328966392548104,-43.07872916482523,-49.510570580717115,-53.577358741848,-58.44227053364546,-64.06329505157363,-72.02123510326476,-76.83491081243537,-60.893970316997205,-23.897284712161177,7.47331240833348,18.77209587164678,23.211116599298148,32.659708245838424,45.81568478823698,56.3219007390643,58.00838408492036,52.380241483063884,47.37110495503292,47.09431949491281,48.51351911145457,47.14431944829196,43.358531465273245,39.49887246874525,34.72053087064891,26.972726128671177,17.895103248305734,10.880156759896787,6.069950130294762,0.24384591066640043,-8.117649656087286,-18.144111140601602,-27.013993930965754,-31.411597678836735,-33.321322619409024,-39.3850769334847,-51.15174091729966,-62.54638909489609,-67.57896697323866,-69.47027341693799,-76.71277788324319,-88.93767004907238,-89.3289027243735,-61.44653114891908,-18.898328520199122,8.60629384880059,16.272429916497284,21.832428463802156,34.412857783426546,48.06282767517839,56.105316224963154,57.68629909615728,55.27879906905365,52.7620647789499,53.743693184158964,57.71902826481821,60.174534234204245,56.08304758066023,45.881260117762814,36.20171400891192,30.515580597852935,27.28612177180047,23.56559792931331,16.802027314487056,52.0,89.0,57.0
25.615554587812134,26.75880673808966,30.662668799585795,37.38515427937187,40.70700487020583,39.41237990541879,36.62012941700069,34.41610632903917,32.5426177857133,31.300504890670293,32.532678162252054,33.33979485260501,29.448639129425437,23.001894589877175,16.595749846749726,11.524325881610576,9.127673629509395,7.502758347655775,2.4806645897002944,-5.7199206202702895,-12.488341049721017,-17.652152347386544,-25.224440366666084,-34.007461359316,-38.94630007498886,-41.133044772774134,-45.26393078788051,-50.86470113685297,-57.56877354704596,-63.516868093275654,-55.966404238702516,-26.149621707093242,8.770242483230517,24.729682345693412,24.06381746117005,25.341088858515654,33.769862913183765,41.33498228828508,43.73585503695329,41.35150595506957,36.81630075035547,35.1735532942812,36.10541765624529,35.80636355246425,34.354631514628785,31.719299961680537,25.447947775913843,16.281659501115563,9.37556843767945,5.344086052571994,0.22480876985349518,-5.941087849666627,-10.665475765018362,-15.773531925870907,-23.6857098708739,-32.82835440267256,-38.279030177732054,-38.964574179370466,-41.668351682588266,-50.47740264423962,-59.211928400935854,-64.25521159485776,-70.7750219866186,-73.40838592748516,-54.58000126277865,-16.424595768950603,14.491380427338603,24.745622429033677,25.670693362509645,30.108574890600345,40.60600983167075,50.65950174711725,50.82756921576303,43.597490621130916,39.42200873103639,41.29504183197228,43.40544177829834,41.75006117754086,38.72831195302173,36.104408394895756,31.719557243034387,26.432126696626963,23.101446608676675,19.29134827254923,11.807654569083672,3.506426782152943,-2.3545081174896296,-8.041323212257529,-15.647460536568707,-24.428634557165662,-32.33471263189995,-37.35990750080009,-40.30458239951537,-42.64284178719227,-45.51157541899517,-51.152476371337634,-59.738180788306074,-69.16023391147094,-74.01932225380921,-62.37415656329685,-31.02243025715955,0.11202438065682713,13.908849083406674,19.12060886160291,29.414214656243043,43.20530978462495,52.77915434019142,54.595701540042164,49.78103013185267,43.21538901192567,39.920426503867,39.25818206041648,36.25277956612744,30.235390987921072,25.971893272410792,23.85913325863326,20.49960469885735,15.068116299164204,8.430457587289338,1.8650318492351536,-3.41665017684665,-8.66688904258971,-15.411432314694025,-24.34984586791085,-35.697704120048684,-45.42043694369169,-50.7238999986772,-54.87488918124933,-59.968871657695715,-66.0641882831584,-74.42761769386415,-75.0243737891422,-51.46592985055558,-13.00215021452027,12.557255416518027,19.948691291546865,25.306382285995596,36.31454304787798,49.456445575552,57.850103314240535,56.81396634508606,50.545741547962805,46.824663918823695,47.57874609340339,48.49370683375541,46.171773136070094,42.20845488033124,38.33969337469607,32.79494753396505,24.325797645714683,15.552176554973824,9.386807953943274,4.619776411823636,-1.9182138115492802,-10.925745009031427,-21.002629500956136,-28.80681269226528,-31.937603821691468,-34.406754696185864,-42.362662699655864,-54.84461824059703,-64.72717379332163,-68.05407474682572,-70.74563496133246,-80.1795036254208,-91.29852267774153,-84.28378673034298,-49.241309285680025,-8.508107671674338,12.222254169562964,17.322998875801286,24.835344244365803,38.6425651993007,51.102112041974685,57.15004238984822,57.25096132867289,54.3696547360979,52.60204764222047,54.739137747507456,58.829526992293374,59.81649892220941,53.51114525639812,42.75459343721133,34.15395544317004,29.458124290253576,26.389486323201897,22.01041813519159,14.117733596564758,3.9157449393399313,-3.5493280950830823,-8.810570591467053,-16.656769637163034,-25.722670538703447,-32.825755232381795,-39.2482178509562,-46.63651307907641,-54.655487930445965,-63.472514672230226,-72.38426703670723,-80.06662939629163,-89.03346363988402,-94.7195903921588,-79.20591919901966,-40.63419652907118,-5.002723137290926,11.732309905310265,21.322322318607853,36.62285190932036,54.03455361462134,64.15495764337756,64.64362800637994,59.180872859139875,52.556260249135455,49.50226360399822,50.924341467089455,52.41154473988754,49.646101005862555,43.7393589851404,38.420041907841416,32.559874346737764,22.77888094610464,11.871642568824228,4.498065775536086,-0.6644530210553662,-8.217903524628417,-19.587531568236667,-31.711618388308462,-40.67208674304579,-46.364516884162796,-52.01097974526862,-58.18644470394281,-64.70299776997841,-74.31386384939874,-89.4578080136064,-99.48145052143721,-83.1688324272226,-40.32480817771418,-0.9748430046373405,15.896175578589453,22.598217751479854,33.171122714522184,46.66335061502338,58.90279016613026,65.954873988326,64.95719832491338,58.24745765412922,50.55123545311913,47.74678019972803,51.27646271497107,52.70977919427416,52.0,89.0,57.0
-72.70083576324873,-70.73033750450654,-44.56760468530571,-5.58743285360519,19.385911286271227,25.229341294466742,26.291916098680062,32.64349054657845,44.04192493642837,51.93033847591829,49.02282914538134,41.7255632998678,39.50203997120957,42.18796690509524,43.299188967371805,40.84318791206096,37.99648042513556,35.093125986904504,30.112399971906086,25.26064331144232,22.266006448429156,17.502534169805323,9.255754785019807,1.5786002198396527,-3.8568586643801464,-10.040096402248231,-18.133124876265416,-26.9205815301304,-34.10592756808294,-38.335113078339894,-41.012159797086134,-43.32339882968912,-46.781542544947456,-53.405179321940736,-62.496037797604224,-71.46767120169649,-72.89332661547203,-54.83542160149215,-20.83212963447012,5.947410985531413,15.481186989842147,21.35693191179067,33.401517733640624,46.668434816336045,54.12438022397912,53.73589474755388,47.78408547448644,41.82062668508041,39.655476863941274,38.82027490828256,34.637059868833944,28.65937959169163,25.29446531487637,23.12090380109129,19.10750054938229,13.234556433666771,6.4459357264039285,0.21438582158012445,-4.844209749897532,-10.431519848215345,-17.72221761360807,-27.46639317561172,-38.92182710983823,-47.337883476702984,-51.85748794665456,-56.275332780054555,-61.54255716216306,-68.34496139067737,-76.26837783709445,-70.98516553750298,-40.630952890549125,-3.3838052484274943,15.955113580151512,21.052442611292705,27.947258590174812,40.16347697581106,52.69372756922436,58.5186850802926,55.15698944829006,48.970260389668525,46.69942784373732,48.0685522447874,48.15976383237876,45.06407172375245,41.097289241434574,37.036129786861814,30.593133368511456,21.650404015271608,13.460738892825857,8.025989122204814,2.9978230518673987,-4.296513513460119,-13.838229225097221,-23.670965555293332,-30.15648915710624,-32.388360303927264,-36.00884169848328,-45.76346485367548,-58.300873055951214,-66.27866249580661,-68.46456593697275,-72.66869258744627,-83.91165368334043,-92.08958402928002,-76.62695526605111,-36.5363862216977,-0.04010509282218644,14.437937103309112,18.70380459013045,28.444910161894377,42.728448952899754,53.56638221693877,57.68666565479403,56.557583184735364,53.558079731501685,52.80720043072491,55.915570165788544,59.68202777002002,58.79282004375411,50.53709037758873,39.85243877009937,32.458435274553935,28.537767449308785,25.379337406123838,20.143611931981475,11.197727552099002,1.3176661867117057,-5.050631096071022,-10.72503485612805,-19.354654031456473,-27.997044176040582,-34.63209219378119,-41.281627882274414,-48.90098290983858,-57.105646034735805,-66.13290012599737,-74.68848666777924,-82.41158239341115,-91.69069813332317,-93.13269698595954,-69.59963221872113,-28.75510041853869,1.6374089945592591,14.407053701655563,25.0223337695093,41.89626700812596,57.99340881282856,65.16976571786489,63.47866022853494,57.15412633079782,51.1560043026546,49.571281047021756,51.60614471736055,52.11841460315012,48.07600720079695,42.06000134823222,36.98225793037615,30.157685592523606,19.470472541328157,9.30795959431271,2.9830178345521756,-2.436780307590623,-11.186534719687211,-23.203754455854533,-34.74756713106906,-42.5054863695973,-47.90973001985934,-53.77967518218394,-59.98142271776382,-66.96136242958751,-78.23220910874036,-93.81664631486117,-98.18860764158424,-72.53058546585365,-27.123519642498714,6.110392086404371,17.971501757512833,25.084900857823346,36.98654639183012,50.48093337633318,61.66999905354533,66.48917418609783,63.40836167807128,55.88701916757229,48.99138425657122,48.341264197015505,52.36951291605844,51.637009395317335,44.413611443858386,37.72454911402715,34.16874504311919,29.431291596140845,20.61213007587892,10.106352091617932,0.5576721589633361,-8.133087963269336,-17.12125677278344,-26.38190593352905,-34.37634380378744,-40.49867127288982,-46.68695544033976,-54.529929054144944,-63.048714328063646,-70.32264290446587,-77.4191192145677,-87.47461479051373,-98.83637720927321,-100.6453385654337,-78.52551424868518,-36.2510342071839,0.9184265785084836,18.662679731859832,26.38574995755088,37.379891919575655,53.52114298063173,67.12856380127,72.57753902373685,71.37051390187888,67.20166515780694,62.1445657039762,58.1145837896192,55.138586602591246,51.23858890787471,47.03846148923385,43.941132598434024,39.3476233738478,31.36181831103211,22.49146624153706,14.082236776985669,5.645734684045423,-2.2109374586098274,-9.983035518109402,-19.0246858748039,-27.573747702424697,-34.37648721005704,-42.15248571302051,-51.49589159824724,-59.852585662751565,-66.85838267592234,-73.75405330313886,-80.9884424073289,-88.96165033758555,-93.76092522586775,-81.66739839366758,-44.93274017492684,-2.957276474912483,19.92889693171535,26.131096421234563,32.95204288013251,45.617896353143976,52.0,89.0,57.0
-41.85499831033871,-48.8900874364228,-53.01555354505685,-57.74846096564897,-63.22566865070211,-70.84540973023203,-77.01308407277307,-64.59503257582719,-29.163865121102283,4.490847551889216,18.081228702665882,22.425951148824524,31.07835644531561,44.054203651384995,55.34290586006328,58.34575170625241,53.267063792093786,47.774867451470975,46.91375485244611,48.42533816635882,47.52483165073146,43.89814351607912,40.00741712106346,35.51239457916863,28.15653021916425,19.04611130054365,11.636870618219309,6.698373346867234,1.1647598151957042,-6.871651349174254,-16.791228075298182,-26.044529961883626,-31.093844521694646,-32.96190365967795,-38.187490176385005,-49.42709353191648,-61.33259339374489,-67.26993061031567,-69.064607516683,-75.28652019271202,-87.48728905289343,-90.76648495478028,-66.66257439938637,-24.221159808705515,6.342573990497322,15.788441155121737,20.683204209164042,32.47570485764006,46.48312706700698,55.43812711614239,57.77647889661333,55.700710020841164,52.94898716321258,53.37322078030695,57.15828722152061,60.13640564354491,57.085909626755566,47.35935466490756,37.27041391864406,31.069685379760475,27.680457451266356,24.190532301483486,17.935433495616515,8.175721770491377,-0.9182514780488569,-6.487094850291014,-12.950410917161127,-22.03948895554198,-30.067637628216644,-36.45428072450216,-43.40797550792372,-51.202668168786154,-59.63972430813672,-68.75418833927098,-76.87797704477084,-84.98106403987853,-93.78560723199392,-89.25750114233601,-58.372175756930524,-17.933077248683286,6.62977496990667,16.974849273322786,29.366420923593942,47.10428972311496,61.139085310970394,65.42281978259837,61.92355717574928,55.15616688019086,50.15982533473605,49.97755153399373,52.14410453227556,51.39996522191821,46.33607333146597,40.510467414503175,35.39535219610288,27.373138221800726,16.21869092051063,7.114821367494251,1.5515878545398045,-4.521217600889156,-14.453822809809711,-26.779921229893592,-37.426506997975366,-44.133399652741375,-49.52219726348389,-55.57005475383353,-61.81544607038986,-69.58725511006045,-82.63622269653317,-97.2904897099576,-94.15873508974525,-60.05581907688742,-15.137989341686712,11.205555139234502,19.735643781267722,28.070111198332057,40.91815535063849,54.11465290074706,63.89048567144002,66.3204074662219,61.48973302646995,53.56168021405125,48.00507181927214,49.40110799540311,52.99455194280147,49.95161692516655,42.14268044116204,36.487415175952265,33.15836729992353,27.267869290090523,17.58847969926467,7.205039028090382,-1.9871003691341587,-10.66358126097065,-19.821697638304077,-28.894146777415255,-36.290911103132174,-42.16665159284253,-48.77953736165203,-57.01924925745686,-65.31702181148015,-72.23896507373308,-79.94372388880375,-90.91815147550251,-101.0445200762977,-97.1004272047192,-67.4590253339414,-23.853357514003573,7.961320375957216,21.205835943564054,28.88216875378017,41.762397279954584,58.09710065271328,69.58912592755284,72.73066410371574,70.35201997646871,65.75497980497931,60.80185615083471,57.23916472952075,54.15113898082566,49.94981151777277,46.06539013542804,42.94344622452184,37.32952867934867,28.759421970581943,20.04115184087835,11.640868017602989,3.2862947235295237,-4.379188676443566,-12.473941095274919,-21.68078287438031,-29.642896925961924,-36.398959874399445,-44.79157450168143,-54.0993944475243,-61.95283787891823,-68.83075904162115,-75.79107860788326,-83.22800263052011,-91.11073287466047,-92.7288685197341,-73.25635393567072,-31.965827147648213,6.093683460691462,22.664995581265536,27.451966296220217,36.2089669858448,49.50797176724886,60.540942036192995,65.7082809868648,64.81594629262324,58.86153513326313,51.52831595598684,47.861381390729846,49.17924651508477,50.826010636755896,46.12723986855644,35.918993941439815,27.7277806825283,22.47965945080302,13.060489027606542,-0.8381786129751941,-11.252198995343505,-16.602948419072597,-22.082623799958103,-29.439925256188374,-36.92789529008019,-43.14991403692154,-50.030944474398076,-60.754985582037015,-71.92773995566819,-78.69037810451813,-87.27637851443079,-99.00394356700743,-93.91005962239205,-56.63777450437149,-7.705923248068262,22.093241783699355,31.69525866417426,38.073038128895895,48.66009613229198,60.457256208360036,68.30178124086662,67.52962918534166,60.30985183580789,54.861382798127615,53.604492162353345,54.72105512465683,54.895186365822404,49.32720524540181,40.79855711825291,36.36733099437332,34.012440961093326,26.2867536202997,13.00969855051001,0.4928526614420242,-6.924912909472534,-10.994238581450796,-16.632653916829252,-26.042628096444066,-36.252425618798775,-44.27165745992436,-51.37603771401934,-59.13995794464022,-66.40116736863907,-72.035065021074,-76.60599525667794,-85.44629815734824,-97.93801272672923,-95.23603397966964,52.0,89.0,57.0
15.390876504304465,5.215173973903072,-2.7897897057690604,-8.026685124113213,-15.443332211849294,-24.602827612258285,-31.979190555965562,-38.34488041623716,-45.605718930171136,-53.55164433167905,-62.25059598504276,-71.2716056854358,-79.04310697289539,-87.74166007122047,-94.7843257906099,-82.92761959632851,-46.274144310615696,-8.671984369423951,10.33175092224769,19.83095098296139,34.246894584595864,51.97253268659855,63.40589508030112,65.01991849161311,60.088565102375995,53.317151932396804,49.607568235345866,50.60218349689882,52.40918180743577,50.27984453244217,44.54901111625243,39.06854157703936,33.53565012433909,24.27707616905124,13.173868887176619,5.259994457232881,0.07038526115497598,-6.966241705218374,-17.936527599174738,-30.208867526348676,-39.72903749347624,-45.66470178463952,-51.210556316437234,-57.36164747074199,-63.751494519518246,-72.69575795910629,-87.30958532835145,-99.25428379188361,-87.26839530823956,-46.59846545476457,-4.962771933587406,14.690867690404785,21.61310666317536,31.48545127504962,44.863304099020226,57.474564731242765,65.4652483602308,65.51541121326123,59.310222205621024,51.42583891449745,47.67513673961072,50.687031826234644,52.966439289608324,47.83373052412089,40.10958919141784,35.484355356331506,31.900433215579525,24.754609292042076,14.518818323038792,4.423217966423973,-4.487975378293416,-13.246277767279949,-22.52380597535541,-31.254033158330547,-38.059336084598435,-43.909099655217155,-51.02549001445131,-59.515970769549384,-67.43879058660654,-74.21555966537309,-82.78751191178509,-94.35778168799946,-102.08998797311511,-91.22429952692625,-55.105676384201836,-12.604480576738924,13.306110014806167,23.31582979406048,31.906187509165417,46.48194769160492,62.22584379099018,71.30514555813168,72.4253255388472,69.16269012371475,64.27014352616048,59.60030377821845,56.40991342982274,53.04179422137525,48.69355518125661,45.19430520666444,41.71035582021365,35.03530358251814,26.171737919514015,17.62034041774084,9.190523800427052,1.0034374101686045,-6.584287922315184,-15.089716520265906,-24.211153115338597,-31.58276517745943,-38.593422253257565,-47.520868184072974,-56.55235485760468,-63.971815813873555,-70.81738270942732,-77.86131801726629,-85.54790977350338,-92.81849897444025,-89.84184817290806,-62.799891402738254,-19.32991421627184,13.123572950327521,24.381911480982243,29.238486727139044,39.88737472596506,53.178008279677215,62.68342160243386,66.04660742375539,63.52784053153956,56.63591007311147,49.933389822720486,47.81866806667583,49.96059661507963,50.28882379805168,43.44386644742091,33.06468599467017,26.185528481889172,20.443191983018092,9.197739322085711,-4.5032684930264715,-13.107815552828322,-17.98681260773798,-24.064806291721602,-31.688194022618312,-38.84802518662771,-44.892430478666824,-52.70731961134847,-64.28293284485713,-74.26963800209467,-80.56468715614557,-90.8715167712676,-100.42425899453492,-86.26392734885938,-42.04384535946254,3.59026163214126,26.22364929031854,33.24238546977531,40.73436190140135,52.160732040928856,63.37516298453779,69.0676837803968,65.74843599684908,58.27956754835425,54.140144849928745,53.76855295845247,55.109814915506824,53.968293866138495,46.796670989271064,38.95472787154863,35.83182057799603,32.53655656360578,22.791112797578435,9.02103125238223,-2.2103249483616167,-8.237148420346152,-12.265726791412328,-19.015394448716194,-29.107875181170495,-38.81608710835321,-46.29058837339992,-53.57524518306518,-61.352354658620996,-68.23187902713826,-73.32006761619891,-78.44080872479303,-89.21981476161051,-99.75202492114805,-89.01781373085552,-51.834394581673344,-10.822707078022663,13.092135095104368,22.766119678131826,31.440698239793207,45.06883582356214,61.2762818314266,72.67463590192395,73.44160278973366,65.77002484162284,57.749115415412284,54.30221783059645,53.21585744567222,50.83616199685929,46.81625240138006,42.78765785650112,39.142842522505546,33.933448007802575,25.001793026720087,14.369833357945236,5.488143610475759,-2.5556427045125245,-11.062072418622385,-20.286834298531,-30.923402745760782,-41.07329869713801,-48.89200671302196,-55.944569301170375,-65.11939796461841,-76.34661371767704,-86.34479303519925,-93.53412404164395,-95.9476574270721,-83.48474272438476,-46.76472472530554,-2.6532639304167085,22.342809819263636,28.263796685752574,33.61514808344498,46.539412569057255,61.196355373156514,69.68584749949689,66.8327741461752,56.543228541583865,50.05932343237292,50.708147757467316,52.86950674979207,51.377102527071514,44.50189451610361,35.19633226010665,27.96334716559488,23.833132842503467,19.82180336386548,11.78883749122032,-0.16266706395611608,-11.09324782822158,-19.17502684045707,-27.520503195504762,-35.61071327890807,-41.55102249637308,-47.97947032060608,-57.60112572659075,52.0,89.0,57.0
52.21608466177063,45.50113564037807,38.39875456453526,34.58759128129897,30.299059542304086,21.965475798356508,11.480494964355596,1.7551603491669443,-6.979128297064859,-15.88680122787233,-25.1833198137274,-33.43426826737417,-39.737099500029785,-45.77582355130379,-53.40136067366355,-61.95744145346797,-69.4324024618942,-76.35367584042798,-85.93745575726534,-97.54174997722203,-101.54410497048683,-83.0261146683668,-42.18670478512232,-2.93871657823488,17.229594341423784,25.369950955051454,35.52131186375704,51.31860490075555,65.74323373289079,72.32199535781727,71.76721516739202,67.84393639305112,62.80051733561936,58.5516840039939,55.55697470536198,51.82467137338202,47.53142762722715,44.350030887618225,40.169911582070334,32.54758017908765,23.638396184573427,15.201822782942928,6.755015360176001,-1.2078647518496184,-8.881470601907502,-17.78014123770483,-26.55873520617474,-33.48447388650921,-40.98608328189002,-50.25596535174948,-58.8449050367009,-65.95058667751317,-72.82278048432471,-79.98490141509144,-87.89833176354631,-93.72743018298772,-84.77945231149558,-50.79803341173805,-7.764361070388314,18.186939001773364,25.60125483852074,31.636247695806873,43.794687733368576,56.49872988763149,64.29659555325644,65.89297656112218,61.84554767943515,54.42842503071134,48.75305740859428,48.176039027442094,50.59064639168081,49.07958127937411,40.43263755316483,30.585584406279064,24.775929105484902,17.862701886926235,5.088561572033774,-7.6574083994307784,-14.630964508085938,-19.513438676114617,-26.18830851862211,-33.89027540097431,-40.6462642440462,-46.78046823456444,-55.76780795914705,-67.65815984249853,-76.19834389395987,-82.87348359823724,-94.56722030448398,-99.7473640295055,-75.80951346018377,-27.378350936051998,12.703009157635647,29.0050198572661,34.941294478423096,43.76687580733319,55.646098946131325,65.83035575649015,69.01231234942121,63.59610747018528,56.59652311215334,53.73615745661366,54.09266417826576,55.30049966630567,52.454543552614304,44.21001410489208,37.59401575910961,35.29111783691163,30.44822847875864,18.932219609728573,5.275494559588051,-4.435578736059267,-9.372055865285857,-13.79446121171918,-21.71398573095988,-32.12338321030879,-41.159232232713634,-48.310129801485395,-55.831209626652,-63.48365876276917,-69.90231987219984,-74.55913182787829,-80.82888580545708,-93.11756833773167,-99.66594444992667,-80.36508272738197,-39.09540122792229,-1.8289158023841956,16.737318006276844,24.921531213591383,34.843638449214104,49.75599167013463,65.42431759572209,74.07043567725246,71.77310012048933,63.13801342979476,56.26345730676289,53.95466594158378,52.73946807270178,49.78331647375443,45.58707722401959,41.744255473944435,37.92390022013157,31.75506660303377,21.896133416106757,11.586978202996011,3.1790776190401253,-4.9661917271728235,-13.610059286181734,-23.236366714439285,-34.04309231383505,-43.56307552619254,-50.87327756470667,-58.28682950050567,-68.28140858331474,-79.48839980304241,-88.72325432734124,-94.9633243619507,-94.54832566446795,-75.2300508705326,-33.377284806467756,7.162409234766713,25.267483700822968,29.140885338645056,36.68355769272042,50.97121572775519,64.59339092579799,70.09584556908072,64.13824684319103,53.88210337258727,49.68168096167451,51.47070269086257,52.956483765176095,49.911575248873305,41.83159529070932,32.763208834950106,26.518361372774667,22.865403782608677,18.03348822057191,8.565796088264587,-3.6472242418109606,-13.605584121861742,-21.465584643628496,-30.024966113891377,-37.52164717951931,-43.15601207850512,-50.46676642959347,-60.603509910536275,-69.45889506716466,-76.40439733748902,-86.2644064972088,-99.8672366061203,-104.09543327444631,-79.54013718984606,-31.31342487497114,8.28198890177651,22.537325710269233,26.19079065634934,37.05785663830569,53.929595311317726,67.20237646020499,71.05937896987423,68.19605803800098,63.84135058147464,58.98972605423009,54.99482038367694,54.66450494170995,55.50682652102131,51.90714288145577,43.500058935072964,34.40757309516507,26.713987617803383,19.656725683947673,13.448081209159259,6.864596536119433,-2.919902681750669,-14.72490231393038,-23.97030870179674,-29.96945028954728,-36.69260253644199,-45.75068587181623,-55.55223070417419,-64.66267904737202,-73.30940463824894,-81.53114542814296,-90.3985541157587,-100.02676265494257,-100.41990098901964,-75.23178149149336,-28.28444919034794,10.966121313752186,25.327016630760475,27.827388466866395,35.67264508294593,51.518217265171586,66.65491168930835,70.0644953510974,64.12074443160222,61.22970372146243,62.1986123216728,58.93137265070335,52.34509907977919,48.466556033770956,46.508205470003745,41.762824917870994,33.145649359896694,23.631934978589644,14.233933060538861,2.6877353486448277,-9.95610400874949,52.0,89.0,57.0
47.73262822122176,59.37851822379309,65.38223044555203,65.26237531604984,59.85296799165388,52.38211677166458,48.03382533162983,48.82421715677135,50.86732379024432,47.19922814525027,37.322136240994446,28.537612539650354,23.269796706959028,14.69977370085917,0.983116723036549,-10.242933468887808,-15.988770754629972,-21.22749152220271,-28.40320005956138,-35.99770140303784,-42.365001294904566,-48.92715500214306,-59.137488307819844,-70.685567645475,-77.90479132927408,-85.75658887086524,-97.82777215312194,-96.42708299459596,-63.06848349638603,-13.569339314278096,19.60241526100671,30.947743762542743,36.98787674814502,47.074230321632,58.994452641160414,67.68446104456672,68.16119571848118,61.327747106248744,55.31674085579407,53.594201262619094,54.5166644647939,55.13326782162101,50.40998236033926,41.7978494678728,36.6759643994591,34.51082128199141,27.73379082929954,14.886546863741815,1.9001451557922735,-6.224909045705437,-10.46611240928704,-15.65391324695907,-24.6440669615494,-34.99508197797453,-43.319395909195464,-50.389308475001464,-58.10121469771086,-65.50912124500762,-71.40011922135521,-75.90097242476409,-83.85141516808758,-96.62332571686596,-97.22664474165228,-69.70229168782167,-26.788664654377424,5.420526072809554,19.506124860645162,27.29239920055841,38.708832357785646,54.53500623447479,68.9586029105145,74.48794358314858,69.54949917606831,60.69435282375624,55.20979296152916,53.685849008463094,52.09441620855057,48.61763083789253,44.404182477192116,40.71722930729056,36.50665706358042,29.22487331930695,18.762723372316977,8.999692822862958,0.8761899312637005,-7.418608078371425,-16.23553412848909,-26.313593188545223,-37.03952149001152,-45.84453176542229,-52.85988360152156,-60.87618278854069,-71.55940373174033,-82.44117236027706,-90.8644326370853,-95.91628017772493,-91.5315262878149,-64.84906584418316,-20.126811489995937,14.864390755925024,26.938999253894806,30.457061247012952,40.38161656041597,55.33758418443782,67.2964700566793,69.46492762171582,61.05444202095852,51.81784955480593,49.84514841575057,52.18391776910275,52.6478291877878,47.98451050436142,39.085079603337135,30.59507709773045,25.314793614951924,21.800319317817358,15.816203783123534,5.0849065952513115,-6.897146466519929,-15.917664687481954,-23.864489797699328,-32.428061328664384,-39.23830587442235,-44.91888264342873,-53.24052122776684,-63.466036518203936,-71.49720607953748,-78.73402484548743,-90.07992180986798,-103.0047044267215,-100.4704221587316,-66.82226896326392,-17.588332143254323,14.80882346535887,23.62393417433205,28.285406987985713,41.73604819112044,58.52145361728423,69.33033010593394,70.63441371012559,66.97510457141367,62.49923077976629,57.59353896320886,54.493544657171554,55.06023365763117,55.07939350449669,49.818937604239466,40.764542796027925,32.063806567906404,24.62438693278663,17.76432974731946,11.722846959669486,4.430661842159527,-6.320100703962599,-17.81962627138186,-25.892636710037245,-31.67618555323144,-39.10925718576728,-48.600488952124756,-58.26602817349432,-67.19340764835076,-75.72521277992405,-83.93319434487557,-93.28035606341776,-101.86490697893062,-96.2322967756186,-62.86236172116091,-14.784461273302448,17.540934671963203,26.301112783735636,29.14117954002967,39.65439450568961,56.52999182379366,69.10901402452464,68.748353001072,62.59425724462117,61.48662902393624,61.89911403063752,57.053260025121666,50.82000063889441,47.91627210074149,45.58290150476772,39.570332674306826,30.359337171457675,20.97821407116778,11.20255787329782,-1.0663855645740898,-13.10099389858302,-21.3488073854015,-27.63923925870482,-34.664794898624116,-43.951313951851084,-54.780925341339966,-64.25851366228461,-72.3955218588012,-82.57359410246383,-97.60272532529012,-107.09319185415458,-88.5087408560552,-41.75048211804508,0.8518813994832743,18.529087887532313,23.136796148183887,33.24045613513002,51.2678281991097,65.47803947648151,68.21749003695219,63.5407405407586,58.24321576987935,55.35346372040328,54.18330202302128,52.89404227335381,50.481863956780565,45.76458947383982,38.11466882731014,29.471868503602202,20.297424551391064,10.567040645817283,2.8073973793541946,-5.103848405512115,-17.124588192347293,-31.778532718395137,-43.48817287649358,-49.27460627709939,-52.26167017260414,-58.929047823550135,-70.30674212970266,-82.15024144394796,-93.83507213311233,-104.22927692493965,-97.2193968990073,-59.35751690660224,-10.58871530754619,18.36072350887203,25.918090207510065,30.647191437071335,41.98780459648341,56.89145616778467,66.99226212348903,66.61634646338275,61.04826225497124,58.90805279495118,61.00356660421573,62.10968082876533,57.797091161599774,48.69054108169159,40.46682195497444,35.88433128414618,31.830357724721075,23.83036657593262,52.0,89.0,57.0
-92.20361322551385,-57.65381513989097,-15.530654975095045,11.009837719055895,21.78420248746403,30.030169292500698,42.98464003347094,59.21236406024781,71.70787353155208,73.96815765424002,66.9953901812786,58.58371992806166,54.52344138311613,53.3869286231346,51.27215035121021,47.389226585816154,43.28377826079638,39.65837058859059,34.81933397817009,26.388218608996112,15.718985730304016,6.57103952851003,-1.4611682912664707,-9.90429101910624,-18.97622474915515,-29.465793372499245,-39.850246695682806,-47.95803008009091,-54.93550712360499,-63.72524702422665,-74.85165676379428,-85.16788705345114,-92.75661018598139,-96.16084678871215,-86.53018074673223,-52.74871061993161,-7.820307658534331,20.43607042809114,27.90526781551909,32.4456439169265,44.53150451150466,59.44270010892312,69.15177251952527,67.85829175329853,57.917576974112,50.45158514752413,50.38372109965843,52.71523932304127,51.888789543878694,45.6694235243315,36.39049732435787,28.724448093299284,24.279620823561537,20.51739073651529,13.15578766168229,1.4899094041137575,-9.841792649082677,-18.145192077086755,-26.35669356075968,-34.65553501708382,-40.83064205778492,-46.94155843005182,-56.205703525902415,-66.09485818209572,-73.43997614480209,-81.4552925751189,-94.14110382302617,-104.86852682434656,-93.99645924256797,-52.65974160792308,-5.4863406793136065,19.16622557049154,24.431000945211572,31.262984478468834,46.70015544870689,62.57896397283131,70.59601727780088,69.80651059791656,65.72106513246153,61.09823740779185,56.34524124230367,54.35181273211556,55.415140053873195,54.1583152712458,47.39503967736591,38.088728838228796,29.837016342728383,22.56696347766924,15.963700578725879,9.898369738555798,1.6654918990482306,-9.795519265229485,-20.584024944525222,-27.60029352261954,-33.55489848013476,-41.711646623138655,-51.45717931109725,-60.90547397434357,-69.70098665754288,-78.0959995849158,-86.44560419695597,-96.19168613846725,-102.54101820151452,-89.52013305101525,-49.111315539302346,-2.793080598339532,21.950410361464318,26.836811689196306,31.20305005955055,44.22665307384319,61.18349847954148,70.34741352924738,66.9172928211133,61.61838944681243,61.89387329856669,61.0601821222651,55.06054558242659,49.63722523373245,47.420597286074745,44.31234386811071,37.09030138817982,27.587079853604553,18.312370687297527,7.916708222042538,-4.808920126584425,-15.878974036370632,-23.21659686636488,-29.514527443548722,-37.07474040762597,-47.052151058199534,-57.74281631071086,-66.64328259090516,-74.92445596701656,-86.49026077070015,-101.89122884398606,-105.37796224260165,-76.82184674012682,-27.442327328360427,8.481298566055639,20.22675732597869,24.991003300553672,38.026715634726074,56.33332769361695,67.44733661559222,67.28245953448868,61.85945985923983,57.13210050612969,54.93117928717139,53.87748130800923,52.35543828442127,49.41592954896265,43.81614965787241,35.615879077531226,26.947346161039224,17.42414912222928,8.088402012443789,0.7645488720072451,-8.092094466948216,-21.311144082963054,-35.69631128277694,-45.75345278492827,-50.133650756044894,-53.59702818866756,-61.898349982444515,-73.83250376765716,-85.43262407050484,-97.3573266975048,-105.00200212879136,-89.26796612485214,-44.770631076460184,0.5731576445627797,21.998283742037987,26.838173393783986,33.226298817455245,46.23513459118131,60.714195251107306,67.9371118502453,65.09065837096371,59.85605229886212,59.26457449333837,61.676570007445584,61.522574155627524,55.449933880512646,45.9804631895942,38.81311781273291,34.89347682383478,30.035783458141644,20.657074970986635,8.931516880320832,0.8755906846561591,-3.7640567870437276,-12.38726819819025,-25.1768675873504,-35.094415334822514,-41.51340461606064,-49.02037695512946,-59.83444168344268,-70.92173530854747,-78.6882686803199,-86.58414796961391,-100.55589273140735,-112.72200445958109,-99.68375049044008,-54.35037140071697,-5.95515927197777,19.134399536154,26.09555515914566,33.014300023759034,48.72928912725676,65.55880083509004,71.32844203708702,66.25696813726188,59.10642872977559,55.578532903279275,56.68414001985878,59.16232177515346,58.38534856443198,52.91855135266149,44.286921022102085,35.409215529735185,29.96601355837326,26.308133471919778,19.740538771782322,10.070732913704033,-1.3926789746279307,-14.581828770402293,-25.98382792017042,-32.587214896712254,-39.48679731069993,-52.837065632839426,-67.66165975860797,-75.83987862585447,-81.88666516964912,-96.16307526293484,-114.11167401439981,-111.61018456769672,-72.51890192710368,-18.224604930524144,16.053152899835627,26.938096535982226,33.715238945681875,43.54465317845412,53.80076416569665,64.05015955801981,68.92926794431742,63.708025901805236,55.1433924466763,51.879108954844526,52.227672848370766,51.520172232418886,52.0,89.0,57.0
-59.22923805184332,-68.45514460907613,-75.42915077996724,-84.63941074354389,-98.14986815271014,-104.87141683855762,-84.69585921027253,-37.9843667343208,4.4792903790065814,21.77218396387294,25.497407884779296,35.06958015689073,51.6893522644103,65.93014270956843,71.07089810096743,68.73602614406921,64.44268924479479,59.6553577610273,55.34717287796342,54.515368903610685,55.556477595319016,52.72838261670257,44.75524960359139,35.53564058275051,27.688215415799583,20.558831912753732,14.234454977394726,7.8820597027686325,-1.4126178038282842,-13.208932020128024,-22.983076248001993,-29.218335585933204,-35.65036358651149,-44.45392268044746,-54.27507144415693,-63.486571868578146,-72.17973421630246,-80.44418211135287,-89.1132357392918,-98.91842951564293,-101.5597511744898,-80.27918824839753,-34.81242599202331,7.152128115095154,24.575934489263954,27.42729477915127,34.0787990732496,49.17909210221059,65.14484830409994,70.39638756411769,64.96273042253664,61.23285247053157,62.17765979068262,59.7018120761824,53.151646730286565,48.776093654410786,46.84023493931891,42.65597679126586,34.41649802694194,24.86693266535421,15.55750683564935,4.383119201822368,-8.392774273653721,-18.304511132713813,-25.010174821752955,-31.496482893525393,-39.71065284719475,-50.221053571889605,-60.52306324340415,-68.96022041404385,-77.7324720934821,-90.85746521146595,-105.24861554048977,-100.73785869476242,-63.197924676970096,-14.466651155277718,13.882013442852593,21.37330468254835,27.676062951213034,43.32309084822317,60.72607614232557,68.39737826789319,65.9197188286325,60.264482369251496,56.25585761563477,54.60329693136372,53.52580353084067,51.70280480196443,48.12277769586298,41.623940608890756,33.11145457178742,24.333728626388908,14.55245196941859,5.831050120692722,-1.41531697939979,-11.491201139419358,-25.613432490188536,-39.22060378298548,-47.5013384193513,-50.90253395407286,-55.39701384599964,-65.1929393051649,-77.28137028547512,-88.76706885075848,-100.66531065093427,-103.7315246187812,-78.62913143414404,-30.147148773893008,9.474221945827024,24.184867911372603,28.00633662658744,36.41586592186685,50.63496773192139,63.89031492252597,67.95424987256608,63.37514942394222,59.121668366883696,59.895209728879315,62.119678207300495,60.399513108738965,52.78944819049498,43.50444938771408,37.467815235196994,33.81975433210508,27.821845017060376,17.251656216090826,6.025696072117366,-0.5207826921836961,-5.586623689362921,-15.962560566937391,-28.552667837912654,-37.12133693038835,-43.38572068458942,-51.84098278091683,-63.24154420939855,-73.51888301995726,-80.61466448697186,-89.94889488372739,-105.146621397696,-112.55220305252581,-89.15187990916195,-38.985737662126766,4.008730992037533,22.202856008933804,27.41315879102097,36.69594395678728,54.12592817416572,68.64498467123471,70.62477499682832,64.04355577727985,57.59625826434818,55.48450520279387,57.48865716421388,59.41787991582959,57.24684726061298,50.6589294299628,41.557902884883276,33.411984954765835,28.96476195440082,24.822166826323844,17.16955370448429,6.9523773242315645,-5.092359660878413,-18.297166550622496,-28.324881040514637,-34.16023789060898,-42.65144988214112,-57.45267689450315,-70.79588953093426,-77.28222419281903,-84.92730135911256,-101.78334359184089,-116.71703574010645,-103.90223378647994,-56.605809493411776,-5.319464617882671,20.810682247784502,28.613821524823877,36.365955105479195,46.49495069517906,56.854962067289385,66.37925312746356,68.38298352634581,61.061735952449716,53.528255024083336,51.88146514989287,52.20974775468847,51.048777301420124,48.83031934459886,44.37527188183426,36.61991676614062,28.261287662823154,21.04780396707969,13.068039656209798,3.4065631587958363,-7.505306395629725,-19.364257021841592,-31.003000503204177,-40.40120164334168,-47.3246946880894,-55.18016139340347,-66.95515546267288,-78.92606775797364,-87.04380746945942,-96.00670663690583,-105.90774673896206,-98.22896062494627,-60.16577650911664,-13.099220566573246,14.964434140325775,24.216933908938095,31.15376238209158,44.62752949424751,59.02104546057543,64.93200328091196,61.98897958423002,56.570306056195925,52.392689166744276,51.120719480085896,54.02500272523106,57.6635607640982,55.24619102492306,46.78010089423701,39.077746055087026,34.37399136122822,29.724804371720772,22.758465504884605,11.756532067272751,-1.0842164634717626,-9.412921494837011,-13.203025336238055,-19.570583805146555,-31.10335054471889,-41.49699273716565,-45.728586218855554,-49.327489018778806,-57.32674520954286,-67.1144435795069,-76.84941420024516,-88.11363133098753,-97.88582760930196,-91.55649723228152,-58.14657626690635,-14.813296569226125,11.4068614349869,19.930478731004367,27.195289944598336,40.32787206573241,52.49010906536551,55.946596146801,52.0,89.0,57.0
-11.695379718056863,-20.439019648666786,-26.800169196017535,-33.62386165463175,-42.56862117520322,-53.364367718036476,-63.11760820951284,-71.29047173308433,-80.9369034155012,-95.48042616592548,-107.00529309527144,-93.04146588922819,-48.55994018055643,-3.4580913280347487,17.403393484012767,22.498779900426012,31.281692040630304,48.79071860413671,64.21391746864916,68.44871860397267,64.3162652392823,58.83327651843861,55.59575476542155,54.31538115888692,53.11102475338865,50.906416776491795,46.57174216820489,39.24907371282263,30.621026437111798,21.597896300746314,11.783940439865688,3.741795723554055,-3.8599260674360747,-15.27249106142817,-29.873211855637,-42.26267768103201,-48.79830849448138,-51.77413176125867,-57.7023119690707,-68.6755052682784,-80.63111159785419,-92.21210759371735,-103.34922805991276,-99.92071551680684,-65.80242408330051,-16.408081008334037,16.056568845895484,25.474699393705137,29.673443922457118,40.13126758233609,54.9755619305307,66.22974943914676,67.18129565740648,61.72579814665442,58.87112050749919,60.65330974871053,62.21276014614832,58.73497340716075,49.98406512580978,41.3451659877907,36.351866742299755,32.52969974195675,25.181483226132812,13.77194256973246,3.5833336016700073,-1.7575126802531185,-7.944087957466914,-19.746364082408487,-31.518825114173165,-38.94301393722055,-45.46651880854265,-54.94860141831822,-66.54090208167558,-75.78753296443074,-82.72990922140957,-93.93517125555096,-109.18466395491036,-109.60508942279577,-76.12707419777966,-24.375364984566268,11.678258062143268,24.16923547245782,29.162418164825844,41.17705839521116,59.26539164013051,70.57236003707453,69.1787401599464,61.88301364233591,56.470500827956876,55.76746840038628,58.28340568103868,59.3018320100519,55.727636571768656,48.17969734408353,38.90415552160947,31.77974189669005,27.990030974576463,22.998946839149593,14.393893374083468,3.6887265838989447,-8.928337651628151,-21.72382945294894,-30.246490176781638,-35.97647479049104,-46.44466753486925,-61.926925542432734,-73.24492675498274,-78.81481329237761,-88.88213120997356,-107.36902588831987,-116.87541438294642,-93.00825276667045,-40.37179128990841,5.1823423744085835,23.966805919132405,30.439235747677657,39.22786647047816,49.43778189712232,59.905144198446756,68.04233244664837,66.96293325469253,58.42662019871964,52.49093879343783,52.033917574317705,52.031793037590305,50.51088889068301,47.87807393095109,42.417362694245455,34.105294800071626,26.107626253949313,18.91306824771582,10.431952365981626,0.3671367981439075,-10.85519938306141,-22.841151121311455,-34.01755929763578,-42.57361469962385,-49.28543147598377,-58.20191864403055,-70.697399280159,-81.61220053040856,-89.23932409108133,-99.27170687496836,-106.55657568353713,-90.06031005547777,-45.913740883905994,-2.4559056605130802,18.89748390489683,25.785142220747716,34.38745487201166,49.18125753110592,61.84103042152817,64.73626850365929,60.42432149796801,55.16740150825053,51.63809509539973,51.55390807624678,55.3156546326416,57.792809294888265,53.15611972936059,44.21220811345937,37.51517621156312,33.152198680214426,28.0391652007279,20.023422464224996,7.964917611730377,-4.167005998488241,-10.700878574558155,-14.48809131827026,-22.511833785175607,-34.617077878975536,-43.28130803810678,-46.45557001129648,-51.205676557876046,-60.14237297629474,-69.89059240780936,-79.89032394783206,-91.52948132935575,-98.53214061780493,-84.54337584086662,-45.218921523480624,-4.835102425000986,15.005207135791753,21.52784462165053,30.49674208924366,44.41597511827076,54.48374912891374,55.4328437870828,52.01283430113724,49.86276798569219,48.80747654423079,47.75298771447364,47.09700727842579,47.30168338465543,46.10434281854334,40.330852285863564,31.65860960598402,24.15870714925888,17.69799983580441,9.973709015288751,2.242629729665233,-4.068608609884252,-10.18531263315868,-18.361126050106282,-28.525350823654552,-39.48059175372352,-50.390679049122376,-57.483517632384526,-60.392524389589965,-67.41674337578512,-82.91640234862562,-93.22272461471992,-77.21538594472295,-35.589327862025584,4.138073642666342,23.23395073976804,28.145228929325597,33.758298282738195,44.06836881684498,52.00155658564846,52.53676686200369,47.65430901001859,42.12013433297538,38.56359110893121,37.42618605386231,37.401629962155155,36.555679905587766,35.559596607441904,34.608901951239986,29.94658814986664,20.76961309811199,11.466332647402602,5.0120295208178565,0.552241159058096,-4.733355629673021,-12.175486119705656,-21.770217256409925,-32.51545017000774,-41.22130440297553,-47.47819591536529,-54.41788281362079,-61.56892300004452,-66.97611086811379,-73.85831884678686,-85.38918630126098,-86.76856848345298,-57.65615946323397,-10.151310684131396,21.427253498736253,27.458421501691298,52.0,89.0,57.0
22.157028150589866,10.39989108649023,1.628789466641155,-3.069036097643959,-10.867686754402508,-23.508652060816416,-34.055895839721664,-40.69405948780164,-47.82674025063945,-58.26572102012932,-69.60964976765487,-77.80487485104766,-85.2432356010322,-98.40762793595916,-112.01612374469731,-103.54394539840445,-61.42369600743652,-11.306551788773263,17.212019750081353,25.53566700688138,31.60792245899107,46.26261952455293,63.77679846097358,71.33876891001711,67.24416953864835,59.91783524820106,55.76165108170736,56.347228352797316,58.938997951340646,58.77211274507811,53.873245445937485,45.538398940893025,36.44642462164947,30.47869811026087,26.891578120243405,20.839267831530357,11.464928086373638,0.2535016410598938,-12.81064369716973,-24.74619188829022,-31.87938614161147,-38.24508418293403,-50.743785728042525,-65.98719765791621,-75.11532446251726,-80.76561914941169,-93.70459705228193,-112.27700568355287,-114.03076033783809,-79.44919122148835,-24.86967596737394,13.170028169618673,26.121814545457593,32.59744295835206,42.17896113385854,52.41065207947944,62.812167644554876,68.86365184588526,64.84725047274607,56.07473210792832,51.97518710697744,52.18744896733843,51.70852171976876,49.90612228306083,46.67550178880624,40.18999937590119,31.64323627147156,24.04309882426892,16.64974073870404,7.662262109675792,-2.7661297617431773,-14.279794677177229,-26.25375892333747,-36.796626374508016,-44.56217521688887,-51.4475838427327,-61.582838007124714,-74.28053764515133,-83.94736877565109,-91.71624861486218,-102.45732914683785,-105.09537747288668,-79.30463054103788,-31.793536318282552,6.109826426644566,21.57740591037749,27.588258160498007,38.234765622056265,53.54762863970136,63.762459405212425,63.91536092647612,58.81772824965325,53.908301380230625,51.1736749043961,52.35426944806271,56.51114320583626,57.25502224977858,50.675085401735444,41.893627515678,36.16426081457227,31.856176415823555,26.11372315245073,16.90907623148307,4.144853769098995,-6.707613039489955,-11.727780063964907,-16.183183646266304,-25.856799875693405,-37.79952444184789,-44.524933593008285,-47.36077336140327,-53.4837554549261,-62.99425773279952,-72.66697531848682,-83.12070599037824,-94.65106147644919,-97.35260235015716,-75.16901685987497,-32.228650708323485,3.1870946496427504,17.444389338448442,23.438509706856408,34.29531302238193,48.15117625129939,55.634772192382776,54.551208212331595,51.17415868336581,49.53173700206244,48.49908248653122,47.489724430018875,47.08979308568564,47.287017713840974,44.94255181435396,37.92477704323838,29.26085524439454,22.32422552279544,15.607091799736974,7.632864887412431,0.27946271764999936,-5.746740367728417,-12.275304993395544,-21.166232245818524,-31.623164518523748,-42.74537022696208,-53.019328711913595,-58.509188052695144,-61.55719287534831,-71.25443023983264,-87.45540062853107,-91.91900664411126,-66.8952405355761,-22.58349153289122,11.88053511220642,25.414384605972387,29.204458914553236,36.47537195274634,46.95441612973173,52.950921877192656,51.46258530195562,45.95295830651678,40.836727183231595,38.01009517553574,37.40651025728569,37.275085881564664,36.199040483337775,35.39766090872886,33.816084106271916,27.605558493715474,17.893586871713392,9.276311419489652,3.6387511454414896,-0.7834491589029925,-6.658155071932478,-14.730863405846467,-24.87067663003717,-35.37470456593362,-43.141485302425586,-49.33507662859156,-56.586145416235034,-63.30396109314484,-68.516482105263,-76.92280153881738,-87.98164851113773,-81.78004920007265,-44.292451511417916,1.7881865189241473,25.25564967054398,26.901190811456505,27.644198109395,37.97133545687337,50.7509699680869,57.802124511601285,57.81350262515279,52.21524761812157,44.547423450999645,40.32934612992508,41.17510406193572,42.173829716448196,39.68285674920916,36.51040929876237,34.788139013613886,30.61402084894149,21.65073833889498,10.867272061537795,2.187691224431169,-4.488600625449841,-12.36216644275084,-21.300476812076933,-29.44203430325187,-35.72563679623777,-38.49526258891515,-41.607839544709385,-50.32006671456422,-60.1754528954614,-62.972166778024736,-61.08114016829806,-66.78945294632345,-79.61859628983848,-75.17147749359036,-37.85644866691763,7.683852970509335,30.178881483810233,32.7921589008907,34.667115204089576,43.05698340827467,52.45458187955363,56.476606617923764,53.25802492785873,45.6157713684225,40.578383326657836,41.19546288069529,42.49188481006404,39.45797449607763,33.111742342553946,27.285040232976204,23.77852051913612,20.905644541369398,16.038196842471827,9.939446239873147,2.995357289373975,-7.017419183600257,-18.73662800119291,-29.113554773080065,-37.62295398370736,-43.820403201322094,-48.60111315167221,-53.81173926739878,-57.383847898962124,-61.63149550839069,-74.63385071655105,52.0,89.0,57.0
51.275467546489374,49.20279677864282,45.174221162548385,37.77159758735244,29.296861748249096,22.001522752885712,14.234015564183752,4.774315980707675,-5.989445530887984,-17.755055559716112,-29.543291618970315,-39.3219772065085,-46.45403492001191,-53.91757241684403,-65.22727537123609,-77.55058302407735,-86.07650833226188,-94.57086079514009,-105.06668004178928,-101.04467091755696,-66.52365770939764,-18.64626701320059,12.608124455651812,23.47608002609383,29.885348598080107,42.54597826790173,57.44713291663127,64.76384985910806,62.66124064372931,57.25805038007348,52.82341293812595,51.05111756946952,53.45183036332214,57.405909801632006,56.028307352076446,48.0114321231646,39.892435888157,34.929516976010994,30.43480374811036,23.894873398335665,13.44703332956356,0.49105961820540034,-8.679639929921432,-12.707524659445202,-18.380519508212515,-29.435214292510405,-40.468732392349104,-45.39356535154354,-48.60948485700778,-56.066363771383344,-65.82374718904407,-75.50295686867173,-86.51765071159363,-97.10404842137429,-93.94834693417161,-63.84677930815228,-20.000909127888765,9.232564621592322,19.2116237703342,25.87142421166613,38.40060858202043,51.292229327789755,56.00416106753309,53.50190993754542,50.52440229357272,49.23788014262726,48.18744614470993,47.275102210366434,47.163197760960394,47.053638387800575,43.34728252070496,35.37758819704736,27.052319916216167,20.50481067020037,13.379289613598074,5.357723272315921,-1.5547659317931137,-7.464040130618167,-14.588318305937037,-24.098236510109096,-34.77424638102447,-45.97371989883723,-55.19727561335863,-59.26955912948728,-63.34178715720794,-75.7794776954289,-91.02411906272188,-87.93871525508717,-54.8029609677107,-10.56588144325505,17.71865359988236,26.769340029300665,30.667774992427095,39.51032978005786,49.42504473638759,53.226946266481654,50.049828173437064,44.30487709726122,39.75578090602502,37.65361515293485,37.428034700004346,37.040725612250796,35.885457611634976,35.20081792389436,32.59079716580742,24.947747980345483,15.132038780856654,7.361384868516557,2.373710346221911,-2.259194013481217,-8.76791918661828,-17.468201740392644,-28.020787512295385,-37.96611923404427,-44.91646709416261,-51.32188641686157,-58.706293794174925,-64.86126257542831,-70.34320896224645,-80.38212524470308,-89.10902016185905,-73.87162909753542,-30.14319810337469,11.56836447487053,27.123809526794066,26.357912488858425,29.72442046396286,41.909153157581216,53.53564584178128,58.48749272868844,56.67288005239894,49.97578727747054,42.76431223638962,40.18284818545979,41.724485874420765,41.78948076911499,38.632364672184316,35.951412762796,34.05055013700533,28.460947837714205,18.51738248317166,8.041524484686521,0.192674982110193,-6.548013199170939,-14.94630521647034,-23.76384964371123,-31.54512265508913,-36.86652840065538,-39.02677782577576,-43.53155322651308,-53.478357448401844,-61.89562897269578,-62.41818937108311,-61.490029124746634,-70.50034497096077,-81.41116402610002,-67.42814233896767,-23.728713680176924,17.108108379691014,32.09205688727375,32.761278990161706,36.51961832872306,46.027380016936704,54.33295330215491,56.26586661443837,51.23852073525284,43.586953897110746,40.28680212685378,41.806671324584016,42.136733529138375,37.78751603667865,31.237260754407963,26.043026511454862,23.027722248480035,19.745969245279845,14.307181970935957,8.1205070087226,0.4572383679318884,-10.392809671184098,-21.939848883726608,-31.760198386101468,-39.680644035614264,-45.21814148216534,-50.09339614871989,-55.10700887579262,-58.166510459843835,-64.31132078575264,-79.70004701310965,-90.26001605588885,-69.6915679245668,-20.540236114306513,19.491665260785652,30.043110122703418,29.406913884510097,36.114558184020034,47.93244253731732,55.759628172409236,56.023328583226245,51.63292573424373,47.45307282194203,46.33523851787313,46.13651005439201,41.64365496571807,33.90526448272082,28.7722631309687,28.927940866089745,28.126035420129945,19.329939442847934,8.357730934386153,0.9498247500778532,-6.883190481942282,-17.025441456347103,-25.87949545144008,-33.10168074571514,-41.366147572311505,-50.39971709882468,-57.58992251227772,-62.507619197921514,-66.1218704325762,-69.74977391252061,-76.87294831998013,-85.1402297404354,-80.26738595225457,-49.40246956229378,-5.846732303204486,22.737678325725888,32.402132826004426,39.05088689069396,50.39502627220695,60.875525269034924,66.28614404823537,67.11610203804514,62.17427468244131,53.42313884141954,47.278008774273395,46.61434611961574,47.6580533813473,46.00804318160857,40.55246968850709,31.952110744706687,23.604140901567018,17.692414900524756,11.914789130999266,4.361867222184855,-4.642615433724052,-15.245788862638834,-24.601318367031652,-29.42239993573234,-32.225414160573,-37.66108186838486,52.0,89.0,57.0
55.72778037193003,52.4572864012618,50.042192943087585,48.945899181818355,47.88536660486113,47.13255816764786,47.266609202831795,46.49467297699461,41.35864535988995,32.814328434852776,25.03566537626045,18.612526111990867,11.057951373417739,3.1946822276943236,-3.289760821106941,-9.289543646424415,-17.124048420473347,-27.11440380818672,-37.983395072060624,-49.055840726517445,-56.873982186456644,-59.995200294129994,-65.92969813446089,-80.6667199484423,-93.00332282048123,-81.20347625535733,-41.71887476379289,-0.08294041532965994,21.83449575389904,27.726805803464096,32.65971389010558,42.64941267695255,51.3358624094358,52.88075531850569,48.43360684113176,42.7736741213786,38.88979610740319,37.46650403499685,37.42610740770754,36.71990753207982,35.645948012867535,34.85455070100858,30.888381577507158,22.105076487517056,12.56692455817769,5.702439998395571,1.1358135081665803,-3.9094614532254006,-11.058638255285633,-20.37793323911498,-31.126882424702767,-40.25927780988905,-46.6582906138241,-53.42374927118165,-60.70456941018844,-66.31029488185214,-72.62455415267648,-83.89370685325878,-88.10308535712464,-63.28691326643417,-16.22412923525257,18.888056986283775,27.56770500546821,26.286866889654977,32.65111276633963,45.75600488204353,55.72040750322196,58.60302622667628,55.106479222266394,47.6807973585218,41.41165500221287,40.42358527312092,42.11744464898699,41.08887265300315,37.65111667531563,35.503221469860954,32.96647745423456,25.91261742688869,15.343886008683326,5.472785498703597,-1.6972826175061746,-8.78618971130037,-17.558813834828097,-26.13959041877196,-33.450454301113524,-37.682875007552624,-39.76980387094651,-45.99669289380356,-56.50542576207491,-62.856177041456625,-61.6896144635623,-62.876308054481456,-74.53937885859062,-80.96245756258102,-56.883651083500396,-9.935009323711437,24.09081544831302,32.79415528520208,33.10604979572349,38.91926275754192,48.873371016051976,55.651005176935634,55.442432210372445,48.96964827514981,41.97665965818394,40.44802944064427,42.29565847345379,41.34249869611158,35.93198415065002,29.492770896862623,25.009295174038687,22.253681406950335,18.370526289993435,12.537629184564185,6.190978004834542,-2.388693014647222,-13.821979820452846,-24.97578459030649,-34.261899329376064,-41.51523574924461,-46.564792497035306,-51.636930448943545,-56.17383366382262,-59.176840903809236,-67.92422618696021,-84.48277810350231,-88.29500759400656,-57.09901007604904,-6.304829452855855,25.272118121675835,29.812401592173444,30.353417958746977,39.44018723376647,50.903878795655245,56.582432855366164,55.00505939467757,50.22142357216221,46.784526744871556,46.437936853685656,45.40368638089602,39.49848604993901,31.913446216463104,28.360869792234556,29.268010814027853,26.390606830761072,15.932080204342995,5.904108043122844,-1.027275943791018,-9.709063062112012,-19.84317870815339,-28.015103672601366,-35.30731563026839,-44.01207447474291,-52.750978892949924,-59.190217460756514,-63.66594454599109,-67.03180323022494,-71.33652592482014,-79.5717877390665,-85.90629503186057,-74.0653755937234,-36.79049972232574,4.762225842265588,26.879091678292017,33.963504805988386,41.94591427199436,53.844529656884916,62.950637568404254,67.01262327017007,66.32666553698103,59.77679578960147,51.119561154504154,46.590767925209796,46.9919291497426,47.557566640145204,44.826654806048595,38.293411197060024,29.3313327267822,21.682615759463395,16.156734118508062,9.909019504102032,1.9146864375008965,-7.579195603864821,-18.289505587323465,-26.475022077333342,-30.193632730544163,-33.4163190684712,-39.85485301071342,-48.34722583114677,-56.13591135407411,-61.592572058284304,-65.59922710915872,-71.06646964762803,-80.52469146820305,-88.64091161488665,-79.54803500062417,-45.50273481447822,-5.1549897312371264,19.17642845105502,28.622298181407235,36.124250944089724,46.15118877309967,55.72796034979501,61.472338279900015,61.131044557599196,56.61892977039241,52.985230254219886,49.98150146917841,46.61525968555131,45.54998447402929,44.71405206595171,40.2376146514197,33.37613200604076,24.744404397969525,14.587465301160993,5.332135458675441,-3.704259547574769,-12.812582819436887,-19.20330897422757,-23.70281719234587,-30.837077607485632,-41.523030122688525,-51.54646323719235,-58.559340186324256,-63.40921913114226,-68.62376067638276,-79.49871486396643,-92.31713837464916,-85.82491169950391,-48.56280620521836,-3.5044352416420046,22.823619390336972,32.42406956200244,38.653630247916944,47.22741371538753,57.778400447679665,65.09748136772767,63.1897815756007,54.054385568129284,46.61720518818834,45.21673819484771,44.42233207243687,39.25844244401873,33.09012887983244,29.9191482152575,26.59305052696767,20.014930162322624,11.936725267512932,4.985486786644413,-1.869721843998306,52.0,89.0,57.0
27.188465998238925,27.00246384550355,36.20277417422536,49.281183528043144,57.28631833191989,58.18004727951234,53.18994021578586,45.48420016994472,40.55445301833756,40.91215174542409,42.233506123819396,40.157547839958355,36.826697345161016,35.0440599502162,31.45956769725158,23.049011534072775,12.243951774396754,3.169175155420942,-3.588477263376517,-11.200732882444981,-20.135984769836707,-28.424423914535193,-35.08264084911323,-38.264863107366196,-40.91020581800626,-48.89182054573501,-59.14772147852335,-63.0805391030976,-61.15629071275081,-65.32741853318169,-78.24073844954712,-77.70625367890293,-44.18592598126939,2.5646059842295585,28.734429686659055,32.845900099972475,34.02572003584596,41.70141809554944,51.420066497326616,56.36107038407622,54.059687635592056,46.64670889504518,40.89136417442692,40.92044793449082,42.51381569217616,40.134990025532765,34.000603148308635,27.932516013419875,24.140894033852675,21.370201557816102,16.80697440330348,10.761797600426615,4.063999177182415,-5.507399572350137,-17.210008652648284,-27.844052591595805,-36.604338754210794,-43.13474697453382,-47.94129164592378,-53.15136186208514,-57.03117173161607,-60.691188182671866,-72.3757996555824,-88.24052536400713,-83.10742444107173,-42.66708381403487,6.057033832624661,28.553222674615217,29.3639938682454,32.15328296350742,42.963572317024706,53.34312334916754,56.75896847438256,53.720851475588816,48.93709152129205,46.41815669075575,46.49234454919084,44.197555546939356,37.20032101607492,30.29038926959978,28.39848064499426,29.26240427396528,23.907744257320054,12.630103197345932,3.774099761800456,-3.2053849036249913,-12.680576950161695,-22.454279693886576,-30.06796134909919,-37.664548736610485,-46.6680603278876,-54.88418163188652,-60.628603210393955,-64.72586598631959,-67.99883502351162,-73.31741897881528,-82.1981878452176,-85.1091127104246,-65.50008913209304,-23.798863559866334,13.508777827293082,29.690314802656776,35.71400628574252,45.24198623911166,57.00884102802007,64.58756018658752,67.36948193438595,65.00107795339038,57.18353870550979,49.20258990354293,46.36014180086987,47.36739438445734,47.15888140129175,43.3232082855507,35.804021152782774,26.846167597879862,19.970057164819266,14.540110864449796,7.746876808978967,-0.6454228497000456,-10.65600767103921,-21.10816270627431,-27.924781505511465,-30.928094517250866,-34.91692314476746,-42.2262230934712,-50.77624380175737,-57.96551555344043,-62.798228407269164,-66.8691159858015,-73.39346057845684,-83.57335831673143,-88.54041690332856,-71.92945919377496,-33.216118243369834,3.959934205414725,22.844298080242286,30.561354826214902,38.83738407374117,49.13099426254822,57.912054338483934,62.031591107229474,60.01735948858545,55.34831584663978,52.19812762124675,48.93032510736768,46.0253814982512,45.52297125154726,43.823114261397315,38.39932884684798,31.11169289840493,21.85837227660757,11.769265623253212,2.7943733022976716,-6.439990804628013,-15.021253796734058,-20.512074688023546,-25.323113100502574,-33.699192722178054,-44.679600675493354,-53.8725791146981,-60.12319054843565,-64.66839532346887,-71.00538907138473,-83.69356021192431,-93.49684111298826,-77.80672370042124,-34.777130236280065,6.483287989006904,26.6679354330039,34.14843022204734,40.824459567849765,50.208456759190184,60.555726912190735,65.61138695279776,60.945293802963555,51.34769181926226,45.68838085899075,45.27705725972026,43.38014999110274,37.29182183839755,31.88640261594691,29.206228345170565,25.019196253797602,17.689815306046324,9.767314771470378,3.1396033797471943,-4.272970691936062,-14.239640628132328,-24.106128982841383,-31.259679206243778,-37.78679579813457,-46.27516488315207,-54.655746784223595,-61.2340186273817,-68.24664027321063,-78.42985687407943,-92.77066128713155,-102.46083508868143,-87.549092836645,-44.05981204390091,-0.051412134785256525,20.915019066755825,26.678575709950355,33.36008909745837,44.62542972833147,55.35190065130175,60.92877552192283,61.419905885725385,59.49264415927023,58.46669195208646,58.54855194970651,56.28303647294256,51.077212046413045,46.58993226082094,43.00126751103348,38.95784785680551,34.2264362622971,27.147144041566474,18.504692050981852,10.639680103578593,3.6746847197635044,-4.339949971976382,-14.139583612757487,-25.518396825547118,-35.549676108654026,-41.55028545729451,-46.720821547238586,-54.426728710383834,-64.14413926023619,-73.92935422298962,-81.75911120269006,-88.98863901912806,-97.1358471591819,-95.28794734151487,-65.95646647263327,-18.034086496319937,14.93838121550763,23.084134096951367,26.739216299406266,40.22819369971554,56.48517531660894,63.71261286098523,61.48002006619655,56.80329545360964,53.46741165922893,50.74191894369496,47.93694916252284,46.17741678255366,45.26284461140249,52.0,89.0,57.0
