24.64017031211332,451.73622836110496,576.8900599997809,500.5797739848982,435.73987987242236,418.2690069621588,393.1315991870009,345.89959558824046,296.30014192136315,252.13612149343334,206.51992596172246,157.06668379290377,110.53820107347204,70.99898709033269,32.56128158677177,-8.023861801684914,-39.62674544934532,-47.34988238656767,-29.210034141427762,1.9667317296377282,28.906363486856325,39.22072868487651,32.24279328748822,15.62283712349382,-5.942249988365718,-31.163287106108342,-53.884543309845284,-65.38263060819847,-63.15263528209021,-54.579538882537854,-48.910544769509684,-50.60012466502022,-60.1975083112294,-74.34708634857188,-88.34027467306737,-100.84207857086372,-113.30297589152534,-127.80417325031077,-142.71235629427593,-145.910451345846,-122.45331505332942,-75.15460399172436,-23.38574643388568,14.849394212543862,33.91559651184983,40.044192714341854,38.85208699279795,31.07557112359818,20.290472748659315,13.909512081857667,15.331333312679961,22.073944926945487,30.785146951573267,37.7133284158511,37.51514138583034,26.301079979956857,7.926699520537538,-7.486875405743484,-18.06224072903825,-31.179846928287226,-49.73090150095031,-62.887494688450886,-53.305089685971886,-18.398131596572473,25.38895618713065,60.41609866042068,78.15388335154591,80.41951080911564,73.17010365143913,61.432891027093675,48.820558479456196,36.90643667304761,27.232186126846766,24.387068958598157,29.999153504392428,36.87341304599213,35.98642343890317,25.294144804129225,8.620459187577302,-8.300619255426362,-24.224354348473327,-42.16770364767978,-61.50821163262101,-81.44724105361847,-97.06021084799727,-93.01957545207047,-59.54765859557047,-8.617402872794822,34.69322783420747,54.59357396924271,54.87973306053553,47.801292644675215,39.10706469598737,28.74994620590965,19.189978272682616,14.969051416672121,17.04584030016201,23.19512905695005,30.070581101080304,32.4972814316563,26.908945038679423,15.031169940231434,1.625973975306838,-10.421920931659567,-22.53507073026872,-36.52832309990063,-50.34016622244247,-62.172400012654556,-74.36081013913493,-89.53389487840523,-100.5378823612869,-88.92443718031032,-46.49645519332244,6.857079625709703,42.67637065316943,54.483245602689294,54.243814289510475,49.21390674306794,38.991783292588075,25.863649768736227,16.989425465073023,17.42327584419142,25.716523604345017,35.3666879677601,40.578669664128135,40.51789712603497,34.5629331605502,22.32817659869459,7.232259326211457,-6.076872640539149,-16.41783268056384,-25.921302177800765,-37.940302384958464,-54.21690476108759,-72.19618787038357,-87.40413033897931,-90.92870946838033,-70.77373043846504,-27.399775933631577,20.88190162477705,53.55294051428327,66.04865641716404,65.33147882505648,56.23100240552627,42.34027928271783,28.707483788262866,20.90629498248339,22.67601006560393,30.878706621500147,37.297856792153524,38.024078668784796,35.337976573723765,29.93324113495572,19.904377970108044,8.618124430995572,-2.093266861038316,-15.532781100769252,-30.50165659162257,-42.773927684025864,-54.63078399917977,-69.28538136576857,-86.64290326181549,-103.45857350794768,-105.85832446745518,-78.6097463255038,-28.133419236610155,21.829535830523202,53.524999156547565,64.47453637112227,62.362941458122215,52.231710315050286,35.966797354590895,21.2184724003381,16.767589936959578,23.909124496500297,35.66413078495587,44.2097063102589,47.43455080254702,44.646328195827216,34.91937205710028,21.964595339738086,10.743764226654145,-0.2643986628373293,-15.082461858250099,-32.32403020617693,-47.102356490522205,-58.80339186799847,-72.89187419410717,-92.06438693363081,-104.54575497795972,-90.8335521200988,-48.73836154947285,2.1843740069257325,41.98490975426009,63.168860353022595,68.0635625615137,61.57835070307463,47.01686663276279,29.85868545286379,18.234648526076825,15.566919821314126,21.0263785903521,31.43401493948704,40.72121655858845,43.1706357223423,37.503025555482765,26.10467581344782,12.624471516946242,0.4530684349930938,-9.66973517758617,-21.118921285393288,-38.28365007231161,-58.240894161717904,-74.27727209057178,-88.74691456572003,-103.27717367508399,-102.84002327928901,-72.33384890592596,-20.62068336747606,27.20684388349534,55.374394901593874,66.57000354777293,67.91194410706818,59.915942545969486,45.04367426600175,32.854337593211625,28.071775584614308,27.80980588719523,31.183678262200484,37.83469254191016,43.45985737461105,43.64787714440293,37.84292226760294,26.7035411693201,9.836151009666942,-9.972718752818096,-28.731131427598203,-45.01899318682951,-58.78893904704482,-72.00044804385551,-88.08108714443607,-106.66709949765159,-116.38425602588308,-100.28499749140528,-55.51325388165175,-0.23051416392553925,42.16554844508599,61.76136189193184,65.91633709673886,62.97155641936971,65.0,118.0,77.0
-45.32599718109114,-5.752593325511998,36.987331526280606,67.4110209156087,80.13485089705249,79.0592849889278,70.0448946254293,57.771507289457865,45.27855126726744,33.729563540849036,25.486960960580074,25.30314833830018,32.32704032080222,37.66107543091039,33.809767585986,20.83543634185409,3.552183231780827,-12.862453490695072,-29.14784567012405,-47.69067842274157,-67.22735193655993,-86.93484265245627,-98.66225497942004,-86.28418138574193,-45.57857032375271,5.730306873686482,43.02503186707184,56.14323260385916,53.148184501457564,45.430427261822665,36.26872516560582,25.687293108592367,17.285520272230603,14.993018454946725,18.52460232107605,25.306311511740446,31.468592663961765,31.7320165895128,23.929171367968145,11.110381616811035,-2.004132885015678,-13.782310393009974,-26.406711142280756,-40.6819113403743,-53.936781974096604,-65.47293273845281,-78.47836347062508,-93.84157273424171,-100.32512848849291,-79.4731841589023,-30.77783535862045,19.850395490390586,48.1543554713058,55.10621043884582,53.24696932244426,46.81433099666815,35.230496197098134,22.53085874222964,16.097679692638064,19.233382996403485,28.70718041150157,37.43775793355385,41.09227345457517,39.46624724498313,31.603814176174797,18.0228919386262,3.068504721635679,-9.317964703526807,-19.110991891040918,-28.987145665573838,-42.24642817378896,-59.416181648902395,-77.1260250365159,-90.20454623090788,-87.88607821555884,-60.091803778513565,-12.884405559065105,32.50163607966285,58.98923924682969,66.89789377151598,63.433422064869234,52.50581018061712,38.13177003054414,25.615351059878993,20.405065625762216,24.733208906537175,33.23529874142532,38.066288155779766,37.45619993130848,34.17529428427878,27.47490519775468,16.548578257878656,5.586614036909189,-5.5963401114697024,-19.935846453996128,-34.368467529222976,-46.01735307142946,-58.554216822404264,-74.05115143293726,-91.92511388247209,-106.50464453276398,-101.27853964316309,-65.47672520607878,-12.593834564576012,33.265031453052295,58.563928661228466,64.84686200409675,60.206618146339515,47.96613521573647,31.07745386881231,18.642118767180158,17.82198236889405,27.257340735412644,38.660410333160556,45.68659207783097,47.32358095758894,42.49897773666002,31.222463222208308,18.46756665968791,7.76171001182319,-4.08109474011165,-20.03663659822855,-37.006630595120654,-50.63998570106516,-62.33415048782984,-78.10164397218063,-97.26904188356401,-103.89734531858579,-80.97951019537635,-33.871660545301445,15.411710459604226,50.03802467258785,66.02862111412072,67.18285154452859,58.05788959655975,41.95209585061455,25.651491025076755,16.542429106368424,16.391932238010064,23.74917403792182,34.539496100997866,42.28310183154246,42.30837059119133,34.644877613233355,22.253901045603076,8.868125776235026,-2.6118288950693316,-12.599597091862094,-25.42495492232648,-44.12431540189949,-63.38528367314279,-78.31870493762091,-93.28396067377267,-105.64119526218833,-97.25453550420751,-58.54558114455507,-5.341707556887608,37.5358156371743,59.9519529836802,67.83194584677048,66.61522445029937,55.9693295741803,40.83343442042036,30.77787469751143,27.663210294376107,28.36001544798285,32.89981750362728,39.80253984079118,44.18514266771976,42.520224455225126,35.20665397108029,22.37445813602115,4.208979817264912,-15.61227270371417,-33.70988967880714,-49.21955709686966,-62.51724849646708,-76.22197875323502,-93.45460590390736,-111.17622518040503,-114.9449512948938,-89.81226211334337,-39.5006027816098,14.159543701003082,50.08246720946339,64.02384140608115,65.67671128684862,60.89821358959332,49.09365125845324,34.20520021996762,25.224458905721427,26.426368978913455,34.462310321775256,44.391415489371866,53.25204759385339,57.15209256899939,53.732402528243185,42.61279234079538,24.93564835670572,5.75729215690105,-11.363724008975653,-26.193144393002687,-39.88760991189373,-54.35995744291132,-71.50561052689349,-90.62843490919987,-107.18274919304623,-112.90661074541497,-95.31661450944515,-51.27527600968016,2.267749517172022,42.4706252465014,62.22926460829376,68.11058691691521,64.50220110564793,50.852016277655835,32.68447028369662,21.007006133195055,19.924638202298755,26.202714133830415,35.95627362601942,44.5563856774252,47.07337214662971,42.670673852554884,33.76848228484515,22.36498952213576,9.130704787805062,-6.636731305502275,-24.05203751641921,-39.69067068115364,-53.378032690058404,-66.41028855963852,-79.60433599404443,-94.7230066564002,-107.78744497205311,-103.96787815336744,-71.05816732866604,-17.852149622156826,32.33135604911202,63.0611370834886,72.99396076046595,68.75844165061902,56.648598787593734,42.23821432815966,29.698862012152553,21.44019141483895,21.484321485599917,31.06959539234337,43.33678838155023,50.36291634763851,65.0,118.0,77.0
41.18266065215376,37.88346886370808,28.13414425058026,13.608042411759547,-0.8511116015950948,-12.325583279163167,-21.805866837364494,-32.354228357133564,-46.91092104662678,-64.65915764324578,-81.71767073029021,-91.72812148662437,-82.59545683590397,-47.67278586590191,1.447403763151757,42.40289910514195,62.83456945358233,66.83702503467183,60.903173770872556,48.48544823508962,34.07491447708913,23.14979385152091,20.760740102675022,27.15843727221553,35.235745166050016,38.341991020466594,36.70355916358335,32.73262601269791,24.60605644203605,13.237026587450835,2.5628797130838272,-9.4208198808629,-24.348541017571907,-37.935766233778935,-49.36309483616307,-62.737190749118355,-79.03696945455907,-97.03149041739138,-107.86580650752333,-93.95075507463008,-50.84631176767262,2.271883614230955,42.88051727626404,61.9656963129337,64.35822402375216,57.42261266004793,43.250174420624795,26.580327821270483,17.093905237351052,19.787229870518296,30.751296149858366,41.24461805358246,46.72451171012849,46.671069772465835,39.76652773624376,27.41263414127498,15.2003684315881,4.680335142142164,-8.291486944102155,-25.084426748507312,-41.36750616554468,-53.97488553763409,-66.24719549411273,-83.71738809536744,-101.4489283610974,-100.60201976623114,-68.98616792096676,-18.873948795392156,27.321769351428085,56.485607520003136,67.64803162349345,65.46341702460536,53.92054883701531,36.86230459246147,22.09503632082336,15.611385808105426,17.86180165342201,26.77767130157885,37.37858255629249,43.164864782363644,40.78542455218098,31.389888365899136,18.32251033688585,5.294376649233235,-5.523272766428458,-15.767829690310215,-30.294748087399547,-50.013644213496185,-68.07460266442517,-82.41508939697464,-97.7443762657764,-106.20775553179901,-88.93864027360677,-43.48469641385833,8.958368669235197,46.03367730970043,63.33284951212274,68.39242336574165,64.482107182832,51.60211828064641,37.11772270916629,29.31997520862305,27.532050085511067,29.248308253460024,34.84097851288825,41.55104610331076,44.36902462417286,40.930538001686344,32.113577293181336,17.567484184321405,-1.5517926065391734,-21.08538145567395,-38.47178378212313,-53.21633087829376,-66.27185071521735,-80.77617275147767,-98.95875611653608,-114.53618287089546,-110.95059877119732,-77.10382472608099,-23.216939905569987,26.943795147066442,56.056151751459176,65.30535677924598,64.95529403880171,58.196943719557595,44.726906809581706,30.65448973120275,24.558236251870344,28.305437554214052,37.28008428493448,47.20969957728893,55.058686378381054,56.939226444843584,51.32484036581418,38.011935808220386,19.303871135083504,0.553440326535972,-15.855128600660002,-30.18944647806733,-43.89488486024871,-58.98941248730434,-76.97134662639836,-95.94292838834741,-110.46986377154138,-110.708710184451,-84.91712714927057,-35.65591307261807,15.968779021094713,50.10020078146719,65.0152202896861,68.0498914982637,61.55027176110856,45.568557613004934,28.261703074651688,19.678274967613728,21.17102410868111,28.82959032902109,38.81206972905286,46.04553554330143,46.42902601053821,40.44527038633959,30.67641161600668,18.738829401758217,4.872617569820801,-11.650628450088142,-28.850456335003415,-43.76544124468924,-57.19095187835952,-70.12697607690153,-83.74817223613846,-99.19309971176452,-109.20791690871324,-97.53192869434776,-56.81729798590311,-2.03976725636729,43.53297301031292,67.82451540697373,72.91499787103331,65.82043829923343,52.48660764941316,38.311710533187195,26.740058758036174,20.401786336703246,23.445121589670297,34.762297081369496,46.11499767550134,51.00335661051774,48.75792056251319,39.25784569386185,23.326950659645174,6.31901572656704,-7.348738057298824,-18.858305074759702,-31.857459969581182,-46.70921794048033,-61.48833440694025,-76.78644636015105,-93.21368970962413,-105.2425863512772,-99.37140030792965,-64.35543215262408,-10.178243949858727,37.42760222481277,63.702895268964014,71.32294809188714,65.97608559144746,50.90670051073073,32.268656266081116,18.36823376840488,13.451957401016728,17.366356322131114,28.37807865501553,40.701326996887325,46.17185694920375,42.30935902059912,32.595289072236206,21.363212181568798,9.716733215158516,-3.395940575708646,-19.040467797962442,-36.51799669991573,-51.37744161443349,-64.52790795288821,-81.81329204653967,-99.95141159693887,-106.95752425114097,-89.78303420632726,-46.9082628232914,5.112590492581526,44.8696794750796,63.156738153887076,64.93195237474761,57.82869562674842,45.22594903458916,30.542878998164504,20.819265598338642,20.44570481177304,26.138101578874597,32.64090892955225,39.00912272643743,43.62069971855699,41.686687325842385,31.56831922285691,17.974918165474367,3.6730251680017916,-12.179573027269651,-25.729482033691735,-34.7346421999066,-45.684108775379585,65.0,118.0,77.0
-70.66724755682112,-89.47137601064055,-104.03693061987114,-94.53939484211645,-55.38540269120401,-4.280379693801901,37.72531726530946,61.39513487767288,68.16300591549742,62.97203758965376,49.281224208579935,31.979609534598538,19.27543299975351,15.41674865191962,19.910911303608756,29.960426999032787,39.79074142356135,43.33363160604757,38.66282050122065,27.82657499269962,14.403561311007197,1.9315690359605435,-8.358800335725249,-19.318788020207982,-35.67099893629617,-55.72258345541475,-72.38002440274214,-86.69930020135052,-101.73484147255077,-104.49573132009816,-78.08685723300522,-27.83911449509212,21.83491833872346,52.79318485177703,65.73974536768543,68.2381064310434,61.52925443649502,47.091300640706564,34.040507878866585,28.370876215013286,27.65914399232353,30.49348105758633,36.890029798340194,42.95697603118197,43.999058038977644,38.91355652997823,28.528418376087465,12.351682625478617,-7.330211629998485,-26.365280006957086,-43.00642145656949,-57.055064856251974,-70.1466684204407,-85.69573974333002,-104.33100995387912,-116.26402116835708,-104.26611478366833,-62.627326352719656,-7.290489731689306,37.82929054449143,60.30429966773525,65.85772274235542,63.7252248994222,54.8778342214867,40.28903123784961,27.82352401495474,24.76254280352169,30.611066022794773,40.16430414782525,49.87098388024281,56.34218404082865,56.09695383741646,48.26054621566372,32.92818745092352,13.701054730104207,-4.4415709143875155,-20.16483130354701,-34.13098593086223,-48.01697027812641,-63.88615457589697,-82.5416892970727,-100.9119153334962,-112.5990132937403,-106.2316120295267,-72.41445023441779,-19.848304806956495,28.06129770637031,56.06644435474362,66.85812927415121,67.21985635908439,57.73203768603018,40.15859138008076,24.64008846280385,19.22575428725187,22.92112804983061,31.664433649399744,41.43460915195208,46.9250851445928,45.2400741113249,37.91425883077128,27.4098207354813,14.964198014747355,0.36931330011549224,-16.73416578537724,-33.418857342482134,-47.72297128353494,-60.9629119123277,-73.88918131218418,-88.10405152496205,-103.28942700237042,-108.75912427354501,-88.49445022809226,-41.34831158930801,12.915541762057696,52.85593174173029,70.9575818976008,71.83439903252224,62.35996438396209,48.27020946245575,34.6121552225833,24.19337800695032,20.187651051032518,26.154153847834806,38.44166817056848,48.30394112874312,51.05257840931794,46.80396365361563,35.142252471313185,18.245596574644352,1.968793618746291,-10.721402951557002,-22.354694486755637,-36.05101806576203,-51.02553295089274,-65.76742491569159,-81.50507618643739,-97.60457335742099,-106.10203730923472,-92.31657550073166,-49.6029220819467,5.301732015691209,47.31796963899394,67.50787483371036,70.95597270473785,62.44555050149799,45.50344521975883,27.46389834185684,15.984632708753372,13.72230382684648,19.96326304914538,32.195407049692854,43.246206730350636,45.935617447804084,39.87826179037595,29.384244829443727,18.07657307380512,6.126385870619091,-7.61168148449037,-24.062818029243623,-41.24350226867666,-55.053091265733435,-69.00161580885947,-87.39778858884716,-103.75073959039902,-104.89927340816736,-79.59494291045523,-31.789574770628768,18.595160476246054,52.32843382290775,64.9720277603696,63.563815972181814,54.671306266412465,40.92965552849822,26.90457966435287,19.75356904958431,21.75789427092237,28.047978350236818,34.48741933209714,40.708166718537925,43.93538514238029,39.48070492153927,27.746825265385212,13.966164360004006,-0.8012353510627807,-16.593992224941953,-28.63116889349338,-37.348384996545576,-50.05582632992438,-69.08612955246494,-90.13126022019084,-102.5119385775018,-90.26702454679645,-48.26092126126856,5.599203809373747,46.96464957037648,64.97449170423155,64.56866991779268,55.576939071918176,41.861895445342604,24.716710220886647,9.652623472280139,4.8437977456070085,13.987363908722465,29.027891464695944,37.60901593956663,36.969654926187516,31.007761561081733,21.36110665898249,9.601131725197348,-1.6498370279499175,-13.368523989857444,-28.934158298154202,-47.067490178665174,-64.77006039897793,-82.15506555818548,-95.3947433709925,-93.89462367349803,-68.42068161859011,-22.411786934593977,26.981020197351256,60.33506542664555,70.25813071654996,63.013438959287726,50.09950237684632,36.51083467090874,22.152319038565636,11.507195042823906,12.296706599757707,24.43603015633646,37.61591315215432,42.837776273542836,38.77515380089351,28.60434037035807,16.298161911971647,2.369901890386251,-14.543291481293208,-32.49107504117167,-47.84423193516737,-62.42430155088152,-80.82179577118993,-100.5442831144252,-108.66671412759065,-89.87985472618043,-43.06715653576393,13.352888316127581,54.13047072545284,69.28281125646856,69.96509060778396,65.08841357005741,54.44060124104182,65.0,118.0,77.0
61.93067512229394,51.01733435920899,36.03516030493826,25.837208381664542,25.745926299859807,33.20308851028096,43.063931423812754,52.26791968959461,57.03868874759689,54.624887935643926,44.54053347974852,27.505469664231942,8.223706312890576,-9.226777925820988,-24.31984608917142,-38.064063665814125,-52.30918874026704,-69.04687320904942,-88.10272551748562,-105.36305056938897,-113.22380924075382,-99.32442250526114,-58.231203716843325,-4.4958154452995425,38.34962059269023,60.57710097925511,67.88886444946375,65.56156029121665,53.16020593942881,34.941605676392385,21.934205263475388,19.547526668762618,25.086689427433033,34.60165910646647,43.681637348906484,47.17069477086375,43.576801148446705,35.12798250219551,23.989703859501343,11.017418185632414,-4.376789588950577,-21.773295829018746,-37.75808730558721,-51.60566791515796,-64.69729491554767,-77.762760928567,-92.62127123656671,-106.62657124397279,-106.05429683374471,-77.04789207129332,-25.28347001518454,26.569368942131398,60.270470982703884,72.64766564678229,69.9000024997139,58.5136035723051,44.111339717942805,31.17981081526614,22.16531575294881,20.86733865152534,29.4297896439665,41.88308026703101,49.85977367506623,50.534921562353624,44.20985150995399,30.558036211575136,13.23850332900875,-2.0385222769385116,-14.002248770839374,-26.057153302567183,-40.35701798163219,-55.294061136496666,-70.14297445941298,-86.30432282635115,-101.41794773994125,-105.0572002045216,-82.6603653593539,-33.769303710511146,19.57077103170274,55.28489694226937,69.93495600035588,69.60559238392325,58.17391476219252,40.005702774837374,23.247360701060362,14.391814794287917,14.705746478235067,23.101000637482898,35.9172369375856,45.03768480552996,44.938115013780475,37.08318701198494,26.133404085668204,14.742844821756359,2.386092712132966,-12.071649710683948,-29.177848680468227,-45.61476082732942,-58.7291418908676,-73.9386454104763,-92.84960927651329,-106.2806413031949,-100.52049005821388,-67.4089194851058,-16.462277466996547,30.57397911886141,57.94528788525028,65.62709155396382,61.60654831156411,51.09059355566616,36.583207143108396,23.876778920926917,19.51082531709682,23.416557570753074,29.933789362909053,36.34110101064304,42.17607254251695,43.57043612054438,36.6214065753453,23.799044330754935,9.887731467827575,-5.416811506891613,-20.649530282991243,-31.191888061059966,-40.34810624726642,-54.993569291554735,-75.29007261021567,-95.26843468899055,-102.1420907368682,-80.78877265963277,-32.73089477058038,19.65491469263716,54.5942268441852,66.27153171049878,62.54179318443684,52.07794291168524,37.11552272328534,19.795501241664653,6.877245219279669,6.169281070736272,18.34367207002995,32.531139050583775,38.21466356145584,35.659371754446944,28.575654781995215,18.047396769233433,6.241361432083699,-4.8215216707213475,-17.40004273094312,-34.10039522939025,-52.248486861038195,-69.84480530132332,-86.78427394890439,-97.01436044679835,-89.15686733730018,-56.67554685553107,-7.533302143128359,38.90210521074202,65.53340814666328,69.42120853880785,59.44321192983058,46.25808376834747,32.371961978274584,18.338702692826548,10.319196676125701,14.973983634477102,28.670143829993812,40.132993051179845,42.52824265270311,36.266691178027926,25.155220804566035,12.519873355858193,-2.207990665355971,-19.815767975370562,-37.25420960439267,-51.89604625171971,-67.25653378598936,-86.7758512470791,-104.847217400267,-106.45169284069411,-78.73386661506761,-26.59393605561724,27.662553261374043,60.90439606828881,70.31864978270279,69.07388650249257,62.615955286932426,50.46439562131554,36.333774605922684,27.096947729129813,26.217785374324777,30.80405891560188,38.48214559945542,45.76100234469815,44.152250287448744,32.78422664262348,16.95405022744305,-1.7205464564397634,-21.741932061846082,-39.731186351600556,-54.91687529161621,-70.2993685790802,-88.11154775037618,-107.38154292720758,-119.41062191012794,-106.40291849204338,-61.16864137472319,-3.601410216453658,39.716943006855885,61.22089670396003,68.12622742850701,67.80234335187774,61.33557254925205,48.78393466869415,35.75526527458431,30.682177233573334,36.360499899759894,47.00278106209592,53.276672256286204,50.65214126314382,43.12090574239189,35.13407405529722,23.646101434864427,5.7043413338936055,-15.134668568682132,-34.564155167261454,-53.15232427820225,-72.01128726788455,-89.13487621761443,-105.92529394365563,-122.50427693767745,-122.85064505987634,-90.11036134911159,-34.043627672166785,17.403930902290952,48.03530433717326,61.4396222237947,65.43774041543105,61.65512866528352,50.71115799778749,38.52099608980338,33.07680874375397,37.432716025082875,46.98739553810998,55.17345898543719,58.83421615712161,56.298149136206845,47.64049259528184,35.62754580996348,22.36067433328978,65.0,118.0,77.0
50.78347916544927,49.452737269449486,40.96501590015152,25.652059033544976,8.436634693298494,-5.732674829414715,-17.30242189037421,-29.97995212473599,-44.70621307276273,-59.53261367405349,-74.65563515279968,-91.07192013808142,-104.31866018868328,-101.74176450808707,-70.60985519525909,-17.571235095232783,32.2166346677985,61.43424032948248,71.14223028037621,67.3254869756089,53.303809421993606,34.639380698381245,19.732547657591656,13.57443993509143,16.375294640406768,26.650652178236694,39.30860068136658,46.006747999391344,43.271547930100795,34.04691243601607,22.870673695749666,11.327783823268328,-1.5265800054281586,-16.786717773141078,-34.24258564937975,-49.62676365179345,-62.61581663371535,-79.26731021267736,-97.87075484654007,-107.18337594975968,-93.72261406409596,-53.64476959305602,-1.5074422117746185,40.79120375907759,61.865733687550865,65.33488528070231,59.131600920585086,47.143952787203965,32.378051581164016,21.595326867536954,20.006016380558233,25.26086553765342,31.790196467247046,38.18087701312987,43.276340421294236,42.457198405573344,33.24948162594692,19.814818467748385,5.674552007637178,-10.06648551944455,-24.240037342587673,-33.60684612525996,-43.867181140403105,-60.435283941376305,-81.5123487838589,-99.34957913694828,-99.29262098034269,-68.91785264374302,-16.85506791509172,32.13647234874089,60.18396745797222,66.28307644755618,60.01030610925908,48.20000178234835,32.13365123949657,15.232291361427526,5.166064860803595,8.665232148207714,22.86411030912808,35.23304800666626,38.11445024245789,34.00130808224675,25.840335094119414,14.624390920363513,2.9802449780183404,-8.11243611881151,-21.828005410251563,-39.37483508661413,-57.359674054894484,-74.91435460216151,-90.8946790754647,-97.09596994551646,-82.25521310567753,-43.45954740287206,7.106437864563218,49.06034667878072,68.75770059178446,67.40628639943033,55.682741523457636,42.36693021087611,28.1737244402153,15.014306301368231,10.27260705613497,18.465142036552777,32.67616708076572,41.8413087617528,41.47737942377876,33.35280510931892,21.61438335474826,8.56740713511245,-7.0588311556666286,-25.076174731999156,-41.728456040309865,-56.00693004898596,-72.50210430537628,-92.6796394453832,-107.77001888061616,-101.65509065779935,-65.42656764251721,-9.929155891866108,40.062515253537875,65.55779878254378,70.55458546891326,67.78735907881703,59.62832046785553,46.29915821437451,32.8755662047646,26.03030927423712,27.15717168887146,32.73867836177581,40.98304078688413,46.49268684773989,41.62025970085941,28.52221055721032,11.833218864623998,-7.502783192511661,-27.280760646950547,-44.306912128299885,-59.19877987525247,-75.16046374168857,-93.70318941843261,-112.2934463821306,-118.9947115083804,-96.25184440710562,-44.43365507498822,11.141589789486765,47.99490561039082,64.28715308754416,68.6178095463592,66.62258784707448,58.21243112491067,44.67511796427424,33.18240730653582,31.328048328988412,39.34307384307049,49.62159900460174,53.39799715217937,48.67327106371752,40.862675992806295,32.41736321701893,19.073230716282534,-0.27162315251922375,-20.965300263253077,-39.90577247171214,-58.637527274497536,-77.19760402177593,-93.82805552377147,-111.10263045048244,-125.31081284249305,-116.96470360996845,-75.15155837573619,-17.557203155456122,28.512480477870195,53.25685123868389,63.36735807877655,65.18743793455538,59.07203143083256,46.94395429320368,35.97109325609982,33.40651054176293,39.988944798577705,49.699060665584355,56.771595942957525,58.799037751909665,54.329942364712444,44.381585029905146,31.88840408556292,18.3362998007586,3.5263554927178444,-12.531559908255828,-29.46555345451245,-47.762030828678164,-65.99913498134828,-82.04029761259399,-98.65813219920598,-115.79585885599461,-120.80263228776877,-98.39256299195493,-49.775706756237966,5.230556122673531,44.87516435526863,62.94939659687102,67.46685111585461,64.65535439810519,54.16612122144565,37.73985416747758,26.124894274169037,29.31458092297678,43.02188834074173,55.645812570955584,59.81427854608384,55.87182189274081,47.48169847597114,36.63815667362415,23.831962722549246,10.203702572772,-4.310867535220973,-20.823565463515447,-38.17330833067076,-54.49472636208535,-69.60583604186735,-83.53102413492738,-97.76058375663067,-114.9665872094989,-126.97188204031166,-112.40294278790827,-64.36108094099393,-3.9568936365656335,42.88098212858898,67.01618140848605,73.73776924115045,70.32881451842752,59.706366197001,45.16166714392206,34.50409380052678,34.28726019528779,43.225780865849316,54.580340504633305,62.712186399172445,64.87145964874622,61.017973167815384,52.67484137693707,39.164143078827,20.182242682613314,0.9575325514132215,-12.950466099446988,-24.56490939925221,-40.81861284414336,-59.20896596163138,-72.69703625487693,65.0,118.0,77.0
-47.96756041669867,-66.28566532626778,-87.51600644834473,-101.94175175929249,-93.74732102367301,-55.1143231813834,-1.2983139474173544,42.74996467964126,63.86368267402814,65.29258619655693,57.063853072712206,43.94465477838102,27.049394216213017,11.240853106851159,4.6549571845587625,12.136053851154369,27.18863456838468,37.05917316738077,37.44015835350863,32.02436789647447,22.828889207985412,11.177505823507056,-0.19790553048489548,-11.63667383068844,-26.622400999348766,-44.65264358455347,-62.43335777742017,-79.91081257327967,-94.21361298154844,-95.36509944607599,-73.24234492061082,-29.20140068102867,20.978319601183127,57.24946698087693,70.16344639200753,64.53656817789206,51.86439842294177,38.38436837351485,24.01565727737651,12.407140589392563,11.399080081100191,22.488564608963614,36.204034727324135,42.71371080917274,39.763219279749634,30.149425567726503,17.996945927618803,4.386248533462965,-12.14192517295128,-30.20212653856205,-45.95421966935977,-60.32674268344851,-78.1281647697878,-98.21776941068798,-108.87744986021836,-94.1970225608018,-50.41205746782971,6.24419647744012,50.23180140881152,68.437601102268,70.24810275309079,66.05357433401898,56.17035174758248,42.11119166282372,30.007384329912977,25.67164942944162,28.43802132666095,34.92575082962306,43.29010367394478,46.26343472953167,38.39237118577189,23.998249938269492,6.474891370633256,-13.3344286228804,-32.55659658882398,-48.68543140435353,-63.584618184623096,-80.25807651780528,-99.36286902981833,-116.27728307634501,-115.98980143967044,-83.47088336264584,-27.41930232552841,24.15897280308904,54.49137417102501,66.38395327354344,68.62812185344842,64.89525817697925,54.61319009138637,40.731906763711564,31.46890848943861,32.85473509034499,42.522934795651274,51.64953856979419,52.74775789947829,46.46284830785414,38.612832035794455,29.259852916559318,13.95308459144986,-6.346482007861368,-26.606916658506613,-45.24721000977533,-64.13148535903379,-82.1732541963538,-98.60972063765354,-116.1705177688576,-126.17336278257271,-108.05792324366453,-58.80640061230591,-2.178151745047822,37.72130564563053,57.272631350583325,64.65610504010887,64.25800175363302,55.94467732272948,43.27091238865007,34.17111121501563,34.55168730375378,42.799405778325415,52.16155008074341,57.950874483474514,58.201062460677655,51.889460747808485,40.92299672473135,28.07412222692541,14.20304166098414,-1.0070027540290545,-17.33019212565612,-34.59429212827537,-53.19568169900793,-70.82308201144535,-86.6042834577815,-103.866854604727,-119.30262396909272,-117.5161017592091,-86.41863547293259,-33.42729724841095,18.92001996875043,52.09870865819168,65.21608218675419,67.35065326242967,62.46869069963391,49.72870027507296,33.258705167653886,25.426570391857823,32.69774141646559,47.24790337159997,57.836862449806986,59.35149151561665,53.760431864316736,44.58161236275327,33.09896384566173,19.9340422555317,6.164326745006548,-8.872287690495014,-25.859003996781027,-43.027547054405076,-58.97744580893163,-73.74552917248397,-87.45685393603337,-102.44319353034541,-119.81542989469364,-126.3604362628383,-101.45227820348552,-46.84860772636316,11.753661505015657,52.12000945284561,70.3618048632542,73.58947012651737,67.93220185001627,55.634031350948966,41.286660398960194,33.26299474036194,36.18007878984402,46.57571283256118,57.422001865833195,64.01332531887573,64.30176710951945,59.03941835291289,49.38844917095484,34.12076570842472,14.315516891923208,-3.6720350503484496,-16.178783397579455,-28.650996467574856,-46.297542207981564,-63.72622297613763,-75.77065535115457,-87.08419263866338,-102.25899815991492,-116.92780360321701,-117.65903983538037,-90.55864399216347,-38.34891598506973,17.05090498490801,53.2421122921343,65.02534206342216,63.57288570330375,57.14180465813495,46.90488603829692,34.654559457113606,24.103739283515207,23.68551223813174,36.824139639712044,52.53831075819944,58.57809565653832,55.43510500170865,49.27882595866471,41.287067395420934,28.288295990133452,12.04669139016883,-0.9774170472658683,-11.669964692009678,-26.90715415966966,-45.74808769825151,-60.25889688449043,-69.36425393431686,-80.52520997751853,-98.19995495696969,-112.51873397714188,-103.15559316172035,-63.91391829611109,-11.479458798517378,33.53997679055774,60.570152572992825,68.85084493464873,63.537818431423425,51.11738612894999,37.1391417102085,26.54439864663383,22.662595841334838,27.110889569498315,38.59785051376281,51.67126549622419,59.5779815892754,57.85938681559944,48.05483357759315,34.43081027388813,18.781190827371617,2.5380156816778534,-12.592691819950561,-29.412395115481278,-49.521496159912054,-67.28564808466825,-80.35383603720305,-96.82277263991507,-117.65134762334853,-122.79730883998148,-93.35667005953685,-38.87440880803355,65.0,118.0,77.0
52.330224464658826,38.08412553632502,27.84206059638522,25.926305613431563,29.998111098480305,37.32837394759156,45.13694426938612,45.037110652105454,34.64511344814376,19.232675642049784,0.9054266711862082,-19.1189016394385,-37.534835829340295,-52.95719362419126,-68.13419093834696,-85.58591362619207,-104.92134573118594,-118.84587077772731,-110.11132447345659,-68.56846342164899,-10.88284389354125,35.2589466088358,59.414213707747756,67.72047382171264,68.1736285248166,62.59181677998786,50.66949247209616,37.190910266098804,30.705367633499122,35.11980767983277,45.64800762626039,52.94716916182734,51.43606267420833,44.1740999520417,36.277448181716665,25.554554670032584,8.385609307067877,-12.388697732732659,-32.081175593361195,-50.64170000539345,-69.55630961694854,-86.96513670884862,-103.57261068663364,-120.7242009851492,-124.55014042615879,-96.34177143007207,-41.85131531995091,11.63975703398253,45.1523421408179,60.313352410702464,65.33425703090474,62.63343289676313,52.42011047802947,39.90901951813525,33.21853957223588,36.393283395928925,45.68020912020351,54.3056098662726,58.67023476437965,57.0282342873946,49.05601002270311,37.323026825432905,24.183247228666144,9.95166715842725,-5.634520122565283,-22.195103521568395,-39.86488771756901,-58.53688893078432,-75.44950113115411,-91.338101588625,-109.0253200465429,-121.35024080259203,-111.63651832048475,-72.50678453815712,-17.162473099090047,30.873054238854426,57.57562579849921,66.61855698975499,66.68611274557787,59.591854005235135,44.90315054399749,29.543347782113656,26.105094428602435,36.70297931068214,51.09888055886,59.21624781660603,58.28946370677962,51.37002907616229,41.491825884405564,29.411539382783815,16.002613969142647,2.0203994707377237,-13.61962441171958,-30.903884002186093,-47.7672404543028,-63.367146547617466,-77.77870155673037,-91.4812425877197,-107.43577870561587,-123.84204353405926,-122.94307731602113,-87.83998881960349,-29.04167498239709,25.802331443218726,59.44023639849734,72.46900227471731,72.73473190948208,64.96036841130552,51.35545400686749,37.96693168325087,32.99655312934445,38.72239232947347,49.93815706315494,59.896598416181426,64.76547569267476,63.26429560742832,56.72010839085175,45.616780077904444,28.65158294636169,8.618722209956957,-7.768221724242126,-19.40137940649504,-33.26509957911021,-51.75464206887962,-67.70531204213155,-78.78985405754553,-91.07128263839303,-106.99809531571456,-119.31173598235767,-113.01758096983754,-77.32909225418541,-21.499310084982376,30.13384158131354,58.824900241869464,65.39657754670668,62.127250812811816,54.53027086159665,43.46609763894948,31.143349969280116,22.541244549799803,26.32839366623171,41.810334795272645,55.510339524297635,58.318687332974505,53.77929582185713,47.278709704783196,38.142849327860624,23.627189523079494,7.777443137175958,-4.000563684694175,-15.405583506202465,-32.3205992998754,-50.65535692887103,-63.20214339274081,-72.00414397908484,-85.06526591661446,-103.54544083027525,-113.01552019821347,-94.46630726511627,-49.09663546138175,2.983810458227818,43.379958742764444,64.73896476218688,68.40975926375455,60.422539745949194,47.003525001372935,33.544923803192525,24.63455077977913,23.06526308606838,29.88574285794126,42.51385535908076,54.765656298012026,60.12755589008291,55.65090787130785,44.37761668927335,30.087582915636464,14.034622279237539,-1.923013508883229,-17.076565476915775,-35.029603812736305,-55.201744586320636,-71.32600222148716,-84.3518981243369,-102.92982260278795,-121.93668980802764,-118.03331293442099,-79.07777582526721,-22.176285659193482,29.207206372329974,64.46311093254272,79.04993496355092,73.935850210653,59.130193606511384,42.315445249162515,25.896190550261572,15.365659484020428,15.741126852980877,26.352172853115448,41.37563826776342,51.99785040119352,51.313633463166816,40.3659562373951,25.914137544449673,11.08031646122961,-6.462536786297101,-25.425871541379568,-42.01103196257074,-56.33088398313652,-71.42578145553438,-90.58927862303227,-109.89873138083973,-113.49475829998755,-85.04799389369063,-28.78826896683269,28.774258882046382,65.17614746936178,78.90463549895102,78.32233169312886,69.59284571645797,54.74166034102002,37.166728081285584,24.429010818132067,21.88454278317033,27.42686000817998,36.31651283328719,43.722459527791756,42.067834995740185,29.064758921395054,12.621851523193548,-3.2561014387124096,-22.315502387461507,-43.56999000819213,-61.28002129722631,-74.17256220403344,-89.5802020363298,-111.98010717996868,-125.62781014915244,-104.14217901860462,-46.11360876746149,18.06928885845484,59.56927210161495,74.94893839830844,76.20700452662436,72.06755478927067,61.80691087309195,44.0416614132249,27.919347168242147,23.600085934356873,30.53829132962407,41.896655963753346,65.0,118.0,77.0
20.2044292993897,5.580531629548141,-10.339851537018902,-27.145932572622716,-45.25430901224003,-63.6966583577007,-79.96443270072486,-96.29879914347363,-113.81916225309166,-121.48868372905957,-103.14795975778533,-57.16700703678835,-1.5780722407886856,40.90762477050468,61.54842074178229,67.3355403916608,65.43985492031287,56.027071133046995,39.96293222835178,26.909970092750616,28.049062889064707,41.01497467564479,54.372787061502706,59.798502749033744,56.730462128316766,48.7546855199699,38.21231474384746,25.61133323092828,12.04298420190907,-2.2721666261732563,-18.523602022706868,-35.89920233478272,-52.39567334566074,-67.66080325102159,-81.72655620536312,-95.71302686826446,-112.60138998610223,-126.434753766964,-116.44851845388305,-72.124949571154,-11.65643427072496,37.95073557177423,64.99502882019998,73.54280428355217,71.23122695561358,61.467815620213074,47.074009179204836,35.39582260249539,33.676948830598555,41.733220760565494,53.16798720101558,61.93556332578471,64.96258475961872,61.81306200318934,54.04198421244988,41.32199533986797,22.889764464667344,3.268991113875439,-11.396880712932804,-22.846926653424553,-38.35322139450728,-56.95293254372358,-71.20657111558025,-81.94282221879018,-95.42908747509493,-111.49404243182006,-120.12466578192041,-105.76914787573209,-62.30753795064514,-5.0424795499677755,41.15613951718684,62.47172208450383,65.01997932326277,60.34922198839978,51.61157936376033,39.915363739488946,27.893190145189426,22.085935030553188,30.055076450598058,46.60738172552576,57.469912142663944,57.44181221757608,52.00745225612873,45.08135041811294,34.48703488713943,18.839937207294163,3.9267298043735233,-6.970092594365685,-19.690354947496335,-37.87732450054568,-55.000997586566925,-65.7875609142118,-75.04620381804138,-90.17444259238323,-108.19019532962464,-111.01021166913037,-83.39911077410446,-33.7448445895177,16.38908253240523,51.57768530920645,67.39815198665296,66.99957331982861,56.8593851468917,42.88966792125314,30.344371543807593,23.34508575026255,24.19424993144262,33.17140642560045,46.39986125541194,57.26398228669102,59.80614504894253,52.87442073025191,40.47245047403649,25.58725745103113,9.297343580438197,-6.270049621705021,-21.83022648887396,-40.88642818756162,-60.4863004257,-75.02858427485927,-88.91978672572085,-109.22906918203037,-124.22796245031086,-110.10392342715834,-63.27087483858552,-6.054256836932614,41.279364399554055,70.94403939139036,79.2699455404053,70.15357462769063,54.35650792377636,37.37509595738716,21.93866506174182,14.270604978423966,17.929949992405326,30.598235125452362,45.29903475432638,53.09646353725206,48.93689065322981,36.27009377453424,21.73125116026709,6.366386174970971,-12.000869282984253,-30.54071184959074,-46.28406394815559,-60.43286379310093,-76.49596083528385,-96.65213254999523,-113.45006287503638,-108.91713168019128,-70.74492154598674,-10.947312442888878,41.90387685241752,71.1396636613103,79.84218940617264,76.49506226793123,65.87041695535451,49.65956092567656,32.634219978121386,22.603095432676923,22.88398249531234,29.8266216875495,38.90568084435723,44.49474380125231,39.250353377198486,24.269309886785692,8.101340775374009,-8.314126938083723,-28.47246727145209,-49.26737773194807,-65.31429453707985,-77.9331797356219,-95.56469414881404,-118.07171099430754,-123.83844549951311,-90.18338509891427,-26.559774332261377,33.05101159159359,66.2599840862179,76.20889595743263,75.43299650715102,69.92470544890016,57.25117654967492,38.61574774473631,25.277464697720305,24.69584748834783,33.72770475236363,44.81557204196568,50.446894687140336,48.00457481469312,38.32838595045591,21.716174560715668,-1.7970035767267802,-28.274189340214136,-50.12141517159368,-66.45958852307659,-83.96435293807454,-105.82144721743845,-127.69224228656638,-133.60745445816238,-104.27119958069035,-43.07683297589375,21.460850688572727,64.4888247736037,82.86341566206065,87.07593111802818,83.01523474227305,68.26878581624118,45.473876905044314,28.784261124576982,29.613080948675595,42.67992831592824,56.3887311156867,62.718961484127796,57.57011304627993,43.71932437764538,25.331570673715188,2.826884597330404,-21.400660152259682,-43.38684436449702,-63.60794736089266,-83.8095649783567,-105.41644359831585,-130.9011109288589,-151.52560357304247,-140.5374110371956,-86.4884927121892,-13.852986220769596,44.64089554089524,74.81539859191744,82.92593031470409,80.79255788989704,72.0445520864989,56.701802909114534,42.01252763447447,37.380744243423415,43.44645689268895,55.16302442438738,67.80976490308697,74.77006360296389,68.73469384521582,50.982327054662186,30.164187680985968,10.408991874243544,-11.160032212526044,-34.30468082808025,-55.547723884979916,-75.07630827176914,-93.72672224338133,-112.29298581303414,65.0,118.0,77.0
-74.37248385871493,-85.37825022232616,-100.06776508169534,-115.41691009225464,-118.96033548633221,-95.92400126024005,-46.06858252304725,10.41196437260697,49.94650511670505,64.51787095378768,64.12254364373011,58.23309003838049,48.43749046158186,36.311683491662976,25.135851792208804,22.883176226982002,34.57543831371826,50.849322040516604,58.43732098675645,56.13576839234304,50.158905128711126,42.57664781215583,30.34018836849304,14.135207385051013,0.490414415002986,-10.108149358594927,-24.521701732640484,-43.33240395600802,-58.73468836556549,-68.22562363736687,-78.64929329489601,-95.64573171021317,-111.55673886131243,-106.27191111534981,-70.40498589437341,-18.40796233345031,28.469527168175397,58.11174212952968,68.68033749418683,64.78604392457899,52.97827198526168,38.902036787919165,27.620496108462884,22.71822465283481,26.035340187044202,36.829138587802866,50.085778362883175,59.03471975071219,58.65059412066447,49.65641203165944,36.377352088488195,20.95222349237996,4.641879559928001,-10.58314642648618,-26.9345532583153,-46.817103146305016,-65.26277196882569,-78.63947069931399,-94.17569159708808,-115.19250586681851,-123.93026028279483,-99.23591459957572,-46.637815103186526,9.140272712438861,51.87318826356257,75.58892842326874,77.97120818419883,65.86915455144477,49.50610792116554,32.52138798291938,18.656404995553636,14.16052594583291,20.900616237486123,35.03047766499398,48.62205922567853,53.13058420680908,45.82651390981684,32.063832849402175,17.51165988625005,1.3479530207379333,-17.5492711403871,-35.3883835178211,-50.41142222499021,-64.69452847339412,-81.97691725889739,-102.51904259662682,-115.19070506421433,-101.3483300520117,-54.504907057712366,6.211268233503524,52.912416255033975,75.36628085895141,79.80392940273306,74.08779303479007,61.65399492214794,44.48206295402796,28.718434915209787,21.695955865744022,24.433762836453674,32.40949362333487,41.23199737829398,44.296274816409166,35.55077163970061,19.45002892645907,3.596791558597329,-13.747969208402376,-34.698031472194735,-54.52029648819464,-68.99804948352454,-82.16641923647018,-102.1294414660321,-122.79240328458982,-118.50395710918463,-73.53675911809535,-7.441970195133425,45.63333326878491,70.95609470131298,76.6257479376,74.33306229371162,67.15687892513532,52.105461140746755,33.66911582067152,23.783267290033923,26.613882885690252,37.09467337114418,47.23771152030669,50.54881799705861,45.91580475872176,34.2564680557755,15.575629534961763,-9.475597242200445,-35.32091836498774,-55.15902512836962,-71.12300010359517,-89.86402120942681,-112.58790541498999,-132.0404533142662,-129.2274277209805,-88.88308220644271,-23.340006586431276,36.66914211002817,71.96150342550712,85.06075705954592,86.78485763468011,79.96417133606727,62.053977464372544,39.27244287018393,27.14373430222788,32.68238507532549,46.9941535365295,59.25667666060863,62.420502812570625,54.213352117355655,38.803774936262606,19.24740182157542,-4.221334788490909,-28.04887495390566,-49.308436294929244,-69.40813978243011,-89.78823688055732,-112.37293777611058,-138.33930585538747,-152.7915711973478,-128.82948947747315,-65.78732366889719,5.576695775123233,56.29748775836865,78.83686123098383,83.0083345957904,78.99654989694501,68.14479672809678,51.885271205158745,39.416490008479876,38.229587745926004,46.47524002840768,58.938653279848964,70.78873298122284,74.53143893960487,64.47033207819199,44.92032193885119,24.414006615435248,4.489561833974623,-17.86068527342629,-40.71063946606774,-61.290365217528475,-80.56460623602754,-98.97867869322664,-118.14149158597709,-140.61544910076364,-156.95388959565196,-142.69220461997784,-85.33891064106959,-8.700792641410152,48.00123723436187,72.25897912583159,79.33610290236888,79.43626607556409,71.18848374411611,57.43984803094524,47.35305881200243,47.09182414520899,55.707112825993974,68.37909394395341,79.84706156714358,84.26608354378192,77.24511970831821,59.41302422726977,36.68946802034477,15.63094977490401,-0.998701284339116,-15.011696208969754,-32.84652392591716,-57.74615690256114,-81.42954268757708,-95.28826696252233,-105.16509351234981,-123.37864293424668,-149.2022275054269,-160.2301282100724,-128.93741304226512,-57.697498926020984,18.008090079056608,65.92517403135616,81.82793872894422,80.57002047320141,74.86030983291849,67.08644610184732,56.36394226749717,45.99474520903674,44.44750695519808,56.583793891333386,73.12865070345086,80.66605181960516,76.52577861624329,66.57363993797401,55.38879763407979,42.19269251944476,24.79877854074156,2.817897098754349,-20.690413651387793,-38.88845612783288,-50.9732127824176,-64.51792083342997,-82.46137253905478,-99.55366273109045,-114.64608809546861,-132.68575480829838,-148.79223821180307,-139.47001520520632,-87.88117972549111,65.0,118.0,77.0
-29.82941418292048,23.173056056148944,60.878327231162906,78.37598492634673,75.43512995552315,61.29590551657302,44.59427699302851,27.89977863772061,16.19470288683581,15.026026002137272,24.514530476731473,39.425851519281714,51.147078098579165,52.11429424282186,42.176397704570036,27.84825087714727,13.159513477179798,-3.948747341609805,-22.984985556506853,-39.975327636074404,-54.46432205314204,-69.22233118708202,-87.81488708544889,-107.79410698330359,-114.6368002682971,-90.82819774418903,-37.03766390428362,22.05124985842341,61.78124135187899,78.09048456354913,78.95275858867237,71.13402334082963,57.00421558928943,39.410160928482824,25.581199668133152,21.647169090448692,26.40598464276855,35.08357492538041,43.08732474842008,43.02219538146725,31.20797653789947,14.742647559114122,-1.0368321522798292,-19.543066748633347,-40.82435056581491,-59.26502820565204,-72.52860079600389,-87.06731313048608,-108.9188831630634,-125.36540571109751,-109.49400959706927,-55.02198069371866,10.430444420159931,55.72929295895786,74.00240726287461,76.4430179479109,72.87985186260697,63.66813375631285,46.60822941115961,29.507997624388352,23.414643916461483,29.18397266759306,40.42853165888987,49.04314988906373,49.97800299854622,43.249044586374474,29.600207672420904,8.863380536101733,-17.239996249568357,-41.789150654762096,-59.838721376975506,-76.06734852298007,-96.13925579284955,-119.17898051221623,-134.5207035858577,-121.49946688243189,-71.25109563407172,-4.163921027134426,49.65348049276044,77.5241717215286,86.38186960143982,85.82722517561172,75.91659738038086,55.35212563071052,34.02392063320624,27.10969121827857,36.47796414866803,51.11113838969655,61.340790259940384,61.11495646000047,50.27182345441092,33.57197718997798,12.798078818200867,-11.29217474265549,-34.4447486608513,-55.141073216246255,-75.22965794855669,-95.93443250765712,-119.72942117661442,-144.94547213738545,-150.63702071051483,-113.6175517471545,-44.42654992151575,23.127850354494942,65.47623687048913,81.3306570829224,82.48485402085007,76.62774670000128,63.72157395364441,47.40023431023814,37.83903401325004,39.88260146323117,49.84319036222275,62.69086899055666,73.08671027030218,73.0576637330225,59.3818406646778,38.83792619507182,18.752008257655636,-1.684348632219653,-24.60745524168268,-46.888866771293685,-66.9394434276499,-85.972207415676,-104.26904990170539,-124.35104305801065,-146.88882468649538,-157.08358194163532,-130.2087818552651,-63.33026317310663,11.040382791396846,57.91870007317999,75.29165007371593,80.05977942091918,77.96923177007439,67.41971863871025,53.749645917686365,46.1812926323784,48.858020113312236,59.178295191042274,72.06436959066757,82.10443239722206,83.50160189847351,73.01838136389544,53.01818278450612,30.22558700403156,10.360305490862721,-5.1028711246174305,-19.446899189653372,-39.47283484220524,-65.27240654603796,-86.49016723474584,-97.95484657740042,-109.21312058065854,-130.65373441250034,-155.32755874540106,-156.24553442106415,-111.27589041001536,-34.445256268683785,35.458523829166666,73.32098519685542,82.47252581747497,79.10588918280887,72.8893804699443,64.26053003746347,53.028749986945506,44.22520784554395,46.680926469575304,61.6041355704082,76.60230886435755,80.4845665608006,73.94598551633015,63.41662459747545,51.90141528877644,37.65165785461728,18.88262591759498,-4.099897516835642,-26.742988419155527,-42.75121619512856,-54.395290285000414,-69.41338600338112,-87.71915715499506,-103.92574188958783,-119.41221705470613,-138.2923247855708,-149.95124363990195,-128.7968480809244,-67.01517329330964,6.7167172504367345,57.62986973924045,78.50450881427996,82.48186700698331,78.02220513079129,64.21875814929251,45.97746988834438,36.7061731115888,41.786457580740446,55.37971540378883,69.07510785772278,76.4792957613097,76.16019726269738,71.1639593058781,61.130421533293585,43.313581723220715,23.177165933206528,7.242483712180739,-8.253229422254972,-27.563611954310623,-47.405895457259504,-64.60569663358373,-80.42012379937027,-95.94279809709292,-111.53196960828552,-129.26964375729327,-145.58385328249642,-140.19355469663418,-95.52653820789115,-25.211411574125375,37.85751647415971,73.5518223807442,83.5323781709449,79.85689646957076,71.48453743017365,59.71129354809574,45.823958510072565,37.41700793415808,40.965523460783956,53.62559317157233,67.63782067821275,76.29905725284605,73.86884686806289,61.14402598746829,45.95384115462902,33.52142995903961,20.078989133619082,1.0742479386700232,-21.350942246705095,-41.72396149593444,-57.98393857956991,-73.36532108018939,-90.27663841773438,-107.62241873698034,-126.59424136763997,-144.56189945247652,-141.9579014554555,-101.22521042637044,-33.79323289334471,30.189764428034252,69.43024137263835,83.61008320827175,65.0,118.0,77.0
43.52237478378968,50.165782516368054,48.76840926361405,40.01234289264308,24.344256981481138,1.657446471819573,-24.865913743007546,-47.62983487097755,-64.36611446712875,-81.37991176151716,-102.71886079392333,-125.22125320948442,-134.5559298543946,-110.43261059828173,-52.14723724162093,13.766464839703445,60.32907972485924,81.4858656127441,87.00149960381285,84.10196693525873,70.8883839612307,48.536391258092706,30.086977011844034,28.5341577965456,40.68242932414718,54.84441915424967,62.51205890798642,58.87966956558432,45.87404006429825,28.01254592300972,6.029566729486511,-18.2549056412615,-40.60934186382078,-60.937569686756106,-81.08808299623637,-102.34474609651475,-127.36395039831245,-149.96814166500187,-144.63887120281024,-95.5517222193174,-23.296224501603742,38.41753773023963,72.34934810698257,82.63859057481966,81.44259954127307,73.63759009254133,58.95125424489504,43.52709688330224,37.29633792556157,42.19655456730036,53.447791478567396,66.26914607174872,74.4833955248727,70.3622527172136,53.71764499761791,32.86487652924038,13.069281473243468,-8.119092150785502,-31.280687837316183,-52.85582262611427,-72.52269580592156,-91.29566127892325,-109.7052652414722,-130.88303642019412,-152.2279137565138,-153.96258147422594,-114.1072613299331,-40.675932685933454,28.217601296751603,65.23564355716476,77.38872031052998,80.26449023998488,75.72938338459426,63.361815860525844,50.60987667716972,45.914310258282704,51.274155730833485,62.86319919595961,75.5189073752089,83.62373597695176,81.70600307549083,67.96403113812343,46.39940813288903,24.03697054019982,5.4846616071719865,-9.077113649354006,-24.405253975823438,-46.67180410414538,-72.37668712763833,-90.61575896919274,-100.59641725024764,-114.23535339149966,-138.35341112630422,-159.45352505913232,-148.1487767193172,-90.7690151461091,-11.887597832771071,50.02292465775967,78.23580374538747,82.13262761298795,77.47291774713973,70.71658884772951,61.17858574715877,49.86062395279631,43.445992410334505,50.070486213752886,66.61515471275533,79.05272940689994,79.39601193010058,71.06328656270023,60.213840810246104,48.18090671785647,32.72183356059345,12.585604226002573,-11.014932241110122,-32.16963193123172,-46.20104332654681,-58.16986885906617,-74.62807701164664,-92.7396111131848,-108.20469499726991,-124.57040799903822,-143.4325813617987,-148.24425189631995,-114.44125727475537,-45.11167625583969,24.72235514340149,66.30832630110855,80.77152138766944,82.02040977170417,75.02891486843241,58.84520537096566,41.86779710573198,36.81666237627833,45.22752610958387,59.66373629566664,72.04872209283738,77.07727199935029,75.08050328128063,68.96338925210536,56.73673121286097,37.301182228186235,18.12222083160778,3.0441263017408233,-13.473593680547312,-33.47288998024266,-52.647932060569595,-69.22678156806485,-84.9365126998111,-100.38094939858208,-116.34272397734226,-134.71789271326853,-147.41637016376848,-131.40104821311004,-76.44851429923541,-4.91468646549617,51.26468656341959,78.60401742454651,83.33216506041522,77.74220773302632,68.47978015133488,55.68224779015778,42.41900895833209,37.14717065972384,44.027086502439424,57.84847881250329,70.98355339946767,76.88313630999494,70.97753914410397,56.62594031763614,42.0913079511617,30.045027969598546,15.184777494950602,-5.280837266428822,-27.666254267919882,-46.76056100438868,-62.33816416427841,-78.10552929412968,-95.28300110123308,-112.80963522898243,-132.43581250702613,-147.06300906214992,-134.22187973910073,-83.25577638732754,-13.644630315365193,44.464162274184794,75.68271905201605,84.56084873692151,81.62140424347909,71.64425631866013,55.91390377761178,39.02212085818179,28.646808679488085,30.630549045624125,42.88474183551132,56.14818930327743,64.25021053461214,64.84411494548912,56.20789496201288,40.399746020643754,22.249504739420736,5.317322071844043,-10.439508749907825,-26.222529921265775,-41.57731263765203,-57.84527681259145,-74.69625725176128,-90.77835610172389,-109.20750726695518,-128.36639340492755,-129.4760509744193,-91.81542120468575,-24.818332879688874,38.00724181374247,75.41698640242456,88.99763019611603,87.002672168314,72.41236184332878,49.053176692598676,26.833404786986744,15.575672600035137,18.786840110654023,33.189698744962705,48.10181301836743,54.95527361948022,54.32012871815203,46.1140918181948,30.21666635992185,11.012911772499033,-7.164350796801271,-25.238839094434326,-46.01930468180309,-67.02477456415818,-83.47972836151136,-97.7565195783824,-115.58072732242209,-126.69967836398632,-105.79794848980394,-47.152585316841176,21.75518084660388,70.33564447059125,89.5832448832755,87.2149545238867,73.07768203816507,53.78070227843243,33.942865074699746,19.490838377538168,16.361981046674334,23.149605584745526,32.15394838184734,65.0,118.0,77.0
-115.40189996235864,-137.5669755908059,-155.96633826487584,-147.14490643784575,-94.96357641006983,-18.48734298446491,42.45472453100477,70.43148720863434,78.84033212573303,79.85786668897215,72.76562694908284,59.26791051644066,48.191099117555225,46.5293192500579,54.21232416893794,66.64069906828041,78.5966070646131,84.28106618961405,78.88186854066863,62.23395282514014,39.73421149251361,18.1952237988499,0.9741463137390166,-13.09212787763924,-30.020221289823027,-54.22472582545476,-78.77464516471868,-93.94966189807502,-103.58083607328871,-120.27604867154336,-145.93458111690578,-160.7691855524253,-135.90596158726976,-68.3698491286691,9.078984633087149,61.585804245684486,81.08489128655272,81.15807839700066,75.71478078550467,68.2952519933134,57.906984933420624,47.07901743618382,43.841139163566964,54.37924178974722,71.22861097974138,80.4071384983298,77.56733557875633,68.01164425847472,56.93825566834829,44.161187782396134,27.39192699697085,5.958991501182463,-17.72381396138701,-36.91869322694519,-49.464000400691035,-62.40457406819166,-79.9903810260596,-97.46771741673277,-112.56229237472819,-130.0779851618415,-147.48684495126534,-143.1008616610711,-96.86814501563488,-23.224421238654514,40.13243912949668,72.64168709261494,82.0185809224283,80.9238559953636,71.18331617005978,53.3643750221998,38.85049091902447,38.111570463011354,49.16721769751308,63.762564150498974,74.36577587404746,77.06431092442432,73.70507657386321,66.25304952125765,51.65703433961246,31.34274012857886,13.494699816637986,-1.3131001120622476,-19.03775242529304,-39.28568471311536,-57.64428824281422,-73.79208286538406,-89.42940549122024,-104.841922519642,-121.41719648993136,-139.83114487941938,-146.76225129875868,-119.09880395782062,-55.92428075209142,13.951200412770515,62.1271904874564,81.73391329033133,82.3153636297373,75.37530018462746,65.15263263681744,51.566048194562704,39.71383501542024,37.967681458500756,47.67598388906,62.002246949855284,73.7249901405847,76.41734010152524,67.34260003706135,52.13520767849569,38.50494701666793,26.306821605180946,9.774898545177102,-11.810521615964797,-33.66417244239971,-51.47424459658908,-66.72916382927336,-82.99051351753465,-100.2754056398889,-118.22989364293167,-138.00290896487147,-147.18510859446232,-123.06575382103213,-63.66106362081603,5.4292821899253525,56.34672175449446,80.03623717159786,84.57700702395937,79.40751061265127,67.58652891791476,50.8300180312422,35.01877768068841,27.83720944698352,33.47681705524647,47.00940375057051,59.14236678220976,65.29379257137654,63.30550605999591,52.17068828425483,35.1932261402034,17.153477874308972,0.7325595707526587,-15.012110875665712,-30.68925826064822,-46.10793839005637,-62.774610980618384,-79.35698571154724,-95.69237542951655,-115.15022768401681,-131.7292923975532,-122.90820582396735,-74.13192987714368,-4.812064152441452,51.693544148261985,81.37790349301385,89.78517431092044,84.02547880660565,66.2209955088764,41.99821956924836,22.166905778901857,15.029195721297084,22.143116120844223,38.01401325546274,50.99166533054068,55.46372182630866,52.80629971422096,42.19141829030135,24.75100079128102,5.583483518866539,-12.23201447584752,-30.946113827048144,-52.318220884305234,-72.3363854161582,-87.4904479403229,-102.53837711329794,-120.5366432578395,-124.90409696124317,-91.99025405243063,-26.66965643727014,38.738194148058966,78.74591754888957,90.63197710132991,83.9868589140543,67.8150072976106,47.894525055583934,28.891602848210532,17.29620846327879,17.605423341427827,25.85097171094966,34.35016470720182,40.14478566078827,42.54887451027776,37.184933327995815,20.999609302765403,-0.8579428373617336,-22.211846680525966,-41.39151177547911,-57.35721677197934,-74.71818185496618,-99.96101775466774,-126.60754690681023,-132.6260106266212,-100.13888198706329,-36.53635965272431,30.946805775508306,77.48705493087269,95.86718066918706,93.21316762283561,80.6708058940217,65.38379499577299,47.81774084728176,30.075424992531005,21.188050281394954,29.16928396218523,46.62823811649733,54.68378512943501,47.50459633169384,32.91418375845194,15.058690558824894,-6.3887912970866925,-30.488297760230516,-53.21841410647949,-70.26177244191902,-86.89244876782598,-112.4392458492994,-140.3185884514837,-144.03213363545464,-104.08771123274062,-35.83545561699488,27.959602892637577,68.0519871471707,83.35919633601111,82.36909275528055,74.4226525466931,61.45318095362648,43.898099215973545,30.443913508901492,29.70182266582676,40.62810404652091,54.05301883747907,59.48809461666769,52.86304416864318,37.779795568819935,17.47928155780354,-7.026005285755957,-32.219216799047246,-54.23790545408575,-73.70098069550181,-94.95309842941501,-120.59044591274338,-141.1819069263911,-132.0131538277054,65.0,118.0,77.0
-76.82756604000136,-2.339368589159553,52.74868452955802,77.02527223848867,82.48744190103338,79.11857085692726,66.5615292835862,48.169211902717755,37.08357634609964,40.42890893021851,53.39192687602912,67.50860627861219,75.97601615625716,76.54233786529022,72.04137037841733,62.909973795122184,46.03177923201099,25.66091707012902,9.1774475962631,-5.976640428324115,-24.843157835009468,-44.90067785514902,-62.44281677398453,-78.33216742120916,-93.89338435848272,-109.38669982692878,-126.75138791964088,-144.08593162636743,-143.04943311334847,-103.59876565797887,-34.85900546708013,30.84184551652854,70.49244802937439,83.26912045872879,80.72810578081658,72.77148267878323,61.49648282588192,47.565051866725526,37.906919670844104,39.80970781737872,51.69971039593788,65.93777256165389,75.69404724843456,74.90224741327283,63.177872725575305,47.83924018642649,35.08563843462444,22.157867870763408,3.9077900028753523,-18.364326227567233,-39.273880847154935,-55.96120086495141,-71.23547756615243,-87.96811640777844,-105.28554115350289,-123.90923892090007,-142.7890491834824,-144.3636060585027,-108.75474948213716,-43.25090058342738,22.843697431838454,65.83193351120165,82.79331165532481,83.83619508695605,76.64715359281104,63.07970620678345,45.81432937365696,31.753405941944862,28.169109848841682,37.01633791454423,50.97001992772699,61.62548277504366,65.65825489157922,60.96498424467746,47.63956986544367,29.90958756951291,12.224995649859274,-3.8030687124038116,-19.590945015628055,-35.10756956072187,-50.77774105782573,-67.68627488054626,-83.95708580118281,-100.9285281009039,-120.99488087677263,-132.92876097302795,-112.73126241393109,-54.63189381560976,13.959592150741738,63.002044593345616,85.56442062416642,89.44163788075949,80.0082172302984,59.451443122052964,35.33151755948303,18.608280719691937,15.711314740150552,26.290823834105595,42.54172495502214,53.112889494223296,55.414040663023826,50.608209330483895,37.66530643144907,19.156541909797717,0.3116139336945493,-17.377181362921437,-36.92617366567519,-58.50431385312926,-77.16924495542168,-91.49010017643243,-107.72406601344004,-124.43356617563934,-119.76781119699524,-75.26660183640176,-6.2490738820853835,53.43075680133829,84.72914152752902,90.1507853731005,79.9853124891238,62.24950519850394,42.06546027911767,24.466569048215945,16.16358389922304,19.539285731719506,28.529924722924346,36.301746362947995,41.30098477095094,42.05441809097468,33.543140329649795,14.903022134215854,-7.200518501286387,-28.03823309546701,-46.29590329979688,-61.84461618651719,-81.13966837650888,-108.27977203246348,-131.5883632718749,-127.41233786146202,-83.9625099895609,-16.093189245049935,47.232589998330575,85.55317585234437,96.76620022808928,90.15497826026338,76.42326544307878,60.57713013402779,42.422690269815824,26.099320913646462,21.697057958600677,34.060766928625654,50.59161718155098,53.91533298363751,43.709038621834075,28.091352767696115,9.234200471973544,-13.187017931989752,-37.46003115246128,-58.7385079245487,-74.59885479558858,-93.20371444190674,-121.15931716642785,-145.22347058335,-137.00326898737455,-85.81410528735351,-15.694766620430258,42.301711622108506,74.75244328798678,84.26654573958679,80.52931255553659,71.28358811055031,56.61770468611165,39.081029394421506,28.76390267310314,31.962479239444924,44.75674944266121,56.80127129340895,58.75129043292544,49.14666636612456,32.41804802198649,10.733958614859608,-14.447459799469332,-38.98809326806886,-59.96519574908423,-79.44839061710056,-101.9794976243702,-127.9802503648882,-142.70626198651138,-121.21843448683074,-61.68776043490409,5.5457154285402295,52.54508518377912,74.28635548152062,78.50302697355389,73.19715714815068,63.10755831030545,51.76730992948854,42.48696351257741,38.80592471214781,43.55174912895391,54.81658886587485,62.96107560983116,59.073242230524514,45.80015030928028,30.20648643946304,11.995424222544244,-11.020311039627092,-34.95800319368851,-54.65433912711448,-70.82963116561068,-89.9171756600394,-116.0906479077242,-140.05499387814368,-137.6787332835424,-94.58092508223802,-28.540675832610464,30.33456628032042,65.45885503109581,76.96160925179147,72.90052753759544,60.928213847468,47.43868638600562,36.84621126122597,33.61696888750149,39.09739271108752,47.5644906164766,52.5362311121262,51.59833652500238,44.400060045561695,30.9578872225107,11.065967124593577,-12.151484992023533,-32.98352514275028,-49.92298600421208,-64.43491374412773,-78.90121595319697,-96.73419052927876,-114.23104607896069,-112.3003718983443,-72.9516239285286,-8.220562812041543,44.93542211442666,68.27175048811586,73.99897489573003,73.70307667160178,64.78955904044017,46.9050134958517,30.26451370078722,25.764803658985848,33.574523327200794,44.467980951462884,65.0,118.0,77.0
84.25169330331933,82.45482319367918,73.34542983594505,58.22794575409904,41.066122014049995,29.391954864644433,29.616347261247974,40.984921802388136,54.60911369059947,63.55716311073149,65.2816817601852,57.86784246475003,42.744490682023034,24.646191043258504,7.464273461590338,-8.339745512319366,-24.14209855025201,-39.523834959246265,-55.5897445348543,-72.51105921184016,-88.59406593422264,-106.5231223455404,-126.28007003664538,-131.31487884767532,-99.12247644378552,-34.2502081700239,30.913562266536736,72.0003521384527,88.22518644950208,88.0181442137623,75.01354220904385,52.35608085718677,29.320337378057715,16.24744539218021,17.564954881088937,30.954947181862664,46.509780847825,54.52272535793718,54.8022607209458,47.69595214177846,32.65279017788617,13.563012179219896,-4.824774838460186,-22.701569565620915,-43.120314446365974,-64.42315218239733,-81.56652520207271,-95.6973143043636,-113.1213415744155,-126.5377473010214,-111.03369681783538,-56.361685540527624,13.263961945068282,65.59870692332947,88.50897666181655,88.3925680186347,75.371617472881,56.48141843264633,36.430894763926275,20.84640178764325,16.075143657783524,21.944065336560506,31.059679266601144,38.02289829318283,42.140363035910944,40.75570371924306,28.98906478001334,8.542285502758507,-13.408176608415951,-33.66069564294171,-50.90813421598965,-66.65810628471795,-88.33185372615833,-116.37862078247026,-134.18933255578298,-118.72107613260627,-65.64830828011357,3.9021854413876547,61.296370928484805,91.28411205951379,96.17041533713979,86.54269942584774,72.04709360561843,55.53875835557879,37.131168363648115,23.14580495366249,23.7447669784434,39.346713883169784,53.301539968325294,51.961119637647194,39.52405119698306,23.008659300914253,3.098012265930973,-20.16469131598554,-44.176467120584185,-63.71091330720551,-79.17025661953456,-100.44290096883515,-129.68422186922896,-147.30741465823928,-126.10886559217482,-65.92785036701797,3.293149280672005,54.40657597341432,79.4951469521648,84.07616422614551,78.30181173960653,67.66914454009152,51.47372098729999,34.90018722625018,28.286644348615713,35.06637733886078,48.818750677315414,58.64685714138789,57.0023640162473,44.86561502782211,26.646790632141453,3.6718260973806474,-21.808479839206864,-45.41905816970149,-65.55098919263224,-85.46986577752244,-109.40237017854912,-134.5331823122452,-141.03435206582088,-106.98757678973072,-41.43167998470089,21.834122970901124,61.1835683680603,76.88793303241347,77.69042522802911,70.61108095853248,59.81221148268545,48.72472714068588,40.68918639065958,39.25557368218576,46.43210705644601,58.03204239646479,63.19756990500106,55.8258413196034,41.383153433151186,25.38786611185235,5.785163932697979,-18.125966313594432,-41.19919610828138,-59.46712403441792,-75.72555578551733,-96.81410136446252,-124.13350628416545,-143.2091122025145,-129.2292358565163,-76.43925742716824,-9.713836342793023,43.19361987707383,70.89100849699747,77.02481658919707,69.93948214559319,56.961107390061876,43.900472228941155,34.9674178734905,34.446099037243854,41.58860522059268,49.53690996296501,52.9064319026276,50.1534974794814,41.17738871343528,25.83679339896083,4.431400212443809,-18.591225129531857,-38.22709307606062,-54.28764001727737,-68.46658570348774,-83.61311062865308,-102.39644240796997,-116.76095016172638,-104.9862040912139,-55.37502045767312,9.849639091300086,54.56618229654056,70.93164326658582,74.46494473208924,72.23745691789543,60.252331737764244,41.37319233391537,27.45770140167786,27.064826378394756,36.88194134691353,46.826639089539256,50.14429834404727,45.63726763176241,34.10506376684514,16.480794351726413,-5.776519360313886,-29.112541285707138,-49.16285093361528,-64.46217775681343,-78.3667658685315,-96.20515363914852,-116.63969937911462,-123.10404731063142,-95.84143620701215,-40.03369612133832,17.244265692000614,54.04481571456346,66.53982014947651,65.15110431273058,60.53484745125322,53.54359944578702,43.543328980726685,37.1337301789844,39.389846773428005,48.08638757406354,56.967263741001084,58.293160880359125,48.190272455570856,30.56918659054292,12.247361944214134,-4.8894683049408405,-22.740344678133326,-42.07563595529606,-60.80247568053316,-75.7389416713291,-89.90886295389208,-108.82227237963185,-124.07502631124255,-114.23721837463829,-70.2363424267989,-10.233169201742356,38.73813853065748,64.19361699912366,70.12856827909646,66.54530896940743,60.4510289847074,52.52119586441649,44.32322509550627,42.11188948239964,48.27138959216781,57.02345992818922,61.46343681655482,59.78901186684612,52.27426221393348,37.94939224746035,18.57895790593546,1.3523521366502718,-10.545211246574166,-22.901441891368798,-39.59140172344078,-57.11542822361869,-72.97497894165055,-88.17221578375873,65.0,118.0,77.0
33.36832869225397,39.5264363461569,42.547190346578,38.53626658475273,23.662678526765735,2.1008265301210094,-19.4688298873119,-39.02214783053061,-55.33299490036035,-72.0164346835836,-96.18364173610074,-123.6838369965571,-133.86945455131843,-106.70563329168779,-45.9069574947287,22.778781458732364,72.94720351038656,94.87034881631368,94.3701517346828,82.57679939317929,67.52756460764749,50.28924331250205,32.174238780258825,21.472374423449065,27.18964724542371,44.470093931379054,54.58140487697668,49.0760980125204,35.05623428705176,17.637994441265548,-3.3329342266097166,-27.2321386104813,-50.48319244402897,-68.25374053754912,-84.28237164686081,-108.51122427701634,-137.31674256364286,-145.94241482942297,-111.7248843563777,-45.33202196138294,20.625978780900073,64.25466997325607,82.49521011505216,83.05441952760948,75.7301726037694,63.5331013045833,46.253313378450784,31.607954724367016,28.99710900912434,38.781448435821304,52.53178378407045,59.469243400685016,54.35097166978631,40.11391210303423,20.464520443394804,-3.618150869171497,-28.993194655698264,-51.52174065815193,-71.11149886135328,-91.86239906186192,-117.06090064069362,-139.57111153164186,-135.73385771354742,-89.93119145290295,-21.483366949839112,35.96671341811343,67.80038788198014,78.26563520973828,76.24069431998042,67.7160921275782,56.49450318284617,45.933160085987154,39.44919254861882,40.46603263974021,49.739204337162775,60.6760480469355,62.29075220197798,51.99333966607571,36.90610792169071,20.251533091481,-0.8357408021408309,-25.15053910265205,-46.9882187053011,-64.08089434358965,-81.05628375516545,-104.34517094124811,-131.5841252046267,-143.46709078850353,-117.29180113411746,-57.137701735907186,7.838961706708011,53.841657386577204,74.50104626973355,75.99604641664091,66.49377522453042,53.00411622202232,40.693273596175175,33.82922930548278,35.96517512716247,44.1289781797738,51.0979445653473,52.759847965846035,48.18869750497478,37.427378565727544,20.173415098359865,-2.3460109791658894,-24.70303238768232,-43.167071019185514,-58.48872148748631,-72.56746766315035,-88.70123874098377,-107.80794917901474,-117.04912280187565,-94.25068511082623,-36.37255596382702,25.964636929024284,61.655710169728486,72.61016237065982,74.54348142120654,69.8903798802845,55.069928682566804,36.27995789842724,25.871188247625458,29.26465748225726,40.16962746161425,48.59086368139988,49.62502066864438,42.98030913356809,29.600966164310094,10.414991695688741,-12.617010826791162,-35.39134595171432,-54.014909053300045,-68.36926566277579,-82.95265869518768,-102.26197705591736,-121.01502699466138,-119.09973576709274,-81.62853527649514,-22.37633273573688,30.513175781223396,59.86231956948364,66.96082572828624,63.91865162644723,58.90495049266014,50.7818067121957,40.9606993595729,36.87906062971711,41.4614687513236,50.98069195201506,58.42597574415375,56.52166653140034,43.540860351398244,25.1339718035138,7.245683544669989,-9.899915882561807,-28.199545744980416,-47.72725690057897,-65.5389200759353,-79.58484535485313,-94.87117856178368,-114.47374622816929,-124.69385803925758,-104.7053120574236,-53.25010884068547,5.980620234785479,48.56470505427201,67.49179218635058,69.64385047689538,64.91579878251807,58.386990583819966,49.94990628943266,42.79790460992862,43.16497760478881,50.902991575475966,58.931130746308,61.58150552236777,58.24310132913698,48.870711399200474,32.61755290862589,13.052593516069821,-2.494094875499963,-13.741892706235076,-27.340605843568614,-44.77558025933112,-61.85491300763891,-77.36115164864847,-92.71279403675611,-109.69060607514433,-123.89803114013908,-119.02013941285512,-83.85921654298757,-28.74746126008972,22.755434327671615,52.15765518731327,59.95048948473,59.93283208600867,59.02181526133574,54.374956098483814,44.229360105828576,35.65268108367318,40.20085161868655,56.46310233599333,67.70424111971451,63.38931602803706,50.176512948881054,37.46886978624475,27.130613019965725,16.600720210923377,4.335804395601134,-8.644692644315116,-21.074160377438236,-32.97060494087455,-44.94795582649101,-54.96318928458039,-61.99757680766303,-71.88947582906347,-89.80840444430997,-106.50691488027076,-101.81716511506293,-67.90143715718959,-20.051325605182384,20.962684019253008,46.04153661630773,55.501181215715555,52.562649013695996,41.44463412358681,30.089625411425782,25.486596925876633,26.41902916723963,31.795530841659893,41.86373305310547,50.24404754043258,50.33127899572566,43.65853174256645,35.32853976109834,26.692464089744,15.49806751812648,1.4363891428659776,-12.287920211836568,-23.500262016562683,-31.1967435053214,-36.29165399094155,-42.458345062447066,-52.10844278333185,-64.42143759379125,-76.55432389464055,-77.76876861720403,-54.91192409902755,-12.66601604035127,65.0,118.0,77.0
-126.64859943439758,-70.88146621438301,-2.617874177724307,47.833289904459804,72.61106397749866,78.62792413336945,74.26167090383235,64.59743679157083,53.231743522586314,43.479501086512315,38.84818111582017,42.419738109903044,53.227616687184636,62.47469753028376,60.307995375348476,47.80183270586407,32.35221946865173,14.705295290035108,-7.762900752795666,-31.941252706903445,-52.328307007688785,-68.66973527042288,-86.96842559271882,-112.33526352749357,-137.79895495242653,-140.34061786608186,-102.32235629052904,-37.4989125687903,23.68834024491913,62.283454738934516,76.51202710301308,74.05470081292282,62.72910481022131,49.15393600635927,37.93298437312364,33.49608961238078,38.02092845984306,46.538663422594226,52.19525650454458,52.08694777106625,45.71277910565842,33.12903385427618,14.030792218813765,-9.094108400444334,-30.453146360194395,-47.84415091265796,-62.574090350931996,-76.84219070726768,-94.14137108449277,-112.4831769858068,-114.53029511497895,-80.31717875264297,-16.989772834194756,39.57715095981651,66.59005009323245,73.66191462718541,74.11635309848778,66.60859524154179,49.50911434391221,31.939118184519764,25.52508741861202,32.11615272320781,43.20534271017532,49.70902565768021,48.458294777902175,39.76389535722604,24.605462953049884,4.01029138598345,-19.435638810094936,-41.29719640402364,-58.4756720899716,-72.29161922809973,-87.99439872203682,-108.39560494502864,-123.6421133636075,-111.89471543114513,-65.50053197884137,-5.340178093952633,41.687429998497926,63.74586230875855,66.56728648300907,62.6050169951672,56.9864347292913,47.822524573566604,38.89969180943414,37.39428341536562,43.96374959451284,53.707984611557094,59.066271182566545,53.766859391759816,38.43806373503746,19.791170457683602,2.3158269343310187,-15.019228718937475,-33.78451058489714,-53.23677693444909,-69.89821500983538,-83.53589787217336,-100.33032579794693,-119.40575254801536,-122.64430895490575,-92.35234910759223,-35.62157179415653,20.67123292784989,56.323216182233,69.37495735556847,68.61886552680477,63.18366365024674,56.12987822823672,47.45487824888282,41.95394340518563,44.885724051024,53.5450488239723,60.34733164644134,61.200708415859644,56.20658408924658,44.859802610565055,26.96981899439955,7.920036707888848,-5.921521067143688,-17.18267119165769,-32.14856734693986,-49.894874540345675,-66.45041532235597,-81.72721733917734,-97.4219853807276,-114.62585593946874,-125.27143340782716,-111.93724570879094,-69.04024386220826,-12.424374030789076,33.91346615382294,56.09737949462987,60.17573100692407,59.796413805618435,58.244938351602684,51.90420157143245,41.026868138041095,35.29848452982864,44.27498504558536,61.027163598218074,68.02011030431845,59.96226295210361,46.225067814924785,34.321111377950515,24.232786883832606,13.220442202702275,0.5931751930084064,-12.329680253628242,-24.51851649113241,-36.4507197302983,-48.185245958242646,-57.17713930788587,-64.1803238530049,-76.30798993433265,-95.59772610886552,-108.14969706116428,-94.71000049417015,-54.4710447917311,-6.836388218430104,29.941219681142663,50.24765666806911,55.78083832854631,49.92129101985284,37.75957302830577,27.98123316227259,25.338312608470474,27.4373699709437,34.367593276839074,44.8614038171011,51.21427884151948,48.8592027311388,41.25502794458848,32.939457926236145,23.819105734701573,11.62114639727819,-2.708385964990781,-15.832678150455408,-26.111919371931936,-32.80181974039873,-37.791494668056544,-44.8824451474822,-55.458871264493304,-68.21159966763291,-78.74044263758496,-73.89700294221305,-43.89497704177108,0.11131647308410209,35.05765755552744,48.82204165556328,47.4328493705197,41.77383182170714,35.024150323972016,25.07500948437348,15.254755459519545,13.685272722431497,21.828319394411547,31.26267812602459,34.107129083382645,30.7612985022259,25.73774398100571,20.77605145769124,11.74813890410112,-1.7313071257262556,-13.302867502216559,-21.269902350916077,-30.012289557259994,-40.26424713741299,-49.00267560005363,-58.24216201166992,-70.61017810368149,-76.27514615477115,-60.022216199993316,-23.66592329572555,14.978500645365257,40.7308049339715,49.89475502329431,48.59028163611357,42.6585539783214,31.696393635047777,18.034847232958374,10.978349308204473,14.625402408586758,23.357187948583366,30.010457405388802,32.518296933596176,29.77523236885731,20.046405819329312,8.596241608676218,1.1117602322102191,-5.708865598220541,-16.388232996811606,-28.41429958535273,-36.67739056849123,-43.25278737216712,-56.26775822729555,-73.30839135388055,-75.53737818918307,-50.55135576328425,-9.527528869564044,25.008550971258877,41.45143360921208,44.556034983109136,41.2110295504535,33.538277991786686,24.670252861725505,17.511180122216306,13.576253734147931,15.507404894276897,23.047896977038228,65.0,118.0,77.0
45.80837121622798,50.1610142916289,46.666575978525074,36.010843305189,19.144825043979942,-2.6487974302044357,-26.112695076350843,-46.78167201144059,-62.62410150557347,-76.38327151701255,-93.51462581038909,-114.2087026273539,-123.91447953895751,-101.56832868494624,-48.195894033836524,10.487071787505672,50.65318967095406,65.97682231581949,65.6671006590117,61.21685182900532,54.71320817991507,44.854038120258615,37.51625801969377,38.61523830596114,46.75105871423652,56.062676673987134,58.76765024900719,50.12635648224852,33.077875932132386,14.593609120138526,-2.6063837040587847,-20.27106164974945,-39.45305696886084,-58.49165726080095,-73.94421534722778,-87.79531772263681,-106.12352962283748,-123.0206549526758,-117.60541488706934,-77.64200713102336,-18.09254465336464,33.503745352118656,62.12670109413955,70.10648540466859,67.2501002002384,61.34473426883726,53.69091337000905,45.21597050367545,41.88010817809373,47.12050251296966,56.00041298211944,61.23411772588552,60.34251072554527,53.644281901668165,40.25552315247186,21.21027289839237,3.2988641615177636,-9.103606542040556,-20.998005992103593,-37.21052879461561,-54.87516021211627,-70.93502980802427,-86.12117386770059,-102.3200451664183,-119.1043359299246,-124.5508360289103,-102.22521713247968,-53.02396301662082,2.972266739425899,42.903960294012954,58.467199753506726,60.125744111713075,59.60693091590164,57.0419182946856,48.97820501534176,38.24492593907636,36.301353734311604,49.087649275698375,64.67292672382878,66.96415613991141,56.090344443322294,42.48326736038172,31.341118408765176,21.240025645246675,9.690068620509011,-3.1714797123489102,-15.939654080552112,-27.942160173568077,-39.94326101722517,-51.16933854746208,-59.167238663278305,-66.82294639423475,-81.44743895582408,-100.87802343222921,-107.4775202347631,-85.21282994777768,-40.44372859683939,5.372122729467004,37.50263271184265,53.21419416002753,55.102426196168146,46.71915495025348,34.29884533611907,26.538030111936965,25.546773270344854,28.86640582016062,37.29904445624771,47.48616966703387,51.39186899327565,46.94515152477416,38.831158036881966,30.498984678561204,20.662191527586927,7.545195029204827,-6.7311642207874876,-19.142894689278403,-28.401790913506275,-34.24914624895643,-39.48601675979445,-47.61911696728632,-58.995367990489505,-71.89614293871082,-79.63139585839565,-67.758601572172,-31.620557114802757,12.046496042726567,41.22117037716787,49.43522004881613,45.90551627572262,40.024927851928865,32.502396480565515,21.86536674417947,13.672409671445175,15.277816049306159,24.898880047807104,32.89555180317882,33.59396768111086,29.29340481320672,24.39991757081837,18.7915951940661,8.068110088009979,-5.517116286912684,-15.823785348328776,-23.539912703784353,-32.96687649178139,-42.99326320713223,-51.38560354313889,-61.6312533658484,-73.71082693131927,-74.20747724635032,-50.93192692192711,-11.885977837123386,24.143681743469468,44.93807557726108,50.22103243862729,47.281922424042904,40.07055319679561,27.67714289327455,14.922869032987323,11.046423193653185,17.000413698753135,25.68945139926321,31.154417659257305,32.39794261610707,27.61097666852692,16.532186350666468,6.010390282033811,-0.6344899846404519,-8.365595504402005,-19.99212157348948,-31.29627074117993,-38.40033270918645,-46.095000539348185,-61.40664278712973,-76.40815703075539,-71.05885660894491,-39.35879160635715,1.9887249768425757,31.634098457914053,43.31201263076598,44.11079101306888,39.3534553051178,30.918011661670235,22.370765453868568,15.935757291570056,13.44077301112617,17.259018406374942,25.661885377101505,33.39400322129045,35.83815949078175,31.676251586620047,23.523827656937353,14.443885908697244,2.3339682680396665,-13.65899316935625,-28.89286679316057,-37.64987889002988,-41.83095563774968,-51.31491075656181,-67.82367486997846,-77.34655506380425,-66.36289699197306,-36.125280985275246,-0.3819424476514207,26.137618082448956,38.04403634872006,40.04030979469837,38.46722429929894,33.343127933112406,25.43560678369214,19.121962457956613,16.38136409671086,18.411789704168218,24.328494439208775,29.9729107716871,31.281797597430373,28.176835356331207,21.743390574055674,10.074372879588001,-4.304368568593121,-14.454188845715779,-21.28835675475183,-30.545595898709013,-41.462945008961704,-50.519366634088996,-59.93990280404001,-71.47158017120644,-72.75904098519327,-49.10094815374775,-7.532224499534138,28.790328697297213,44.75817586447369,43.460826723615746,36.31799304999857,30.39405020557043,24.551051199610924,16.087829320414517,10.804101092298751,15.939224094820425,27.37472559125642,33.99558221183748,33.897259839935735,32.7182630997382,29.19302787609611,18.0478851479662,2.563086459333309,-8.868560480533166,-16.0776177659569,-25.021133816542395,-35.65317722149164,65.0,118.0,77.0
-90.60130992225648,-107.35817156528613,-122.68607483813733,-121.3748784085784,-90.13117283340603,-36.42321014628905,16.925325667494032,49.71504375817532,59.67247440939331,59.994908009288935,59.264027812590996,55.338902320715526,45.75271198150663,36.23275207556735,38.67742659002841,54.170221144138644,67.07184282590129,64.73566075167207,52.04221800468761,38.993660148183196,28.453397540682534,18.102924169349908,6.044317417497602,-6.925869945498504,-19.469986092678965,-31.37702164467833,-43.39360184010721,-53.84147465279028,-61.08385665512481,-70.11653590103533,-87.10965048935591,-105.08591613453171,-104.21836126696432,-73.72582553441316,-26.394497080399418,16.3520861154819,43.66171344222031,55.02903904763319,53.54743668135354,43.1507518396356,31.28342493964824,25.69886885882344,26.070022778365466,30.76050362483668,40.42036236742766,49.53552219977177,50.82042287370043,44.737351414496594,36.428577759032905,27.936085773103795,17.196943795474734,3.3678333507112224,-10.580489619399044,-22.191557809939184,-30.379678406277886,-35.639838074865786,-41.44935505147574,-50.63536303925617,-62.68405861390843,-75.22790679947943,-78.81607435284971,-59.42627148368277,-18.680913805672585,22.650239980145933,45.519258269959074,49.074949797301386,44.253002206399835,38.15716737643078,29.6577290930717,18.842570629205117,12.97964377733644,17.6021516693735,27.798448681798373,33.858129678237866,32.65115115993718,27.807066071032313,23.049782639187214,16.316110006814156,4.116344574599048,-8.969174172439647,-18.097021739487115,-26.00544199555763,-35.98190068680769,-45.529646082663106,-53.94207473103802,-65.28792222622474,-75.84523774168827,-69.98871444277177,-40.45294436810841,-0.4138638118232496,31.954670762582616,47.79295402837312,49.89225175693237,45.66395113539072,36.99909493774442,23.583279205312365,12.624095720391969,11.992523654714077,19.593251409394664,27.706062021687682,31.962715810469117,31.772808414953733,24.849889139970028,13.096376628587832,3.820153412621393,-2.4943029980399767,-11.404490631333237,-23.56850673125265,-33.75774328388493,-40.1434858667212,-49.688499691638796,-66.62791590295765,-77.69508574484553,-64.21011650999891,-27.32936616875949,12.408452757517018,36.65865835680549,44.29498363099416,43.23141063056791,37.16293421743708,28.306214089688496,20.249964301949618,14.676559923653212,13.867371575511713,19.41758900006802,28.214939687219445,34.7721975559125,35.27478828039164,29.530561420918463,20.996943606466992,11.406540609178162,-2.010379444995345,-18.432465118443172,-32.226398738584585,-38.945461802695675,-43.6299064782132,-55.758253034063365,-72.0867003936281,-76.54379393575805,-59.14859047763528,-25.618672180246445,8.691704540077358,31.020982135313766,39.28047385895825,39.834245222287144,37.43660787739822,31.147318138878152,23.309161892546797,17.91199962933268,16.443763871209107,19.86354407186538,26.205937479818036,30.896539088689604,30.736657214749386,26.71716544477813,18.963819032946905,5.870200998843442,-7.851177482602821,-16.478077837096833,-23.58656540330292,-33.735579135270164,-44.304900027316414,-52.97109287957579,-63.29037830368019,-73.76102598449047,-68.68737989122823,-38.003315838232446,4.50244510368844,35.67339394622988,45.67416563217695,41.532668730107524,34.38700108817557,28.901604146205692,22.306092679237814,13.793975407484675,11.136210336794758,19.094978701892888,30.146146452916376,34.401981161924404,33.52711840787899,32.220560255614295,26.838393724289197,13.611226905048326,-1.3891270186498732,-11.117617987741177,-18.3134121420229,-28.119581533795703,-38.3804624290791,-46.121809479943465,-54.57403775272604,-63.893536983579175,-62.76938632309423,-41.161896307255056,-7.203706882219966,20.57443065033463,36.09556664845833,42.71941899418807,40.10917103188428,30.31511545659121,20.077919812097896,12.41569836043078,7.471208229505659,7.777123727675386,14.071137635251795,22.380980144088515,26.04280503713947,21.465136346187787,13.553864265492162,7.60917587515212,1.2943469778176535,-8.89394400353796,-21.694647288377574,-33.10582166981011,-41.67345627959617,-49.77240128360089,-57.10203760109771,-54.58032991593762,-33.40666735186588,-0.11105404165560073,28.09464572363285,40.07963823033396,39.112669023484514,34.27974911409973,27.6128063269512,18.407163367166557,9.430897206847177,2.8380146190097624,1.216264488855899,7.082618296123877,16.081789934373795,20.583217156919815,17.166344517380747,7.885566975447253,-2.086911317434885,-11.211261719388517,-20.9351977316759,-29.704013288733268,-37.27074071447444,-47.801661964788615,-59.46210592187202,-59.624491175182655,-39.26703008225548,-5.499617797934934,24.235250132486215,39.3064428979685,42.99466170797639,43.562071226002615,41.9294470105191,34.46514011154092,23.479369559698508,65.0,118.0,77.0
-5.708659241960611,31.570761327373525,48.12255971251899,48.051598019232465,42.56157548271227,36.077663665177795,26.55572600890936,16.24529846628521,13.24421107441528,20.429607985879713,30.295568023980067,34.16727215865587,31.403780031735877,26.37321300220631,21.556547220852245,13.305974790822424,0.09266275091053058,-12.02593279052355,-20.264810932302893,-28.699796607015998,-38.943837887825495,-47.92113101784671,-56.80096346585489,-68.98490856650263,-76.54762225518269,-63.62796414681788,-29.073660492285743,10.348455864967441,38.303846046055185,49.46492580174039,49.086840410538294,43.69908806794288,33.460949254408916,19.68649834511244,11.270424366408195,13.663512213607662,22.199832809263143,29.366188102022413,32.428904109185005,30.554072831196393,21.630379358855674,9.929603774961462,1.9265293403945474,-4.614668356091187,-14.762966573387084,-26.955446884364573,-35.82706946492928,-42.16106944793901,-54.04126016224637,-71.41112021627204,-76.77314878582087,-55.265793482405385,-15.081216963408627,21.399534587816362,40.232532750896425,44.60127040410011,41.940602054220555,34.720637558394564,25.785788076574015,18.32487213671243,13.815744034060112,14.864317985439241,21.86206541396909,30.568197341048158,35.62152078628782,34.16073468633194,27.161855964391034,18.42929343165076,8.012190887850407,-6.637776272857258,-22.986048328473252,-34.89419444000461,-40.027413059809135,-46.14990314210215,-60.65725889508745,-75.30553378560971,-73.80182658719224,-50.52233989904711,-15.06578419655166,16.68604965912673,34.66837904605354,39.88722050007332,39.43928494341693,36.04058615289223,28.811615509413116,21.412674177666258,17.023489799319403,16.938354222794484,21.578483504958367,27.938106737910587,31.37667584835915,29.879635489113156,24.97111545517578,15.680560028556085,1.5979338507632086,-10.886304994953642,-18.3715166313803,-26.204439325340473,-36.955071826673695,-46.93321982110979,-55.5890012078587,-66.78170239219527,-74.7153645480772,-62.2863552127613,-25.853896644664218,15.48511327104799,40.6647832022895,45.38814193877544,39.40369386210752,32.65214850511549,27.305060785767935,19.82111426731464,12.013373006462695,12.452204569067936,22.532701678539862,32.245697692413366,34.359716416717575,33.19799004602694,31.386350081673083,23.74104969564032,9.02011163692606,-4.8180190186994185,-13.136691120393637,-20.83424178057399,-31.261595739635194,-40.83783642847975,-48.283455187723185,-57.49024127116118,-65.29844447093642,-58.68232598002026,-31.775127763318636,2.0823997682941506,26.16836069849661,38.86387802802718,42.95688417291909,37.74357401324602,27.14105287296122,17.615962781675133,10.633181113055112,6.9006949176934835,9.072564983556205,16.53988883008812,24.20649867984376,25.504517381118028,19.166927150147103,11.607658788578355,6.04162897758632,-1.209612213476393,-12.4933355416749,-25.288510932528492,-35.81143038998671,-43.94105089842224,-52.204368921878164,-57.94329995482495,-50.44066261288182,-24.32725823857123,9.296507254767054,33.347619159871684,40.689427974287675,37.8517166510721,32.6276112546979,25.137402698431025,15.651545711292792,7.22063290503746,1.6766902899718636,2.180334151364297,9.721486851047764,18.10628163816351,20.4153342491097,14.873632206450601,4.879679300406114,-4.723435297939082,-13.970400486977422,-23.67219182455561,-31.8730357033759,-39.85081378899043,-51.47983533843377,-61.32061261998275,-55.87184651861325,-30.171201779103086,4.238343726349934,30.18785472396034,41.138339170549195,43.244788869440875,43.49911044314886,40.4330490091111,31.359439876767173,20.644835003784934,14.83474440185993,16.53053380791141,22.280648851840997,26.182075833527637,25.10614853596605,18.745605328959954,9.218072891492673,-0.47380589720319094,-10.841809027876396,-22.21652951846609,-32.06867291496844,-42.187627670527846,-56.657544037465726,-71.38279833455137,-75.09208999146429,-59.41126551139976,-27.00921366684089,9.255220316472847,35.94803836381619,47.562355290944566,46.80601796272347,40.35160263109299,32.66863692415101,23.244592120584322,14.543136125880725,11.544976180852137,13.701148660442476,17.508651909403383,21.13231732652318,23.199874655721594,20.007389398049945,10.675822418814159,-0.5716829270031457,-12.345988315723798,-26.743010324485574,-41.96774151452721,-54.827415351751505,-65.81781923431768,-71.85227171062196,-62.76096779211609,-34.98824176862375,1.3930678860356562,32.10733173184417,49.0955037739091,53.12948907008383,49.140003326428186,40.26801939533434,28.497519524949965,17.799052202617858,12.163594059797747,13.027727832999885,18.661944494653888,22.145480095923546,19.38957096262794,13.329892237260076,5.408569521761115,-6.324194481541946,-20.584812442216965,-33.34352110158207,-46.176769700546764,-63.51480164012477,-77.82951612053074,65.0,118.0,77.0
24.45560784110736,32.59709333614211,35.90374107896811,32.556353959772295,24.68217399377403,15.74743076931236,4.217233014746925,-11.431556714692773,-27.14849530138427,-36.911437317190604,-41.18689689490454,-49.497637670139014,-65.62993665243629,-77.09113625860545,-69.13214671632264,-40.83756598912649,-4.8661538923814485,23.4520464567451,37.202905803824265,40.06161284740497,38.83412086686298,34.27119372208991,26.476958564674653,19.780086244554568,16.493700888984623,17.856335825585223,23.447743145000878,29.409962752214327,31.40863503178175,28.76777575002307,22.861489870132466,11.931074264236472,-2.5171099198132714,-13.424508443034792,-20.323802235673888,-29.1215457712411,-40.080288764130515,-49.40404196081535,-58.4914670585056,-70.10864494499867,-73.86327823719472,-53.7031826281517,-13.287567157972784,24.989561755852,43.848458223572074,44.21496361055304,37.26712974617802,31.083498964614403,25.486155906289998,17.245741583347787,10.979734693776837,14.665796123602327,25.918913816937273,33.6061545951998,34.06725298517015,32.884394816726925,30.03392975184173,19.970367273557883,4.532947602607869,-7.703633970069276,-15.122986843528496,-23.644320737320523,-34.31091939456231,-43.0640049248526,-50.64904451918446,-60.37468409780929,-65.45000186767221,-52.74643050769586,-21.78113580938292,10.415450546338757,30.792563431651903,40.95770147333237,42.37212628758794,34.90405793806862,24.10688261431787,15.367364381761925,9.098913723598011,6.851600791213772,10.840848558920879,19.03824198634205,25.466582229871385,24.25978276537685,16.79812589971461,9.885963727261888,4.316648862843232,-4.0872399041959815,-16.228569337108382,-28.66329313205483,-38.2932313204347,-46.2554177184771,-54.49700794876094,-57.64420651056515,-44.61501318628776,-14.580818031921856,17.830560664575543,37.100485250799046,40.4438748929457,36.46417639252219,30.774880391133895,22.468605900097597,13.005167436476036,5.232141334253756,1.0313510545538676,3.7936681574976676,12.432062597117959,19.584462903793906,19.558400478414377,12.191982077707703,1.9541407515325606,-7.327692477087518,-16.79703249713803,-26.257590777403127,-33.98863934036848,-42.81220417289073,-55.077975966591644,-61.8377357488943,-50.30415443658838,-20.306190748834222,13.185065416995961,34.79524412082763,42.227348765401416,43.41546385006048,43.16664709526016,38.37260072267441,28.106053491260774,18.246637389754895,14.589639705720478,18.056007481236943,23.800394864381275,26.441911468233137,23.766283088349628,16.161138677837553,6.376208595054272,-3.3090720872399357,-14.12822524686895,-25.279686854375875,-34.72517457931245,-45.89224467712125,-61.325983543934484,-74.10167293652535,-72.68357175549382,-51.32752337915568,-16.249873592787548,18.38402592412319,40.85171795861979,48.3565208903331,45.22004020669979,38.22809262390973,30.145963804179797,20.39314892688067,12.986833404876643,11.799478724497877,14.755923832359581,18.606106778535473,22.016395028419655,22.983923601605245,17.79918517375539,7.441440844640092,-3.8266854433698025,-16.202586791155074,-31.2540333303856,-45.95744285851768,-58.16148401130122,-68.4590385965085,-71.2014285849132,-56.43140277768322,-24.690257633584352,11.372946271596327,38.54722011670697,51.3824072266987,52.60659966236421,47.00296406347602,37.03851695644715,25.075244618913594,15.548290156639377,11.728030317969873,14.39839801508738,20.224253100624345,21.943935660166794,17.80640148312909,11.312267108807733,2.457060165449879,-10.374282740049757,-24.522577354862072,-36.775831510005816,-50.73083107859543,-68.70178147935393,-78.81686146004257,-64.72559955734553,-28.111585167112583,11.559321528725194,39.149194378140976,51.598882430562696,52.24454977331389,45.04879195397616,33.10942879692317,20.309563844220886,11.80960525631581,10.476097641560036,14.418885192647917,20.145233360174434,23.024318434784096,18.924057862930386,8.652751719789292,-3.445117761347678,-15.583266531980627,-29.649482753711634,-44.11044399116472,-55.963872612724266,-67.77277543174483,-76.61202071327945,-69.10438058764204,-39.70482907128034,0.9471164716906917,37.266243484015455,58.14514599977247,60.82344104112298,50.70104764303012,36.09814326579611,24.65822647777508,18.4348471302069,16.480846582639078,19.870099098851288,27.327903578774663,33.35797719943229,32.642067896853426,24.66809036720948,12.134232470073032,-2.739997010406535,-17.940295455333487,-32.56693406642238,-47.092244544984624,-61.42607755908867,-76.3142469276198,-87.28011103681224,-79.70716853782406,-47.298898026731024,-4.274498917285012,29.133564614663516,43.820051129017465,45.72518323375628,44.430280722420434,40.60583293219453,31.362561119187433,21.64968030658994,18.519600920100824,22.870023477306535,31.649461453582266,38.18821483246551,36.87489919877159,65.0,118.0,77.0
-37.15633547951214,-45.160552744838576,-53.27890832251344,-62.92764520827275,-64.02394773678533,-45.1407143874624,-11.72208449333236,17.63178013812649,34.590619688617,42.338985294612655,40.99138937254391,31.789061959208862,21.292874674894605,13.305381743512948,7.892382176606898,7.357248491765375,12.987428797274593,21.393066168058162,26.034774015059316,22.443272701444602,14.531780667629521,8.314535392149214,2.324687922075495,-7.3093573160473255,-19.98601461023188,-31.768948064616115,-40.62501965991897,-48.64829272252189,-56.41999173400252,-55.91721430022534,-37.24831775546412,-4.634101974534368,25.173476937614133,39.43420837037339,39.619493252439256,34.99212988259004,28.67162779439749,19.694481682447613,10.516847911860797,3.5157830037500655,1.0028706085350583,5.949894322106819,15.000141526269884,20.425275728417695,18.05582782541979,9.27077216068951,-0.8411845083185232,-9.968338794101822,-19.639046681245237,-28.6580432897084,-36.18741017315158,-46.15643960083687,-58.24955961761449,-60.73289180857014,-43.08010883233944,-10.148331766537897,21.038695860664294,38.142731637029534,42.8235977340004,43.535507672026114,42.43349845368747,35.79648002140896,24.895240940071854,16.396512823381972,14.985216989793157,19.77184965802049,25.03686675980437,26.24162246437743,21.99884985796084,13.392762610628559,3.580466451892615,-6.26177726108438,-17.46024019911181,-28.146395871223007,-37.52938856537567,-50.030261318840935,-65.8047977272814,-75.59564906165257,-68.52388698149655,-42.04116060693762,-5.546941822872454,26.429748211056864,44.46214685749633,48.241849576444025,43.34440526980208,36.048784843305704,27.433748022664307,17.739061196197543,12.00247373566783,12.401863680372648,15.868736352895663,19.669827684178117,22.72043492164739,22.213248287985913,15.129278686477052,4.174363010106986,-7.16062045774104,-20.329619464680135,-35.72442752418119,-49.70627758137048,-61.3883326781014,-70.51584865432085,-69.00297701573733,-48.59451199885191,-14.034350442398894,20.555686385154303,43.729848228317074,52.68986931026055,51.535608920877145,44.50266497405681,33.62079539685205,21.8685454050419,13.789256863944749,11.857814679934854,16.073842647145877,21.39523007718546,21.208637219544162,16.064427407636323,9.11063759263138,-0.8631820690562619,-14.545893810007927,-28.23915902921115,-40.35023815006962,-55.737733183455646,-73.27620370221067,-77.64411381714615,-55.75683358169461,-16.052182559546715,21.103677494083342,44.210527002335624,52.805833395073506,50.82423784426553,41.94912169477744,29.279834116140442,17.19772493251648,10.696422197674684,11.22394209178044,16.0606011868485,21.506923315028118,22.633936664267882,16.417862952772918,5.166257169091765,-6.887341607318789,-19.394275404708445,-33.99602558570136,-47.77218026110903,-59.25496414666521,-71.12929174620741,-76.69626803973522,-62.63534129368157,-28.398926321690062,12.496198579583057,45.196370657305614,60.65737844070832,58.870103376826435,46.5508982730347,32.242122409852385,22.38718937470079,17.411000663084494,16.870856865717762,21.795350107680502,29.50549390869016,33.97551324554044,30.98076892522356,21.39641454148145,7.995270517940833,-7.184969729677051,-22.202317579375425,-36.77441910086314,-51.237864934349155,-65.66043741305178,-80.40785624519495,-87.66127621823132,-72.59712666891579,-34.99632642254318,7.076075918202303,35.27576459819459,45.1786096953979,45.444003208745855,43.78031784175142,38.45089779571219,28.210357534550486,19.91184272311205,19.092870441898793,25.172129260107003,34.122362069089945,38.689661368449066,35.058554477453406,25.641891269648433,13.296161297186483,-0.6139303363242462,-14.540450448851944,-27.210795031121098,-38.39588278128453,-49.90733437503421,-64.19219347524722,-76.40807863269711,-72.62501268971079,-43.69897929188792,-2.3667532423593824,27.888458898604327,39.68958960289839,42.40896608391303,40.64504207039965,32.012615437996004,19.057961562890753,8.15662349871815,5.153411505196317,11.3541947271842,21.026770920680033,25.924694384881626,23.4176312720679,17.92846459251634,11.688981510850352,2.433528363010015,-9.699097378284268,-22.458534447354975,-34.57928397419804,-46.704537781842454,-61.85029412693197,-76.40315827105057,-76.07367461222755,-51.904381148504164,-12.280634477607965,25.375108099620036,47.58202785337381,52.74486151050499,49.252633522520405,43.73593588973006,35.02570519470058,23.31897245398845,16.105161860226644,18.920803345338783,28.270255219687996,35.89528307039841,36.508140865535516,28.07071913984892,12.959956508806766,-1.4930238829214248,-11.758265924476179,-21.706875953891085,-34.634777323346476,-48.03292777629989,-60.454514313056066,-74.45215308149483,-85.01133767105317,-78.0219542517143,-46.670191378939634,-2.163720639989691,34.16815661970572,65.0,118.0,77.0
21.905322263692582,15.174034288020854,15.937958552662211,21.51187073284469,25.914260211806347,25.5717786992149,19.848494264241694,10.538904376302366,0.8095794529689714,-9.363190217267208,-20.7441455965258,-30.851214658713026,-40.62792636929962,-54.516311398984584,-69.79430064010394,-75.6241753047228,-62.656215540753486,-31.883855947684413,4.741187398226678,33.243874841389804,46.84736250499336,47.39300070985656,41.31445898648838,33.76941374447064,24.579827847457963,15.443476464743668,11.572951082478921,13.251457193702505,16.99397063012353,20.686803397007942,23.137521206201466,20.8410167956476,12.130274553353042,0.9224312761607448,-10.65759068258703,-24.68347266161605,-40.04649287446367,-53.24894102889982,-64.47276262351541,-71.69206871967286,-65.1241525108428,-39.50802392684702,-3.402212259552755,28.72568337071536,47.67431870226344,53.15854424670364,49.99375524217349,41.672571796799865,30.112817333993195,18.990353256085957,12.55192657467481,12.54054220099468,17.86052093863117,22.042510591554752,20.040270414689434,14.216096184819033,6.649654013742132,-4.5317585593495755,-18.705526107481244,-31.76056888490416,-44.239535806070045,-61.04354347584625,-76.74178826374289,-74.10833576438598,-45.21171025507334,-4.288521406450699,29.40057901778003,48.03491971649155,53.13488945707849,48.835275519390485,38.52156439681847,25.49088691640861,14.577535391848329,10.203966550745728,12.328937187627842,17.767994210426927,22.496685780224308,21.588402936062792,13.476092560658387,1.6455548986179913,-10.345875544499654,-23.427773463479603,-38.26239148602119,-51.19047233264829,-62.6594841659713,-74.02406637242113,-75.03432476720224,-54.379611798511974,-16.539049774540537,23.324245496403726,51.6232056602702,61.684414470186574,56.0289170890499,42.24344085917044,28.810518425432296,20.52393226009205,16.737742253874558,17.74992587920856,23.977371549206833,31.401453377150183,33.92767094823567,28.759342538689474,17.816299903177505,3.702337678955649,-11.600268099537201,-26.423440658864628,-40.98040678533629,-55.36307144319512,-69.98137082824731,-83.95214298581527,-86.05964203735878,-63.468792337580894,-22.324738746527377,17.166387285532156,39.79271356857209,45.743369421550355,45.08448858717658,42.81896012570267,35.810154414694644,25.239588587609518,18.846523789036613,20.253177999269887,27.74890835014275,36.200073366912314,38.456794646244134,32.76310341228357,22.307772797192474,9.37567837475396,-4.705754323102541,-18.36577778097103,-30.56539353878665,-41.54250180487637,-53.75235240981435,-68.43446519617517,-77.64564508713008,-66.75655349959942,-31.93650167957683,8.301988849744763,32.92107028065268,40.961313444941155,42.46284786753425,38.88007837252364,28.452867504941935,15.40353806487496,6.290949288573838,6.1298109202983815,14.179528790108218,23.21609725472804,25.845359736921953,21.908049522980434,16.281253409784583,9.40011904687268,-0.8749374549297102,-13.403386149973311,-26.051697457002458,-37.96179698562533,-50.691317651921196,-66.6198529078776,-78.52097088381305,-71.48514269151052,-41.322001763415244,-0.4318298194777729,33.70496659555101,50.562797383438394,52.187967137484975,47.800367843478924,41.681718569915816,31.72003692803294,20.382840391066857,15.87052998599555,21.306930766930645,30.97193454305239,36.927816704398715,35.01475617056811,24.114788330462954,8.3968026155418,-4.813910610846326,-14.421983160897948,-25.15392399552614,-38.63314265677249,-51.6194127983769,-64.30218265777096,-78.42057263395249,-85.38125680734505,-71.33686250502245,-34.22384334307999,9.964861257639464,41.33578520432915,55.96808317572803,59.30786171116608,52.93265402688624,39.71725307692312,27.546379682585247,21.49411521904889,21.065220245094714,25.9852056857605,33.423064056389045,36.20156050943336,31.62281659643678,23.54091940289633,12.899838945110147,-1.9068370120923486,-17.055250111564998,-27.934189986381952,-36.81313503082606,-47.52500177160663,-61.53346478395545,-80.527343297567,-96.57880175477855,-91.7703815401018,-59.7143381088664,-16.226341451913992,19.45893603483513,42.93748687458451,56.79484537913918,58.68539209364862,47.55185893264741,32.80778336720906,24.140067618452022,21.257227939238106,23.083653417985392,30.5685811886676,39.515372753347876,43.13077293480168,39.59615054076241,31.732526866124445,21.505870136372504,9.110414484178342,-4.733076530605515,-20.312577502422975,-36.365814864299445,-50.47254149688135,-64.93828723075323,-82.951649361202,-97.37248831182954,-90.59167274229851,-54.20955663218092,-3.708249377318934,36.2761283713488,56.09274278006989,62.30136498558647,60.61309112460801,48.78012297186268,30.199743485679612,17.470401881478114,16.001796144681567,22.29368141867091,31.588730854821225,38.165144343735925,37.84184294834266,65.0,118.0,77.0
-78.61132568691337,-68.2010272040691,-33.63619549269072,6.777710892944637,36.37897759639998,50.717362606775026,52.68692797461831,46.346454259080815,34.85360450426161,21.877932560024817,12.538500806246237,10.27522294474774,13.710472898568234,19.429570614753825,22.99107009518364,19.902350411246523,10.222619179245099,-1.8487880676647919,-13.894944918785715,-27.656223910194942,-42.326854562794914,-54.466265199572014,-66.16008394412886,-76.06877965495694,-71.4344891842215,-44.616451849513304,-4.531911168708639,33.145794207460575,56.457979522405445,61.371505068213416,52.50097025556231,37.98913892645814,25.85755608867793,19.01772919783051,16.4606930528172,19.102151635342118,26.27391268401172,32.86484167708783,33.199999993666914,26.05551990741823,13.978560850354754,-0.6939985522283688,-15.955314672824127,-30.628513016465202,-45.17016548584029,-59.50133339133172,-74.33444755822077,-86.53640003701254,-82.23874178616416,-52.692509413461906,-9.832410818719623,25.73642509257747,42.84295990294348,45.80135372513265,44.66216278780929,41.42133201183737,32.81206260001647,22.66055900854513,18.468442460891378,21.937562818994852,30.43175232703784,37.714031599895854,37.522278260438966,30.08542982270539,18.772211384563164,5.355275397838564,-8.758242544056142,-22.061863485341114,-33.800920736090795,-44.79056546809515,-57.8754286726726,-72.27671898662501,-77.1362887018479,-58.7083532862889,-19.703880105404675,17.502757523271303,36.48608477824471,41.77704570571538,42.11252298480163,36.48811720180094,24.66487549082783,12.084573521795885,5.212826751111322,7.840140821300036,17.090204479420155,24.81511916347325,25.17400069467736,20.30287463660774,14.549118118965348,6.795290869184679,-4.375646220940656,-17.10696372354274,-29.570605075885254,-41.39109054567666,-55.02078602442463,-71.12342260442091,-78.97319605859968,-64.8414636961765,-29.814645750646896,10.803055834178847,40.50343321438488,52.217014350050846,51.171227611593984,46.261655746586435,39.264233415022915,28.248233351419337,18.059962421172507,16.531159891456532,24.061753021537836,33.32812958866463,37.29224157886343,32.73311754400163,19.724066217150522,4.096928936725495,-7.78883063315988,-17.20561391005252,-28.876372117519534,-42.55579460984653,-55.155524532805494,-68.35736916524,-81.83794703756081,-83.909542692561,-62.59241728170227,-21.150220396379574,20.887156814435624,47.03970994214397,57.93740062003152,58.449614101908345,49.5214439092449,35.737277222236074,25.132070330558165,20.838329059124366,21.944168152284504,28.167172927223923,34.98967014552993,35.52348983270346,29.474964180823402,20.843164438720176,9.005184034362614,-6.539589894201411,-20.672694536157408,-30.47594470826314,-39.650169159286314,-51.133327693814245,-66.5615212190276,-86.20877348549112,-98.0434764757699,-84.95965471875988,-47.29456921153685,-4.610343839783166,27.355586451024255,47.9220724110064,58.765926245192134,56.58952052522656,43.068948416937516,29.53506258295532,22.8478288887542,21.23156868454226,24.71662419528339,33.33767496241883,41.31485149995551,42.76419810254759,37.62260352688566,29.011783211089323,18.117075138156995,5.249798419392271,-9.042859179029973,-25.044462355395325,-40.6538701201135,-54.393646525496834,-69.81719976615187,-88.17340423885689,-98.35697819222624,-82.88073834935419,-39.901497358903775,9.759964619376095,43.96969203668505,58.86052159047907,62.63658548207182,58.3437661338627,43.59783249848684,25.42879540637254,15.966277249552018,17.231058173972613,24.89803165475722,34.038000269443,38.81482024936156,36.582404524038886,29.423498922479318,17.67548342784074,2.260146353947837,-12.694226661208868,-27.639597150021622,-44.2293650758213,-59.32965694100518,-72.29271803337629,-86.73544978411833,-97.34754421227889,-87.72583280323754,-51.432527547454164,-5.063665207774937,31.24720456971821,51.84715562914203,58.196367316633726,53.929605852096095,43.66084809660214,29.78026189550163,17.542722266571435,14.685000420364407,21.219306066653342,31.144311797208793,39.30707884849149,41.954583026620824,36.48641902611391,23.319594008976804,7.068669891052094,-9.218358363729859,-26.423289001046882,-43.135046334580196,-58.16156377344965,-76.51899757799232,-97.8086773641553,-102.99232711779173,-74.1001846324078,-21.280659583741247,28.467367032110328,58.481064989211305,68.65280947121492,66.59602716790636,57.63391135490185,43.606050793470686,30.771911827181047,24.35392776289178,24.71913492632154,31.7271026079156,41.36008829988964,45.7496778974756,42.17994528933514,31.761192138438183,16.05460337551435,-0.9948469655788661,-17.533533809943854,-35.78923313879828,-54.37235122389603,-68.94930006333637,-82.12683609483388,-100.04965937834538,-114.38173798101828,-102.88197929170335,-60.666554601663336,65.0,118.0,77.0
35.96177127680493,27.103365651284967,15.059937772681161,1.2754312163960462,-12.738015988897445,-25.618588135867952,-36.954191402258566,-48.23307684384101,-62.18697352338125,-75.3560323446057,-74.56325247931838,-48.780638087505665,-7.67257331032923,25.011525675191393,38.885221468303726,42.27534916925008,41.24512991003775,33.53368689684269,20.81130046557828,9.255917291627853,4.976686124016359,10.142980213378133,19.85819565256903,25.735865922107042,24.046870214207047,18.67832116246174,12.646531905958165,3.876358185075423,-8.002032790029173,-20.780807430073523,-33.01287844211341,-44.97209583674917,-59.6512129008082,-74.96969413890959,-77.47177426689817,-56.35331773755486,-17.835351048049638,21.05931006120724,45.710112689620814,52.780020990697025,49.89215487371804,44.582627424520844,36.44967322925616,24.81944676938997,16.52042124215848,18.005309159120305,26.953338612168782,35.21229888037432,36.93153313515442,29.699825297678046,15.105313731438708,0.17454253399710262,-10.532350628403108,-20.220011417565278,-32.79373387133708,-46.33934933805989,-58.74905318289464,-72.53545147063232,-84.30562419978905,-80.37696702322754,-52.039723463667,-8.0504871012232,30.33887327911243,51.453572367997474,59.08426236506135,56.768412100188755,45.67223480762373,32.06604246499053,23.27800607176825,20.61109901855337,23.288930044068046,30.42298670276328,35.97614762491518,34.257664981012006,27.161722697172888,17.876379523725905,4.747926031867241,-11.036187970886584,-23.8695858168486,-32.981737852891,-42.6927578781596,-55.05669744346289,-72.0456079334949,-91.28818009114069,-97.29396239143168,-75.94591752509575,-34.49454154245615,5.986258074178118,34.2946092220124,52.14678021527147,59.614078554284376,53.45810631760687,38.62819502474066,26.908876056869385,21.947558720813912,21.62791669286936,26.831317418503854,36.05164217871772,42.52355271533423,41.82353912646505,35.38046287014305,26.10585864256303,14.556428964705082,1.285221717204382,-13.5204789356367,-29.742751149254033,-44.73887610369508,-58.46669005669704,-75.0347349326525,-92.77464356473614,-97.08288518054607,-72.69779132179411,-25.030487950618156,21.79363475661411,49.961845454604834,60.752394487006875,62.35363648340115,55.11644350954109,38.08232925500918,21.47840509403681,15.394915343648401,18.9905831865754,27.637896794362184,36.10295519862687,38.83390157651763,34.93800130498807,26.542800182549684,13.425207343460112,-2.2278641325648927,-16.853592264338946,-32.342598082894185,-48.90178353583436,-63.1408005531763,-76.24939843150815,-90.83134464814667,-97.34651424786334,-79.62903777370708,-37.98024530906329,6.984331482493595,38.780430279402495,55.042427789741744,57.82275800439308,51.44261698668243,39.908444429119356,25.69082634723765,15.549453820591365,15.845314762498313,24.003160274568604,33.86782104006618,40.78083774653914,41.27525970005126,33.32764312998796,18.703955474805984,2.3801036704568634,-14.075192840722496,-31.44646365593578,-47.53270250956343,-62.846719154860324,-82.87628524058711,-102.09791675547284,-98.30727913383531,-60.14558029190474,-5.505697607726339,39.42717987102111,63.177210757104945,68.95990072858812,64.64643002251596,53.932273195527344,39.42070619304312,28.203351645728596,23.760533217419617,26.113270400497758,34.58903360948118,43.43738980000218,45.488266202200236,39.83820731111293,27.62776363743925,11.082451613026818,-5.757366988494909,-22.557657149405433,-41.352331377030566,-59.06858205395784,-72.5594754215633,-86.76474682828835,-105.48508344338018,-114.54165123361514,-93.21897792532992,-45.460662154741236,6.052058255428476,44.836204795167475,64.03470939055016,65.5326665622946,57.40609367562257,44.65789506702946,29.473569577358557,18.672206029883565,18.812855949939387,28.089284742723876,37.6369039516999,41.894975850403675,42.03339932454843,36.03696471502559,21.255977973280423,4.251679309604203,-8.95058812020105,-21.766624714547056,-39.26278661755816,-59.892952724353385,-79.71759630350665,-98.60340786656009,-110.5630516805088,-97.99371466673598,-53.675802374927194,4.45918517290912,49.26995630278938,69.7877694030887,73.88222888561653,69.35083648351322,57.53997016614554,42.021471187709274,30.775213804811415,29.13449792498299,35.15760352598507,43.7830713607689,49.36706004920981,47.19753675299659,35.44157639171109,17.481642504542002,0.36029417370538425,-13.390276839207642,-28.12440695168555,-46.557253588406105,-65.5742813151712,-82.71986395840251,-99.81853196576678,-111.76451659304598,-100.74152534788955,-57.323806530532465,0.26050923271762605,44.90849371819793,65.41531687005137,67.46197167094486,59.970809469940555,46.06424106419297,28.934303258146166,15.937815704350667,13.18310798184649,18.898326806805997,26.523364797725943,31.62679168958511,65.0,118.0,77.0
