9.328986455602648,4.404432206184324,-2.5702939694174742,-13.475402433421507,-23.73052075264704,-25.920858258479996,-22.715148496092958,-21.709373318073247,-25.98716023697178,-33.97895334067054,-41.820805629884404,-48.093275514313675,-57.44554696789323,-76.00757276144564,-94.0622013566904,-82.7437409145071,-30.75545095375249,31.1882013553572,67.35025856543906,73.76432897631355,64.78720183488666,50.14041472308961,35.164204285318974,23.882469848114695,17.064159643353822,12.866267317841247,8.550866041732887,2.47622016376498,-6.234543222202076,-17.570528049174644,-30.3928582353504,-45.248638691044505,-64.73213451101434,-80.45016114262691,-68.20611596527715,-20.04571773723247,36.506514445969074,69.46237707124106,73.82016821654695,65.52192686191988,56.73177205878206,46.493660282552916,34.30185636478794,25.65688866180721,21.0835300492329,15.851067581324301,8.576999111965991,-0.5953214536200887,-14.620305127391365,-32.44959019841865,-48.692603276679094,-64.69235642720764,-79.67143465999776,-76.02323102908697,-38.35717129057909,17.444553399254822,56.956972709033934,67.26403146619107,62.068571096505174,51.288506612871174,35.11641958623366,20.268091590595503,13.277310747955122,9.523945239029976,2.786325233925606,-4.149843564691727,-7.158327368807801,-10.46931017717274,-20.866645463528805,-38.454434698574936,-58.90553538659698,-77.54813533265225,-83.77383101867055,-63.30940563026628,-16.91933547083143,33.43707133640999,63.20052378428529,66.49051946095648,53.96404419080856,35.8393761300143,18.802266588862352,8.208501966641823,5.323747797129855,8.010180176943749,10.930054711558636,7.288193209403887,-4.644891387795912,-18.5920921734402,-30.969580613043313,-46.362284430129975,-66.08273775626888,-77.00265591316061,-59.214340570956594,-10.551477493598288,43.93231967002197,76.82636721605314,82.1699593099521,68.53932732268318,46.622355451917585,26.142602579508182,12.575918232009714,5.413203412631563,3.094177334806737,3.502720566556211,1.6888727543722648,-7.705695409016512,-23.444042894926778,-40.83704337086465,-59.92472094408112,-80.20786487144778,-87.43303831426547,-61.578808586460326,-7.361291583690481,43.583207600203586,68.06134754471015,70.0391637995729,61.37491931775395,46.13102271480255,28.17884680376327,14.312094919564066,6.375910638851675,2.237562230907635,0.6132926666241294,-2.269821355659753,-11.269683022535226,-25.42061336258861,-40.95464627761365,-60.01594212762831,-80.10922493575728,-82.45969307257911,-48.12115575008,10.831500432009264,56.90474304746482,69.8236228853318,61.521861951751035,51.498682441385675,43.92869128807517,32.16121249721153,18.800481110948756,13.2784708956605,13.739055771324532,9.461305939760589,-4.8840889773199665,-24.049399448274517,-38.63981957205048,-47.67574823373138,-60.27288145916216,-75.91688282489469,-73.37181531025958,-36.42417964490225,19.776326304899186,61.85938262550101,73.72261257116676,66.02717769713877,50.86875759226063,31.710179624049285,12.96408098305317,0.8843272716978535,-2.6089453392867687,-2.689156835015052,-5.539151133045034,-12.191516467482522,-20.957900507994147,-31.083518825337233,-43.86566094679333,-60.66032900214276,-71.13394797873963,-54.826770349585196,-9.296312738048346,41.731638765936026,73.95947128135577,81.04370572749046,67.44017308090618,41.474150583102656,17.888856390882253,8.203508833132116,7.694592967389474,4.281033311768368,-3.2585917424970234,-8.00091459477571,-11.8188503636698,-22.818653885835914,-42.14304036624554,-64.0976905205186,-77.70921050646237,-65.20578336551779,-20.322335698345462,33.65294409325546,66.12999120535343,70.28505678487724,58.354241012952606,40.76318113472762,22.11572453809651,8.489500179069477,3.14108401142195,0.6444099221501932,-4.369172573756153,-10.945241102255592,-18.523551621700726,-29.49299465446302,-45.164431519370154,-64.85434446425009,-81.07847596490969,-75.96442197990932,-37.711254005642694,17.219316015237137,57.31395852146827,69.3352628805567,61.45965880561768,47.02962033274788,34.39474462237427,25.914114998590094,19.547223890495047,11.940276613645235,4.052005898920925,-1.8145020363904232,-9.234718304507323,-22.623541625735818,-40.24150556502157,-59.463157806465205,-76.18302293772344,-73.07955914666162,-36.447398901656236,16.10404117395664,55.04579038642929,70.2407480336213,68.85303701589034,58.035750175553495,42.943878268406394,27.966354357598,14.864578613199393,5.208166953213554,-0.3911199667747617,-3.7559149976323774,-8.84735025896368,-19.991058357427516,-36.396046751063444,-54.704802250384,-70.00172150394668,-67.91791850461767,-35.05950311226397,15.034346690089807,51.68791717328832,63.258590299367654,57.75908885220877,43.840883829936885,27.312657386114967,13.579466088051428,5.283077615206667,2.590190377579282,96.0,114.0,87.0
12.251897231747995,7.934676534197309,0.5164060586092449,-5.406960186579965,-7.722065948865881,-12.583978360899767,-25.386804741977592,-44.24927672728337,-64.77086010153027,-81.31373286248102,-81.01842892349063,-51.91329912291449,-1.5095055905218318,44.86466748687618,66.55866290913272,63.93042866721838,48.990717682861984,30.518919912204286,14.936834308018353,6.627737198439626,5.695277869582773,9.144853172296028,10.793985980945338,4.520931971143815,-8.802166523040377,-22.22668678285954,-34.85225454846916,-51.887347456525156,-71.08015080338265,-75.4554428222687,-47.6380793776786,6.0779630851989905,56.3643433781641,80.94711759298684,79.6984416255396,62.60142763156636,40.18686096835243,21.45635328227933,9.934475597427323,4.300112170715862,3.090512598845756,3.4956803469079523,-0.1379155601836382,-11.838865932767467,-28.41202942345189,-46.062971869128255,-65.96098295214884,-84.65480890953873,-83.85296212661136,-47.696574084153845,9.206351832662182,53.655471410021676,70.31707951663353,68.31955488110749,57.56528469467589,40.92189036440673,23.51996464435087,11.505628893502584,4.849460032768588,1.6003019413447612,0.16319650404384756,-4.12964133103679,-15.054268617511458,-29.781324149307633,-45.95046558454736,-66.2430609374203,-83.73791306799072,-76.54659798393685,-32.10977581053525,27.03100717503125,63.99671270769317,68.60900114933588,58.244181551696634,49.32950354204868,41.14391083061342,27.993684515466136,16.18165387559015,13.234988449722584,13.424402923570147,6.301805579140842,-10.363920429675144,-29.039866235316076,-41.504927739139696,-50.56860744620313,-65.11198359009921,-78.20711067058166,-66.20696682359973,-20.73755694923089,34.69839172134335,68.2653476932374,72.76993545555479,62.17535364731786,45.631135728718,25.959143160916366,8.571955662392476,-0.8979142004226655,-2.6399900406981445,-3.0839519504360595,-7.131712853264718,-14.57893311283045,-23.72723568891171,-34.38833871061541,-48.41349110322426,-65.24647540788033,-69.86698584415392,-43.97159736463765,6.210522989767996,53.61292101857084,78.46681249946072,78.97204174798621,60.66710711685035,33.686460448245185,13.535750589224296,7.696237231880177,7.358362775498731,2.2173625619682436,-5.094315054785734,-8.814007812793577,-14.022521136962977,-27.72051543906035,-48.562035365392276,-69.59355018562067,-77.53867999466664,-55.07528709851842,-4.084446199065144,46.10789814052546,69.8591784550185,67.86841992312658,53.608102316521645,35.27615716237098,17.35962798842321,6.201627310771556,2.4732224137876617,-0.4910263619698515,-6.218554220455014,-12.940095012586212,-21.25152136830255,-33.5187792058276,-50.56943644347321,-70.5332492386884,-82.6773284811208,-68.2024014832518,-22.116735150259732,31.441918151473878,63.57541711865777,68.48763067279388,57.45932537404415,42.99998969841303,31.52908016850153,24.036995025325645,17.542481097409574,9.52848539266126,2.1807971783122215,-3.5190572812967376,-12.453689339590449,-27.453999748471446,-45.67252071961089,-65.02514806813979,-78.34619562322324,-65.79293184263872,-21.45578468922169,29.692655254210585,61.71233211216796,71.14003627286928,66.47405599495528,53.87726850865114,38.48788084463794,23.934995645385772,11.645803017571891,3.215512208785712,-1.4657581114785168,-4.812714422699859,-11.363184619455794,-24.349524876504507,-41.61423773396262,-59.84928687082225,-72.04095348071682,-61.638522921023394,-20.978674211287238,28.079619900331725,57.42908122469855,62.9535271819656,54.332027963002005,39.07676156740464,22.868768541981115,10.59156535864363,3.9615577582068924,2.589693536044016,2.0039901058394136,-4.583163540532368,-16.869616149935965,-30.597867693168837,-44.8433724334925,-61.711084258584364,-76.85943159967292,-72.66003216913822,-35.39771097364385,17.51034492610518,53.71237578928013,63.36830686185125,58.73333228368805,49.470087701748135,36.99168228442712,23.482589785627596,12.561932266979438,6.207675459504101,2.188749863440755,-4.126682109215349,-14.237152795267273,-26.814699431735786,-40.43077242677488,-57.48187474292748,-77.26360241543786,-81.24356960968935,-46.89473072875998,12.764121683639424,57.67410853134052,69.88580477746416,62.651113148936965,52.39832159329651,42.97405651302806,33.71711369252441,24.91419342631331,16.22764608720986,7.6713341775221044,-0.46080828703452903,-9.60442837085063,-20.60986151318499,-33.479525404440906,-51.120810095584154,-73.0344416840922,-85.63528729530572,-69.03442237832748,-21.888516373334404,30.449368044986798,62.116970686687,68.71183066580818,60.677989578034385,46.975053449072206,32.30749822778461,21.20422660935349,14.889173930074147,11.344480948133343,7.094919757658628,-0.593370105386511,-10.891752559102843,-22.004523660181846,-35.85085617594209,-53.27177883120505,-70.05539983759145,96.0,114.0,87.0
-19.153929694351916,-34.20269340092703,-51.36335608763284,-72.3627882878307,-85.25469411717027,-67.2467529847326,-14.75457063984194,41.15872268192163,68.18510390411178,66.16473202630226,55.22621220567277,47.261365649540586,37.831159363269414,23.92792393379791,14.417155714456444,13.483865730979593,12.434618549868441,2.2751013118906744,-16.021575385627564,-33.42477957919821,-44.02529388336971,-54.04079421306413,-69.97800555331867,-78.28455567148278,-56.00398391506237,-4.153714251433108,47.595606300440586,72.08324329561155,70.62463849515059,57.87333033463285,40.10070076132169,20.396247332474584,4.881994585752348,-1.9840921329948193,-2.578707644091945,-3.8196053476756346,-9.017038257807428,-17.09442124053502,-26.610772401889463,-37.970754846359924,-53.31735753183709,-68.85675414037625,-65.85768855205845,-30.929933512917266,21.41719485112111,63.47132386443199,80.91116909618093,75.30557921473554,53.115924293889044,26.523851943844235,10.509394143612697,7.657322175770033,6.510742544960022,-0.054684138732168125,-6.528831522152434,-9.741825782896788,-17.005281560138847,-33.246919151491035,-55.034308382938995,-74.05424654952097,-74.69252318608926,-42.3393185677707,12.050113794868066,56.14659719415366,71.35625567473099,64.48469075280681,48.55037272680054,29.791570986383597,13.21334822984831,4.595214061969393,1.839639625790035,-1.9051288696868476,-8.121578661048554,-15.055891861852862,-24.3243861739425,-37.95274490418337,-56.27747150958673,-75.63726057387171,-81.96421369701093,-57.56685065466841,-5.865101912081041,43.686419905430775,67.4525428158843,66.3088051438965,53.22129845509934,39.251433316104176,29.025545899240402,22.24158557701201,15.3680720616358,7.18033418499011,0.5017454414716387,-5.512521769729848,-16.230524777161058,-32.531598128279214,-51.21985914578836,-70.21326448137212,-78.25121117314181,-55.595167994486175,-5.905277050448067,41.50505314449368,66.4141407552672,70.90048646347685,63.43111606092025,49.49566401055068,34.12198052375282,20.08265689956862,8.764741957330033,1.5502539566484186,-2.4132781003038324,-6.1409043748509635,-14.464533961129654,-29.063620906689334,-46.926969487438704,-64.58056480791949,-72.14669703727769,-52.58999529165595,-6.148045487083184,39.27223623044016,61.0962208226875,61.50052967360442,50.36043835547049,34.2328635956625,18.780899563395856,8.081853704528193,3.106615141975535,2.6860870833788346,0.8759317440809832,-7.7457022968655735,-20.825466119105183,-34.574319557079676,-49.40847966535442,-66.81079838812703,-78.61511719724888,-65.19918806856917,-20.18662946231965,30.73897645308056,58.886989841523,62.85384239974639,56.39718137110128,46.16193921626756,33.029465658280635,19.92156293435267,10.256232933437165,5.024915617524941,0.7467319253442211,-6.6839755444322675,-17.714948967214735,-30.623208435766145,-44.828261090611036,-63.33331557063024,-81.30326778243084,-75.60264131024417,-30.55467517490368,28.783924793403195,64.3726181638653,68.86937733727713,59.60794147965662,49.63907741824002,40.267788670389045,31.13359687994805,22.40870589131948,13.716874060889458,5.30248695008017,-2.908514711580738,-12.624366868031611,-24.05981237483794,-37.93779033122854,-57.32582058586248,-78.57244225819935,-84.46979191187336,-57.80480590562502,-5.8685646455308875,42.363895063116026,66.25966904587686,67.36958200219142,57.07073740064082,42.62602345885972,28.584463119148104,18.94584751831853,13.709310955451933,10.358320443109621,5.266421247754961,-3.423213490532654,-14.00180344938175,-25.59740454659517,-40.60861121612701,-58.51568838011227,-73.38807633517801,-71.41594677923769,-39.749260111889235,11.187683484038818,52.10245503838385,66.53703056803302,62.07438479806073,50.65836254296613,36.20442824287039,24.00419699996531,17.518647560957294,12.016116666992643,5.283825676725449,-0.9056675036598333,-9.577173929397423,-22.89046482950997,-35.572447768307654,-46.18712407100267,-61.583720880315774,-77.83564555643598,-71.41705343745681,-28.34362509281553,26.67916267579632,59.20766356136605,66.0690382547437,61.25862548447112,48.98916948130611,31.40111015962853,18.31407028185122,13.930889411870437,12.608056825250042,8.836107465070226,1.427148476755493,-9.109585895004908,-21.53017071482302,-36.62790066469209,-56.56264234485632,-78.28197429101473,-86.54443020254189,-64.2791071151811,-16.952047761732413,29.179882572892122,54.25798179440625,58.90043100184093,53.67239964365783,44.380890535780786,34.223417822243064,25.85669364656569,20.228327723085314,17.128548133236333,12.822449912527553,3.850950569682252,-8.451896677938269,-21.02978438861435,-34.520916444993794,-51.90732995824548,-72.21818500778981,-83.69482203967215,-65.69202664961875,-15.907629662896701,34.896335361464175,59.20994429261197,59.09420636470678,96.0,114.0,87.0
27.20597958180182,63.57972653670291,70.98091049138685,60.40864890893315,43.26007610267593,24.466266646129583,9.800519043239301,3.515245626584551,1.074317548729317,-3.5521084061169725,-10.047465916846443,-17.36971947869036,-27.77201129137001,-42.796582872565324,-62.150098365766716,-79.69981253565324,-78.53410063965146,-44.438578298362906,10.149216528067567,53.58737700044639,69.17955610149825,63.151701805278144,48.95812011755385,35.842544277886084,26.837543682891287,20.420593826066696,13.044626348233255,4.990473828655701,-1.0797719379281854,-7.940174881228424,-20.508520511412588,-37.77807994131321,-56.85691438837736,-74.59047447214749,-75.40512686574144,-42.93296356335675,9.36587520006858,51.26557674981348,69.38339546902006,69.69546386852996,59.840624218867724,45.0146575473155,29.877063529845906,16.450820312583083,6.246040169254444,0.1669065260520352,-3.3209516691604883,-7.8774653823179115,-18.12917033662924,-34.03768272330441,-52.264793936262684,-68.54899288581322,-69.86715384809932,-41.06291229604939,8.542086618998527,48.29275422968092,62.942184678387235,59.11909951656222,45.97022973317548,29.45506064494557,15.115805032127025,6.054580315710507,2.67222454608554,2.6697118191605402,-0.8915012277809837,-11.284255100545792,-24.80379819318955,-38.624647973707354,-54.25613064232263,-71.54578223306568,-78.18268032263484,-54.83512801859874,-4.464353724031928,41.84164235528877,61.93893833110816,61.544943223184205,53.786003378219654,42.58515025063987,29.06881574722472,16.662208099663452,8.357137327899565,3.9260097013653614,-0.9903100813009811,-9.552971459560247,-21.34683309622667,-34.49963492888994,-49.630090047951185,-69.29719049828728,-83.3403934894635,-66.33736216760947,-12.925325318437746,42.56568846957318,68.2979434372401,66.75885863571627,56.59953642858026,46.9256423578421,37.577575953820435,28.589580724522566,19.900939259482346,11.228126573661957,2.970177894498703,-5.500425777545095,-15.785576380908592,-27.684430888144306,-42.90016492321508,-63.7935410126673,-82.84479311367258,-80.3999357282565,-44.295198901892356,9.767148021321084,52.07892849152336,68.43643534261057,65.12165158943041,53.1327888845796,38.304539733577045,25.265451293514825,17.06510941572537,12.699507163822764,9.213561813432623,3.1082788602964904,-6.4053757836858,-17.161702517783155,-29.504936349617136,-45.63596678484448,-63.56698718527305,-75.33057604361916,-65.43872037243769,-25.82351825628754,25.261680560355735,59.01743318467875,66.51818861674782,59.2159771840973,46.660260913898085,32.13160653375997,21.653377163230065,16.073791326673568,10.105281619391967,3.4520088651715195,-2.9213974134272824,-13.079074421184496,-26.89569027122308,-38.60367621783513,-49.910837480840556,-66.96101696205064,-79.50846274125303,-62.38456748557772,-11.831102847284534,39.22499864173988,63.19396278191892,65.44073009674156,58.533603162278226,44.10224683135834,26.732417001258582,16.2908192374361,13.56347583516924,11.884013222743423,7.063543999891193,-1.347719402474752,-12.536859389207581,-25.504286773307637,-41.85114126887374,-63.07839409821468,-82.98959191481792,-83.58739400968409,-52.19987228359697,-2.276249479486654,38.93747532729069,57.247453545539564,58.01045220577646,51.28433235584941,41.37049726154404,31.571728628805324,23.912423138403774,19.16894670276548,16.23232407893036,10.741372098781722,0.4825582923726986,-12.12883730896283,-24.69050955759121,-39.06131551250494,-57.72645961136889,-77.32176900221337,-82.2886497102145,-53.6858972366458,0.37002536195498403,45.08211795007375,61.014646287594225,56.87297347168993,48.73958657127703,42.748904177348585,35.26906922401928,25.31580511072482,16.82435222777803,12.415739975848801,9.98604444910156,2.795745267522456,-10.232095131228236,-22.189879173637777,-32.306200336424624,-47.943174927553656,-66.96937229790781,-69.79262785552022,-40.34312086327245,9.09107953601853,48.676865464495876,63.05907940759065,58.86599283897272,46.83340463433551,32.23980181490568,18.577543705053074,8.942758911541004,4.232403390600281,3.3626628444370827,1.6889729231206467,-6.985007868675796,-21.757867990941765,-35.28310727373407,-46.353240855330995,-61.80367605186792,-79.15470961919723,-75.80498305187544,-36.22663013278245,20.20326071222623,60.39812894986997,71.52851183389939,62.87882066804626,46.96957104160106,30.535602772918157,16.76896405302957,8.173861096836319,5.413406807761076,4.482532014603182,0.5184150191722232,-7.901117540301926,-19.052056756834347,-31.53484324679522,-48.1079412912442,-69.98891900438507,-82.18022696956747,-60.06478284697042,-5.274327959657363,48.11028921441264,73.60537398908902,73.03650345635958,59.370099105309464,41.637485106876504,25.03537911625881,13.376468688303515,6.405976786813031,1.3366887736341726,96.0,114.0,87.0
2.5663724667961807,2.3252326344409564,-3.286849942205209,-15.071626787897017,-28.77157263635025,-42.82989710674214,-59.33232298065307,-75.47003466124268,-75.08018664265329,-41.9818973982727,10.835859424292801,50.53402486152119,63.242017343253686,59.7084628710443,50.89819361831259,38.79209372223258,25.20562480176122,13.764346066271829,6.8187774753396395,2.773102012708032,-3.058872336455139,-12.702237264674226,-25.075211165384314,-38.50929167760166,-54.89962845782437,-74.93566306674276,-82.64920837982758,-53.69672239429969,4.839339308535608,53.58960110220523,69.83980096930752,64.0208988177209,53.69843040044241,44.22188095772324,34.924317875664045,26.070805397191997,17.387459155213797,8.781375966552885,0.6335687887781696,-8.267885575482646,-19.06234080041135,-31.57060024854834,-48.40612895115215,-70.20932176438257,-85.28015184256935,-73.3020786889341,-29.18044250090445,24.292716581565454,59.477574034761545,68.9473660468053,62.201217324110296,48.955477524530124,34.14013395351908,22.384909906202903,15.510898869779842,11.77175162646509,7.830077971906406,0.6379664188016393,-9.467138050841966,-20.43419556607984,-33.76661032523665,-50.84253143500763,-68.17185740825231,-75.42900626577439,-56.769451514887834,-10.857087018276152,37.726549130134785,63.585918210765605,65.30002010850374,55.97729157268163,42.449983570655746,28.442550187331452,19.76813810954661,14.542492901864183,8.124983565661129,1.7001935922328792,-5.291845576490652,-16.94230177787005,-30.65816448339858,-41.549579283744166,-54.24154147673905,-72.09996584536714,-78.55036878318732,-50.25429305281315,4.669726057903437,49.23267412446472,65.33784457386481,64.15841384705993,55.142597393920475,38.913345119236126,22.72494246895203,14.965242019858955,13.256702406207381,10.870771123867817,4.987820425234628,-4.362273387285636,-16.086435737107976,-29.759897481211055,-47.52753279488653,-69.5848541534414,-86.06052436802518,-77.75192823018452,-38.473055514582974,11.566752172470727,46.63687412424694,58.746188313848535,56.55486406190769,48.62123925282203,38.38514769113677,29.102815447332304,22.220955401868128,18.291888219464344,15.104090073986104,8.225700280570125,-3.0829677281241348,-15.763394958517464,-28.499168478750327,-43.99406220008339,-63.71304622900704,-81.25749077405527,-77.87618466248387,-39.32724934871255,15.724736224648803,52.654393396361975,61.104581895803726,54.39710223260059,46.86142137812187,40.928104629722625,32.50505937432149,22.536406035968216,15.107149626640613,11.771234562083938,8.66184478614389,-0.6179731638059781,-14.06985899105793,-25.016487891278153,-36.000184555804005,-53.70058936081163,-70.51446266495115,-64.67757165529348,-26.837207576692812,22.711505595227173,55.423925535486546,63.197446945504865,55.86974998575105,42.73355229025102,28.03174535987416,15.296188501244863,7.086092477544157,3.7018201958104244,3.2756927313641535,0.05905890716327401,-10.920003941907137,-26.07092469811322,-38.484880464753196,-50.107063341680494,-67.30690022790314,-81.52613035252234,-67.9034708500895,-20.083416202730614,34.60367920304233,66.450330632862,70.42912602080789,58.6135453360279,42.10818875564855,26.16772871901046,13.656506989832293,6.866731173985683,5.213247114288738,3.788075458137822,-1.4916530292294774,-10.95410497876696,-22.4891752275339,-35.69549059880726,-54.139949811080804,-75.67357108590093,-80.04222272783254,-46.438860096628524,11.987089814327728,58.72485219108441,75.55653628212634,69.91668680109731,54.40449798393861,36.51956342854519,21.067292585341512,11.016461439049335,4.8132812393218805,0.14011782917135968,-3.171807108193612,-8.296551372102392,-18.671059740915876,-31.586242398586062,-45.54056949415836,-63.49806876497736,-78.68669328192794,-68.51652241483346,-21.312067117824053,37.662697108358145,72.56649550716213,75.63160769263698,62.27850201407477,44.46615343159432,25.76582033210236,11.21038886492619,5.744647436608563,5.890946852218355,4.077630301901193,-1.902124067915449,-12.75861630951324,-27.262402587933856,-41.96429576422565,-59.34754662036342,-78.92524295640206,-80.50970710558728,-45.08432281725681,11.118175362800137,52.40192774350461,65.27833256793429,61.236764800869366,50.34995048356597,33.84575999304998,16.49012769626964,6.14274515702922,4.179995724243921,5.539480437214111,3.558470604607539,-4.045146679470932,-13.762869156575253,-22.603544476826976,-34.461510294999044,-53.08223781687192,-67.31161810553868,-53.41264502336092,-6.587537964136304,45.32313763579874,73.85647281556753,74.39927234556134,57.01964252900977,34.9392284739372,18.296675518546433,8.42587805549758,1.4308579370550492,-3.53166303897902,-5.546827411570237,-8.811459075974815,-17.19674248518921,-29.86049208051978,-46.45240021911232,-65.88832613486679,-77.04856705928908,96.0,114.0,87.0
-71.99711535581613,-73.26614976818863,-45.61427082763204,4.335349127182628,48.10273658019264,66.03189409742565,63.23510022709505,52.40810460293946,38.1599097337102,25.273276702717972,18.19160162626016,12.852136967864391,6.162665261436127,-0.05706313464793129,-8.114130224797742,-21.0043442759713,-34.095427797930455,-44.643539780855235,-59.16291251219646,-76.36442561401843,-74.44666469093659,-35.65884592329831,20.135685167515344,56.63023678332627,66.08452076244872,62.30614022995023,51.07479724209346,33.71501403727854,19.51426388581635,14.17128748452743,12.856462559260285,9.549720513674563,2.616490212901712,-7.574335894017141,-19.772879447153972,-34.36778127251857,-53.630115492453704,-75.71195273694758,-86.97314339941032,-69.11992431174619,-23.815275197951728,24.02173000823835,52.29661804747721,59.066826119419424,54.66607724869247,45.75042425870034,35.50302835442536,26.831738155577096,20.79641536833522,17.499325858728557,13.635420338733525,5.311096450878752,-6.750302162656435,-19.366138299678706,-32.54936075835784,-49.324925993122356,-69.61866982874103,-83.44155438312708,-70.26283530639401,-23.4592358233039,29.35620348545883,57.68328874566531,59.93379318180818,51.94510146071338,45.167520236548945,38.847535946895,29.592339546898824,19.987432651669288,13.768056020671061,11.17788940831883,6.749462882255199,-4.423872482578098,-17.61621449140028,-27.804879119924834,-40.36447830737094,-59.504158894482494,-72.08252758719274,-56.65620552588609,-12.295466691078872,34.760305231082945,59.959068934982355,62.09752935167449,52.428659309072,38.499770589873116,23.993845132082065,12.410256051553537,5.64082991199533,3.451207854265887,2.956472559294911,-2.2885970480451414,-15.23425169124522,-30.079366336320206,-41.57712024044094,-54.433276556025255,-72.71530833995192,-81.43089688979704,-56.877523479186756,-3.3623440329249776,46.902281706636245,70.0590800368995,68.03315396429106,54.003032000763376,37.304197323720594,22.087188886229267,11.038064665201478,6.027090965916924,5.0213197236808345,2.7447501397834326,-3.868950678597667,-14.16950126167005,-26.027978262062543,-40.321788932436476,-60.57696124478705,-79.95616481039698,-74.4628004770467,-30.555858201985693,28.110940892147,66.65243840964597,75.61483590839252,66.01812567187352,49.25453400644952,31.610157344501875,17.588309429365687,8.98265086629073,3.3219360145156926,-0.9127802872264026,-4.227053260139333,-10.767267167950918,-22.338075243438418,-35.38632241577938,-50.28001941132943,-68.9634081932719,-79.44221865623116,-58.2582596491917,-3.655471113883305,51.24775347427214,76.22732321925898,72.70301782841713,57.36364461238336,39.01519687350023,20.82648612141746,8.657693583009335,5.5849427216792265,5.778714902005891,2.7825860997486744,-4.49706372569474,-16.758307897396723,-31.52871619111966,-46.471308617570344,-65.2774946557325,-82.48719319837299,-74.1365021762791,-29.366302341052062,25.83614507931052,58.78643897142167,65.17928884398651,58.66700883145674,46.10207591776693,28.527694660250056,12.557501075050794,4.852334107625879,4.547119483850651,5.537855010215442,1.8652630543275457,-6.858834745469931,-16.37275940695991,-25.417747055726892,-39.25513904632334,-58.643603993859365,-67.07681705185205,-42.50025844860261,9.500001082678303,56.630666736944576,76.5746318078542,70.6478331915689,50.549927698683625,29.33136104229829,14.903354186677117,6.251903354039462,-0.30011254673201343,-4.3358041595070915,-6.092548962125462,-10.690656974900566,-20.479427355530053,-34.21722380432054,-51.995525008735186,-70.81341785722037,-75.81524919136304,-49.46650840413235,2.3423994254985105,49.18822153810317,68.2999820439052,63.837356296786936,49.19258685587361,30.74516362822229,12.778531473263108,0.9273805752726425,-2.448459377799687,-3.3699357820268174,-9.676671240312988,-19.79551455879992,-28.95625913461922,-39.212647298987676,-56.638908156026034,-77.53879586635004,-80.5614411761911,-47.18081029840738,9.216039276340283,55.29406701404842,73.69073358480826,71.01557249710106,60.22891323364972,46.895481987363794,32.286436773142,19.3297159696947,11.13285597948347,7.045952784047485,3.2771333507328158,-4.629262051874748,-17.262422487611136,-32.94201434861087,-53.43776179711592,-75.99353939004794,-81.17548994772247,-52.06439869423381,0.3493889034846688,47.28861123105739,70.49782411777058,70.22755213345721,54.53216170349042,33.01391810311967,15.181125036813578,5.268877209465503,2.896872281511906,3.38410295133882,0.6361947734003127,-6.038684523671927,-13.436319795840138,-23.78758574150313,-41.54703538212669,-62.99285659061191,-69.72812594786772,-42.844631154857815,8.1638056140474,51.98362576940211,69.79374106769063,62.85822029969447,42.8443788943538,23.012201425174272,10.739903796976987,96.0,114.0,87.0
57.9490844151678,49.69070246823979,43.5277885690679,36.464837369609256,26.64968433290535,17.742196557038426,12.776240550158509,10.436142238269698,4.188208064263989,-8.402643250125873,-20.818249648369786,-30.793817900449763,-45.41542780943871,-64.83588396839927,-71.15971001969103,-46.004226817941976,2.450088996879779,44.79755079219388,62.488796216893896,60.05524580987728,48.65813124383397,34.21129355924893,20.21327803656128,9.939875916227782,4.590739820709367,3.376459659739842,2.2174976775477004,-5.35211804844821,-19.70563825587026,-33.72083916552477,-44.777914894562905,-59.360510323615316,-77.42027136487185,-78.3330027590951,-43.21631163234504,13.009407665904675,56.7381634947585,71.50006616889576,64.67187501579483,49.20844504881191,32.62905068159611,18.355167359128576,8.952500184535634,5.54916951274135,4.70332240923326,1.313112629062058,-6.566321587461617,-17.492947251913574,-29.738007151894823,-45.51317073088387,-67.09167830460956,-82.10155363634739,-65.3735107285794,-13.359328844692458,42.33960570853325,71.97162768759529,74.13881088666709,61.56233089214125,44.035833953296105,27.01858643786441,14.59964163167307,7.180904909736401,1.935198755295915,-1.8486375849569179,-5.5706067744502095,-13.71036040366929,-26.08752275163792,-39.314965012655044,-55.440539693566365,-73.85535844573312,-77.39878300225728,-44.92392493899641,13.992918335371849,62.081933191477816,77.40760207762285,68.86971249408793,52.23782824360543,33.54242842959422,16.406813859740446,6.938993508690378,5.700593905753834,5.346387924923298,1.1467228554561406,-7.540063112903688,-20.973691289816824,-35.74252679167338,-51.360125611568556,-71.24559017413274,-83.8239565178446,-64.42435316609604,-12.730507505805473,38.46001437570589,62.82852323351992,64.07768738634813,55.64057054041596,41.37624768605051,23.343680672401238,9.375419348942716,4.212905841009928,5.023773667337894,5.104637258388224,-0.286207574009473,-9.717693784685968,-18.88369838479677,-28.65826714650609,-44.64398909528199,-63.35840724583091,-63.869342508128184,-29.08597374800092,25.084666504399248,65.48961394385141,77.08012753684052,65.70349632627367,44.02016605117765,24.359402112802723,12.010037555586665,4.213531661183879,-1.8185321673091497,-4.900067885690091,-6.904397842211762,-13.033195203752616,-24.071332347033547,-38.92467349807943,-57.71787980922191,-74.62681767042575,-71.78771066215195,-36.02897001744377,17.860398054893043,57.84107394368261,68.77218904150534,60.23541995608204,44.093163382050975,25.266011948596216,8.495627014646644,-0.8192483555711373,-2.5244592518578335,-4.502033926221313,-12.488313516042425,-22.606432782563168,-31.528120988024614,-43.344761070193925,-62.97633861925329,-81.43929575966219,-74.78407995991924,-31.811458956617464,24.878871304415814,63.51055420022947,74.4434816373648,68.32043457185743,56.57431048739677,42.72868658562793,28.18882322242216,16.424679030879965,9.647867088477547,6.150567040015457,1.541133154946013,-7.883564283332496,-21.48586195291387,-38.23607455066818,-60.30455753718129,-80.37686980049924,-76.40783118661096,-38.11338699307095,15.662052665565746,56.710657165642395,72.51053413525368,66.89593683912075,48.434190392709894,27.184464002656426,11.444707260172311,3.935192738624282,3.041658587856123,3.1049742453159954,-1.047783630276493,-8.147000192869562,-15.875601257239673,-28.080554157750242,-47.90181240012439,-67.54212032616961,-65.7029328443288,-29.296892422066566,22.84294545879704,60.03895625620285,69.9416906304669,57.779248256122735,36.623848305498804,18.568216455679043,8.679915696216966,4.222178625604492,0.6709139062168086,-2.734477155924995,-7.853172483656239,-16.94357496277776,-28.02857679353455,-40.590411416805395,-59.64986582057633,-78.99218246168613,-73.41838600383328,-30.34837194563639,23.902209838726847,55.83412451532036,62.853052110431584,59.00835656969541,48.6771472639325,32.629502381044354,17.633162034267272,10.095621345274,9.407457532971561,8.30635466484351,0.32272649961375305,-13.237829513647558,-27.587501045620655,-43.28934421661823,-64.56049822431447,-83.57490682300228,-76.66875252557259,-33.81565678898526,21.008683959582324,56.546365162252,65.58710408095341,58.91804665191086,48.11365902959128,38.46359007017528,30.85683034799933,24.399597416014917,16.1837223235598,5.872007513460556,-4.608896131383544,-15.492159644263541,-28.785643513111708,-45.55425476600375,-66.05827208460465,-84.77998234918591,-81.95274460596916,-42.95856911485874,14.796555769229682,56.20546783267313,67.06794721470445,62.11422380606517,56.03926151569385,46.46436566254121,29.87289853304758,13.409398723396071,5.493917333831162,5.13845444647787,3.1453060884698143,-5.89581304565611,-19.932489948714753,-36.30475762347786,-54.29392063184917,96.0,114.0,87.0
0.6738505096197193,-2.742196025852452,-7.325935230053926,-17.039803866234447,-29.85001175109535,-43.49545609080719,-60.92371339553882,-77.56342814245096,-72.10922840425613,-29.158016236849274,30.603805678363017,69.94110696249865,76.5654433179639,64.45035477027704,46.949033584648426,28.167897109809534,12.669453243132384,5.975495465283082,5.859400004309468,4.559382497850296,-0.8496386879095942,-11.021046999280498,-25.27791528304414,-39.972713141104954,-56.72143192805921,-76.73636390979546,-82.30112736693474,-51.74835479830803,3.800174013741543,48.60216248155411,64.88460832273667,62.26145510349713,52.13588301541006,36.27679336301871,18.528576542718906,6.983424723749579,4.098150043260768,5.4264590247656415,4.167542783569257,-2.7988518280810757,-12.514132073350781,-21.399693358791115,-32.47805346950117,-50.4031960878282,-66.54607535019383,-57.44905897682327,-13.922011873858517,39.361297318415126,71.79666757425302,75.6387947793784,59.89560682413275,37.71019945896044,20.059653003522858,9.493091979313142,2.281857815535973,-3.0614015519521436,-5.342041651198487,-8.10528613900246,-15.79627787000142,-27.96259792610925,-43.996174679575944,-63.38605569658605,-76.77233675801838,-64.79573391575524,-20.940785405164807,32.07844129555916,63.87612969139371,67.6258214812834,56.05958527132288,38.7609732480794,19.94782656127165,4.870279194514223,-1.8635460548018294,-2.637470917607364,-6.222533122001995,-15.465179372278268,-25.25942808564194,-34.325533030223504,-48.22961466840198,-69.34460228154387,-83.15957983941917,-65.70303131883229,-15.235738186249318,38.855679188497895,69.26899397618263,73.78053731735166,65.2228065084645,52.75321492268696,38.48266109366393,24.33280392414601,13.96555015598743,8.454132924559032,5.160359933227302,-0.6335648946085997,-11.492252415898264,-25.92969804116674,-44.03710108468211,-67.14256098834072,-82.66579997262141,-68.54589429049045,-22.807878972262827,29.783691567333562,63.90955221632865,72.7204668366336,62.477475565217674,42.11327489374543,21.858875472974905,8.418153112401093,3.1849225783473036,3.267636929838933,2.4187382569627953,-2.9891348515590423,-10.247734253143626,-18.695817151635985,-33.07940972775288,-54.355114027226364,-70.25724931004058,-58.53173606224789,-14.352136546127936,36.11669865080648,65.70388759922828,68.19689559737907,51.95916509969257,30.710146187101245,14.86340250974736,7.0868328662239675,3.19367847253408,-0.31719862113568886,-3.8801916844875324,-10.081701635403599,-20.087549190467893,-31.32510551561555,-45.28488550431471,-66.09375971830683,-81.13786899610736,-64.35557553453897,-13.990043509285439,36.204486430000166,59.78872931572765,62.41563917844024,56.74130472691942,44.429830980380494,27.813303937438853,14.558759155404436,9.428160436420194,9.5201182190741,6.8102498466909065,-3.258270622691135,-17.42706919124687,-31.7723838973714,-48.81983470615519,-71.18096041981717,-85.27797883367234,-67.51152968431398,-17.563481020866686,34.108758179771215,61.570442248705916,64.67003835664093,55.85963550403018,45.12836085715332,36.05127194602758,28.986642485899193,22.312091451176183,13.3261354415488,2.8155164893581066,-7.633881422772643,-19.00355660021214,-33.26047683425472,-51.113476941056916,-72.27354676038239,-87.23993107531116,-74.31602322844438,-26.637050125203935,29.72976656202666,62.206264236463696,66.3132654910285,60.30972415419276,53.963985595836235,42.25374739677642,24.629687791248738,10.060548046871736,4.953456726187768,5.14112764141927,1.2573408870033398,-9.596331587260636,-24.486929970844734,-41.33370481772783,-59.68951288112263,-75.1295791012479,-71.51827986340525,-36.78149619348527,14.205749559228664,53.746896418554385,68.39608281036564,63.02724862248225,49.05205707928327,35.213572160287505,25.619285379769202,20.303806171838183,16.424595508929027,9.217650515175128,-3.5422975203946283,-18.08127682723899,-28.30810936966858,-36.6527753432764,-53.8711078521466,-79.89025305473207,-90.82990609088512,-62.107451876833494,-5.636673297322189,41.67754479558103,62.417252260934134,63.54625003652206,54.21037199826735,39.8883424429302,26.290769716004554,17.21102183852341,13.279221159374988,12.703753923172336,8.898434368444324,-3.9241623090141426,-20.263200436761807,-32.29307462840254,-45.48391528789955,-67.38116700313144,-85.38715080675485,-74.71871867121406,-30.33121767359933,23.583991919840383,59.00141939734174,68.93440640747868,65.32762664455021,56.142492402544704,41.591701155913945,27.198195298427763,19.072856144553942,14.36979608720626,8.524187901474459,0.8214428562149709,-9.653638665147847,-24.01562947605269,-40.81471556593057,-60.53290912816356,-82.01453513162004,-88.51251956432243,-59.91863550485049,-6.456509617973404,38.56561197300602,58.328913089496794,60.292258950277045,96.0,114.0,87.0
-76.71262182087321,-54.913355923263694,-5.026227948420864,44.33220097008441,67.42454514073013,65.2516949102584,51.443157071594285,33.287104430178964,14.94026213781989,1.9914875887900827,-2.3526817164176173,-3.03506771116375,-8.484473144775286,-18.449935958674278,-27.797882291488165,-37.53959116893669,-53.844497770298084,-75.19481007403927,-82.10479017324303,-53.61478967698492,1.6100035961949772,50.66285615424224,72.76167542266134,72.06827287539166,61.8532272307984,48.776704543304,34.226767183914006,20.816101357934492,11.935348959832528,7.463610676536789,3.945114289238383,-3.2659700824801776,-15.386775552108215,-30.64851523304379,-50.36545723494581,-73.44080275665428,-82.32554541636269,-57.83570682440158,-6.939021904202283,42.22016105815725,68.9058910481436,71.34121262912554,57.192801135842295,35.831955675259074,17.136746013533013,6.102948233627285,2.90561548587362,3.399699966239314,1.2944758601638924,-5.065326969397377,-12.398007687465801,-22.03836420605855,-38.74478696949414,-60.45323429430339,-70.54636753934756,-48.395380696907125,1.106337189397172,47.48109256208533,69.02097700361868,64.84979179796298,45.749208211022676,25.297813695459617,11.885856975276633,5.808526342802565,2.1641113867811335,-1.2795454515168976,-5.25848856707621,-12.664612568545332,-23.3018276543061,-34.803795585796664,-50.68309567516825,-72.18494556597115,-80.44632244931974,-52.19370272382269,2.281713226495665,46.02129357142847,61.96295976204081,61.3934376165897,53.900808169026966,39.77455966817495,23.303811328939045,12.216238054333195,9.236313632578415,9.373999341267247,4.635846792744029,-7.185215540815008,-21.5774694754912,-36.167293560438765,-54.91920098313296,-77.21126885631261,-84.14476755437641,-55.41892702842779,-1.217698395944983,44.984944686996236,64.48476150691891,62.786132327332695,52.687863534490496,42.29870628450363,33.81743482894641,27.164523552327147,19.996993706304167,10.337846024768103,-0.2150086896601355,-10.727389094441751,-22.771209851430417,-38.0296648411122,-57.00595886320706,-78.09062350813876,-87.2680706862014,-63.51682662373659,-9.539835400952139,42.44442368848645,65.66512257981789,64.79941984243744,58.600310561314274,51.39206691846356,37.46974337156022,19.665794389991945,7.580656362799511,4.8977198923221925,4.746644284876034,-1.2560569939571438,-13.618396624527758,-29.192836644359737,-46.50440366300165,-64.94385654379568,-76.93549877842061,-64.57559282042897,-22.45166334218775,27.80906609428008,60.59001140258347,68.40209604017541,59.407136570421,44.76472289046873,31.945566438402313,23.71321214765432,19.235807077270806,14.877163010973813,6.0545220674918125,-7.868530245141802,-21.61790158765979,-30.48360966387196,-40.30514354804245,-61.121997173533714,-86.05678031208573,-86.94853721369209,-47.068858806140774,10.382075151759949,50.3489324042821,64.25556729141744,61.65455775367043,50.34654512657284,35.642718037223624,23.136846888928947,15.560621597829247,12.95927694677456,12.323662375777593,6.118741970734629,-8.77276866553903,-24.232286593433457,-35.443197158381714,-51.00752776353459,-74.09345604701855,-86.11138610971732,-64.69677440437228,-14.292744850689203,36.54861584878598,64.13015650739332,68.68918672063985,63.215078532183725,52.40587595585504,37.01786116367059,24.172016316474725,17.632577381896965,12.884073316253135,6.486471060783793,-1.8299410694122702,-13.43627167620184,-28.680177787818813,-46.10180365409731,-66.9366838194711,-86.5651009161323,-84.17758764821093,-45.62876909701424,8.723035315980061,46.86518477924811,60.09870382169706,59.373302423151586,53.58459260673643,43.904869427759714,32.37043310888545,23.275123313950036,17.762701833394445,13.478773737004706,7.235180881887447,-3.7825430395952213,-18.627676397020434,-33.2350922441774,-47.48713967018512,-65.87982038367205,-85.54639496808619,-84.06279326032832,-43.874667161569924,12.880498817899623,49.531841871144145,60.30187090833021,61.076832590534714,56.18374843814688,42.40827573084935,26.361014408392442,17.01943223298884,14.707916363907364,14.547234136275875,10.708687217707476,2.0310763939755834,-7.943457112045987,-20.313566035417168,-37.52149460723268,-58.229783385129565,-74.93895405526422,-72.46591962013053,-39.987549268291744,10.71561235759984,51.98475768400525,67.00226731055689,60.68092397219956,45.81357414715239,31.192199815278308,20.037436173093734,12.346821327205088,8.5639062423124,8.464039972389514,6.746208296172718,-0.5871102663815891,-11.598264668182141,-23.944545170331125,-36.69318215264292,-52.04313543448774,-71.13333064191548,-82.39154176645187,-65.93583167500896,-19.64043286389318,32.546477583000716,64.84307046786623,69.6627144716555,56.06575614412303,37.668840982515164,23.381510610577863,16.28602205668595,13.407375784955775,96.0,114.0,87.0
9.562717165696352,4.703983287566692,1.1374934395626561,-2.2578168632139155,-6.951539882633896,-15.541965494401293,-26.53310346130839,-38.644501264461816,-56.71734873599557,-77.22993574185823,-76.44194567867667,-37.62323792856436,17.481604845430947,53.29267825517582,62.80326108998722,59.87485801578629,50.460164359026614,34.89525737899785,19.282690709612822,10.606018176141928,9.32886686105158,8.776020607223726,1.8159422115859973,-11.30799454308495,-25.689444116100994,-40.92976692887924,-61.466100071093216,-81.98862153123359,-79.79725048934299,-41.01200076120391,14.325166464045402,53.45430431471393,65.59160966861523,60.240693940540694,49.53564162220387,39.634636611473866,31.756088906400425,25.299649895313053,17.439017253457884,7.285408579834271,-3.22333792788191,-13.9479025242132,-26.820822737610968,-43.10527766417639,-63.168140556133984,-82.99412784147329,-84.36729497886583,-49.9603782953696,7.345933998840746,52.509358923516324,67.01091812370066,62.973673503955084,56.88370116291996,48.179392473492804,32.30929586533805,15.225025843330934,5.968103849445104,5.06367760770436,3.796166345553263,-4.322294150898696,-17.891992425325594,-34.03111962290208,-51.812119996659725,-69.76050609386618,-76.6224096946871,-54.92849888399411,-7.423035731671589,39.810208822163304,65.24113322491935,66.9946262238137,55.34264959494667,40.66203800536449,29.081950461372468,22.139360910953705,18.188211942947618,12.928692002494676,2.4209599299070867,-12.185002241299063,-24.660700352737,-32.69489992895876,-44.99850829505368,-68.89381376321015,-90.14531528074298,-79.33966189460791,-30.477441061946905,24.7119257362747,56.7246514100047,64.75134097319877,59.05281193420527,46.18690364925681,31.606498618483812,20.409951961674864,14.34116474350043,12.845668818659773,11.452449822588807,2.512914471591731,-13.642774403910325,-27.725924460959554,-38.99458702114025,-57.33371591350792,-79.92423073863903,-83.83247273781978,-52.07701075587236,1.7419090377186692,47.3858052507359,67.24395815827107,67.69196403571414,60.68924863297581,48.217126716830236,32.68624310737307,21.744063383662507,16.322722635523977,11.232985909000574,4.305747808980277,-4.7634685262643295,-17.544689563964134,-33.49347787880647,-51.70200867418923,-73.38353405824336,-89.24838207872844,-76.53864612316181,-29.935397643800343,22.35378971778485,52.94501354555146,60.735262654928164,58.096361888187396,51.17197027220591,40.573905391126516,29.343117027535982,21.386611498142905,16.530622807033982,12.026524161844954,4.605666145285665,-7.855687334367496,-23.003705408986885,-37.2282948474878,-52.19719449141208,-72.06357384832296,-88.58481180158203,-76.26910143218407,-27.322559344703,26.554156333650532,54.65584143586448,60.99579120590594,60.46235978412174,53.04519833260659,37.49866590276451,22.78577387882101,15.801867269702237,14.704068366545254,14.02542765709329,8.537697137518515,-0.7900530393960257,-11.110063388814432,-24.769484363583857,-43.32068048575139,-64.02525540923274,-76.9439262776151,-66.15529055049306,-26.06941431504062,24.770059166380097,59.1539518771862,66.79277486508141,56.76187891065282,41.328388814133824,27.582865018023888,17.475081429012224,10.795256648711174,8.296275739017796,8.435900994328986,5.190214368728107,-3.522654070082927,-15.101785395496515,-27.562484208327362,-40.692664486233596,-57.36481631374119,-76.09974516420455,-81.14255015063756,-54.92954056759183,-3.8004106081379025,44.656486198971606,68.88555162913926,66.99313910083053,50.73392133948671,32.87233447851619,20.614322213770546,15.270870372720196,12.57651598958487,8.37448207953054,3.254073316804293,-1.749136871280709,-9.092716478943265,-20.024441758413932,-33.58950536799085,-50.80252576715765,-69.5040792709951,-74.49412691869819,-48.28845950844873,2.0099129486441547,44.88408087018475,61.16986550957299,58.0286076454043,46.976357826644055,33.39067913418745,22.10705513519262,16.287510159438806,13.18938079382143,10.454920711875051,7.67806515996322,1.185397983132321,-11.224852609916745,-25.211784932031648,-38.3852588324882,-53.684966166062026,-68.21637629374992,-66.58750171133113,-35.821594283802405,10.118324213369116,42.28249974598409,51.784134808392224,50.174736659309865,45.6132679017286,35.8937094413194,21.893412444132554,13.170216004092389,14.63207655475864,17.75123850035701,11.568910749037919,-3.598680569663295,-19.35943169864939,-32.122028848959246,-44.811676714706465,-59.90113153608066,-70.95447652900157,-61.46146131489577,-23.649839805771993,22.464037691890837,51.48369549794888,58.663704524066766,51.3341990961804,36.38225740171494,19.3804838411157,7.01509528923821,3.281877347961786,3.8372045224981024,2.718504669422504,-0.3805375708674471,-4.536737453950338,-10.605021960779233,-19.780475119915163,96.0,114.0,87.0
-57.206091512631495,-73.72538734106534,-73.76682655435907,-42.942655523600514,7.534459192604523,49.84440837198285,67.83430480329014,64.4790567106926,51.05249297837554,36.85140165834515,26.621859646889728,20.836190257093143,17.031179600568663,10.50550696834678,-1.5963197870552044,-16.299904405375916,-27.24066387885657,-35.260209982774384,-50.82302810712118,-76.58122898891732,-91.38638162137204,-68.2443265957326,-13.393316786408324,36.87090877684103,61.040399406497066,64.14389641736248,55.854824529005896,41.880364627201324,27.882439774671496,18.119363753094735,13.529206304284848,12.776266592602614,9.8907865274287,-1.7780916473061952,-18.268152318336426,-30.883008231612813,-43.23938226242639,-64.17617181629676,-84.16122458727072,-78.33291231207039,-37.50097540752584,17.000495629637363,55.8809365043061,68.70633416026784,66.17038631410423,57.69419954013704,43.71628783560577,28.800272631231227,19.824856278705774,15.006822636722758,9.414934444122908,1.9649156757367503,-8.028671188330275,-21.92343172679911,-38.46083849654743,-57.6654182602007,-79.47406140721591,-89.42372512426665,-65.78982447506733,-13.792063901020787,33.96557686697226,57.029786853927135,60.56766106912894,56.500226380133796,48.42668325806684,37.18003792505496,26.62516805353572,19.770737134768638,15.331326179243977,10.327829552480502,1.5182176668512586,-12.165908185945401,-27.25855541299067,-41.25563492029837,-57.396892619415226,-78.13007660805266,-89.09371945026696,-65.08633435101228,-10.376923557430906,37.78574484916744,57.896040543419645,61.26227684012729,59.27236823106011,49.1324908616833,32.683142955049895,19.92601991579294,15.090967497985464,14.742019495459195,13.04873550263324,6.028924527089368,-3.6398819935274487,-14.570866775791115,-29.657401809528505,-49.347986315439535,-69.22559337634253,-76.90635047755215,-57.2098148325208,-11.18925418859222,37.318083974374396,63.9454554063575,65.10280952316195,52.43018375234089,37.01853500622692,24.293235728617145,15.184611894791162,9.60588076662738,8.29532080565277,8.087026848595308,3.141488357818613,-6.68455150239237,-18.67386233744707,-31.20524632383787,-45.008970973878746,-62.97497465640623,-79.95301970960004,-77.09881956220522,-41.68012479191655,11.75833504988535,54.6007472740685,70.65497143032181,63.1244980734916,45.31066775490373,28.578012415780357,18.46814000439733,14.474926848458285,11.5797275599556,6.879913823406135,1.8601049960889244,-3.5038855778447604,-11.922254648566375,-23.683378687553404,-38.1077833514493,-56.4542997495966,-73.31348735258545,-70.47067990660202,-35.05258590592458,16.574059706343895,52.363806588444966,61.62932202832528,55.33141699885294,43.1299547822145,29.6538039916232,19.89685386935321,15.293136787265627,12.36342576892619,9.743017372452561,6.403196438355735,-1.893449462106413,-15.344636253008975,-29.013094543042186,-42.48327718925874,-58.43535391061033,-70.2721248147861,-60.69751590718327,-22.766078924391422,21.79004101374076,47.02827881181688,51.8632065448452,49.13592530413117,43.49402605868181,31.961566408617493,18.37782452534308,12.694464050612721,15.960357004774423,17.174447450592343,7.769216174879062,-8.4153992113873,-23.301785576031193,-35.60347199426777,-48.9762943410539,-64.11732882983162,-71.0931740298297,-53.07777340848325,-9.797824498590641,33.23613353768704,55.543433343986486,57.685057196167996,47.550060969884136,31.415920389699725,15.023275450213443,5.0918315451968255,3.3376614779039806,3.807982011385828,1.942143264218547,-1.446703353730374,-6.060182452436455,-12.824883488067474,-23.501463293054336,-41.06358581741467,-58.523579373192916,-56.76219075357706,-24.741079280054933,21.722525810593666,55.13637205360075,64.39583739793828,55.093586913323016,38.16822897859084,22.785792931693194,11.694559566398928,4.607832203200637,0.9222066696345358,-1.7391136771845148,-6.019324941902263,-12.375436315261885,-21.67328142064317,-35.699180090754524,-52.82560429046685,-65.24263361729332,-62.23781388751604,-35.30396722868277,7.5586901910800925,43.20586087720249,57.60275022735208,55.622390004666464,45.164045528338455,28.12602302219631,11.373404635943,4.303978557779419,4.1769177317511295,1.0633008326029154,-6.830545979127395,-13.572909746194279,-17.70102440800593,-25.231586874877287,-40.976733360990615,-60.05909613822453,-67.03185892595769,-47.672404623680684,-6.799432914682509,33.13627738531795,55.49830839997217,60.00867690226105,53.70962858332068,41.71350381451021,28.211845139450055,17.91932605608462,11.105683896630083,5.555229807913726,1.2404583906770053,-3.2587437750975865,-11.316914484250447,-23.27452463044345,-38.0433477573486,-55.37123215262351,-68.89702210534905,-63.73285572210604,-31.075692040599403,14.7351161037721,47.497554790043615,57.135984561967966,96.0,114.0,87.0
59.8462212029898,54.581809148955024,45.38680811326959,33.850186377492484,24.252782956199116,18.3617919151119,14.088552430742117,8.300799314080981,-2.0164997593799705,-16.58629481682745,-31.375479393721253,-45.45318452199988,-63.10441743501726,-83.50076874042391,-86.45288529233383,-51.06486621381006,5.880023841530084,46.407503109698176,59.76583811639094,61.2128575962005,57.347943155406426,44.62073769626321,28.231366025699607,17.781918716946997,14.764790358252691,14.665151669933827,11.562349036542068,3.316997237266021,-6.555303477429322,-18.4054891749508,-34.9540189545894,-55.4496549548485,-73.44336340920673,-74.46821932843632,-45.88740680380359,3.899156650117987,47.87667900270645,66.5046006690304,62.27666031644768,47.90985139029437,32.96268047972439,21.31269127740421,13.173305957889154,8.804014154701202,8.416463003616268,7.287303632130035,0.6706220528631489,-10.016911330839116,-22.27870123212393,-34.92733540961241,-49.72438730143559,-68.62098422259609,-82.11618156593372,-70.12116526134304,-26.824920041770977,26.329290747189926,62.17216820500823,70.3878255735645,58.42106254175753,40.01595323601119,24.874879954207177,16.869450674817134,13.75183839545482,10.394171043230664,5.3749253628455795,0.4627072903739355,-5.538781332686221,-15.039946194431037,-27.53704084280602,-42.99673760188213,-62.09043080337725,-75.45493587798553,-63.50024018650813,-20.33079341178241,29.629407612620255,57.46837533587691,60.826166719180314,52.18003545750062,39.16199767836292,26.252247552134005,18.161700618893796,14.411937716122422,11.557766128444953,9.008012024876614,4.680883219018192,-5.450816025822356,-19.438739970597453,-32.76500973968159,-46.86015673989458,-62.93221162182613,-70.48117101668807,-52.20216716296177,-9.126937481731979,31.64200569998927,49.97385795112799,51.389400283224006,47.91842239569047,40.819988392110986,27.803608707907507,15.591752480726234,13.06326865199327,17.095333141499705,15.612383930556568,3.373491687216263,-13.06394070768264,-26.99444794881332,-39.19163470315495,-53.36469210717046,-67.72013783892659,-69.03247458551479,-42.36312023598862,3.974805210754308,42.110523822660994,57.886101128706095,55.69987285115028,43.27006997248187,26.41113142752236,11.240314425144835,3.9155976164656527,3.5639084066051847,3.5350158890976062,1.0525894867108818,-2.60618152246598,-7.765650943078236,-15.343474909311302,-27.87165138208903,-46.840896679676085,-60.86741855763161,-50.46305946287832,-11.498255736684266,33.63882029590339,60.24703625679903,63.16442891343593,50.48628770113388,33.32312483370223,19.145804535596447,9.246998628001366,3.256418312927904,0.1960154954725316,-2.7532708375234867,-7.643808518608641,-14.671663397583423,-25.19826622677013,-40.57410836987913,-57.34095907527598,-66.46682173925034,-56.99742738683938,-23.642425788227765,19.60119343908958,49.61718176640014,58.238944063747425,53.33556942500019,40.8022575283652,22.73528560160405,8.169432290733036,4.00687565685727,3.9029669470037387,-0.9454843055613715,-9.135952787274388,-14.858802703363374,-19.19941642358888,-28.921608907020428,-46.677140873249,-64.13301139811912,-64.40642866091908,-37.2421090041408,5.877287480488807,41.68907047139159,58.34942413588412,59.00472879316573,50.67392188776912,37.73183545338502,24.779829128154837,15.714454121160898,9.406578249662475,4.175188137434927,0.11385194652905953,-5.120965604462376,-14.44707729128938,-27.246855191363977,-42.87502190727291,-60.223039662041685,-70.02847286104421,-56.97751169653698,-17.99256425797747,26.465863359007567,52.46278695151637,56.83801995314189,51.492618130364114,42.37072766465268,29.526234574762427,18.118037844716092,12.902822961881308,10.501056183200832,7.270532630857077,2.924795423228847,-4.14477650075442,-16.218876937836303,-30.825948621535247,-45.839711956558716,-60.939240468222536,-66.64386247459404,-45.903296213079756,0.32567129579065374,44.41783938750027,62.214012949053185,54.33027355942387,36.00436126728704,18.310700737861875,5.623010961098707,-0.7230473770277512,-2.4433555433769643,-2.32631972022734,-4.076774083148932,-9.170339964138739,-15.302363027560656,-21.849031486522232,-32.459874444060326,-50.36047262656214,-66.18769167552476,-58.14097657484088,-17.908974216928634,32.46835192883453,63.83030498157603,67.8047467582979,54.270754151264015,38.14529080830252,28.00975653361851,20.532806005273688,10.613755205443857,2.2948875584188797,-0.5554968862837512,-2.842243516735697,-10.418642186609995,-22.002542075817612,-34.929599736209774,-52.041916787918495,-69.4703828837285,-66.83952929654937,-30.798215454156473,20.83493434848354,56.71353620294945,65.87847894473316,59.97014212547466,47.614582485885514,30.337678621697595,14.495999428928025,6.034994813588948,2.502994750572772,-1.3656819811094405,96.0,114.0,87.0
12.977088678812006,9.040693203484103,3.910389264079509,-1.0156600761404453,-7.8950488733475925,-18.402574347027162,-31.61677165551155,-48.263976611265775,-67.34151121712165,-75.39202229397996,-53.68131946924864,-5.0033960055878595,40.61234871257609,60.432288625808106,59.07986799492741,48.6815884759122,35.18804871815562,23.29885568569636,16.81178291132995,13.572566798047395,10.792346595136973,8.150345793990848,2.4198280356099313,-9.353480534642218,-23.421332441031634,-36.575825618893575,-51.49325594309569,-66.78483294463132,-68.40411860913338,-41.416563264712366,4.253373393741864,39.41444451696409,51.47251912330189,50.602590495407554,46.42790590062387,37.56962024194162,23.691640385407066,13.71026436267676,14.050979023563587,17.714412252254128,13.05724795245413,-1.3661289230104459,-17.44283729831406,-30.52211481631738,-42.980281939551574,-57.85405323031238,-70.26834582463496,-64.45791135191907,-29.83990390114754,16.93257539494078,48.981783627850604,58.724310900378306,52.87641355075994,38.61792486717856,21.53486630683866,8.168675477786032,3.3683553188376885,3.780604800964165,3.0233704127148138,0.08667253011482925,-3.892274285241058,-9.661832191668463,-18.26470589248782,-32.882853762215014,-52.27610152894585,-61.06600768074255,-41.56649720414973,2.2686104209225952,43.84993101766255,63.297958026997684,60.61569364708035,45.528573040050475,28.77718376648089,15.867301396051877,7.126945371340177,2.167109304581368,-0.5272744287729888,-3.9484875720688035,-9.432047684848317,-17.25783458633363,-29.16135196968758,-45.60777168720362,-61.227166599034916,-66.12150475331345,-49.60795181950654,-11.081294204195936,30.416733469709424,54.118121218208806,57.77966039636892,50.45417093186597,35.90546187766492,17.648105298140816,5.945211201971863,4.06612236490239,3.145078756161394,-3.265675469081113,-11.176777410853463,-15.98538606165813,-21.177327581760043,-33.359004612214825,-52.419893852407334,-66.73465512140224,-59.324113103622416,-25.387651091731787,17.84544358649842,48.53407419743166,59.84566624222012,57.27950635247717,47.24517382481783,33.748095802323924,21.717619095651465,13.739180984361393,7.77688233315339,2.9169549939200747,-1.1027547685948051,-7.359922407602997,-17.861481953098096,-31.44824195392058,-47.91268745485353,-64.50139656827686,-69.17016241754398,-47.87022481546144,-4.427071465803594,36.4905150533244,55.508445807543794,55.79556730686937,49.25906730688755,38.94347178931499,25.735918313440692,16.00014448010119,12.160933101843593,9.697855026356597,6.135198887728997,1.3136472539722206,-7.13631417281261,-20.356549764299178,-35.09850629578557,-50.341635659191724,-64.32357554781835,-63.91797238062357,-34.284541877764646,14.735162512584004,52.71529653329405,61.98645969662551,49.43787113576799,30.566227997238673,14.00662606908972,3.175155318533683,-1.5874585546015032,-2.44509095025586,-2.4875582558568,-5.268598091334843,-10.943738670045141,-17.064148231852293,-24.259587268026724,-36.95087261605757,-56.02286334670916,-67.21703537384565,-49.37528435602374,-2.8985296659717243,44.331143631948976,67.5788322050862,65.02663661793335,49.287589348598296,34.54072316118187,25.929039368572788,17.900428097343365,7.734517611852192,0.9747660719961007,-0.9199991939686233,-4.404447441076529,-13.549341547137002,-25.561817499241172,-39.29737832624952,-57.70761565615792,-71.81709454066684,-59.68723767163918,-16.017162689356663,33.891660657026705,61.817078906375926,65.09325616219886,56.99294433848283,42.974682319417006,25.222110764508606,11.25044616155369,4.7662317214230425,1.5886203869796134,-2.9116655707021537,-9.15690422801853,-15.50587658534398,-23.29169186261561,-37.18559339885586,-59.03060288875323,-78.40304999889553,-75.16708162839186,-40.04989082020856,9.062666450827827,44.5398546219458,57.99069729309999,56.6852201419184,47.69300351785344,35.80288138998671,26.134887557072783,20.2507653800328,15.019130619448077,8.905020568388654,2.163383446159024,-6.460212069188189,-18.08523603075724,-32.77349030373572,-49.714328113077144,-66.83541886186457,-75.17526647152609,-58.657290823772634,-14.793241140252203,31.75614941857167,55.567546811085336,57.610851482767394,50.6783552940001,39.95983109707721,28.14180609075255,18.927140221758908,12.944749034987574,8.819118794907197,6.276265704124181,2.771624277024449,-5.075566323473389,-15.582313335124796,-28.09341751111776,-46.48302801930541,-63.26531353497322,-57.44499126588178,-21.583730585697406,24.266793588625813,54.89807082703237,63.873655579185844,58.51084113708289,42.603019038274,21.97646428698236,7.014380745186296,0.45052902149508084,-1.622936719044381,-2.2581823223660287,-4.446284927804492,-11.231664956914617,-20.85806249000648,-31.176369761588596,-47.31997719036865,-69.48518640935717,-77.44993925301917,96.0,114.0,87.0
-21.708395012608744,-38.40901687234885,-56.85362040192152,-58.744134471903806,-30.45364476756866,15.778561447913994,52.06281872636375,64.44792840020753,57.02323065961948,40.47297370337229,24.589746290659217,12.934048316587274,5.330272106263288,1.2819624135478866,-1.326950014651873,-5.325840579376136,-11.399182398073375,-20.190306628818465,-33.54901995316589,-50.60045174279994,-64.2295477342765,-63.93167935262823,-40.21959475304789,1.740998724949876,39.59677291578958,56.862602235597045,56.46642729616698,46.973934802188,30.625800443011645,13.166853572193538,4.640288659198652,4.181919652612482,1.841123212706861,-5.71218830445242,-12.891120268856078,-17.121093288617892,-23.786470753356316,-38.45354869111755,-57.81254371996969,-67.44116638458873,-51.8541848047128,-12.727312322062575,28.645137060875904,53.67631855994895,60.18637916383851,54.955918677946016,43.50982752222071,29.90289605523811,19.036359938580382,11.91367680782006,6.232094112089426,1.756730043037325,-2.514683199215261,-9.984066551074827,-21.515963912779995,-35.90135606804107,-53.034826367276075,-67.81341275500198,-66.01369247009387,-36.744935142006014,8.880176152381862,44.510150518662485,56.928937599309954,54.274012688181266,46.720717347029165,35.21767235637638,22.269777033382546,14.43504729326257,11.507200209264838,8.783406586506512,4.918641222759091,-0.6054926166175538,-10.571364262652308,-24.59336245654692,-39.40607447065609,-54.83255703515571,-66.54171983675575,-58.560543871021856,-20.8797951876002,28.111902734855587,58.43293122029267,59.883040435118,44.08456508128905,25.34886459764797,10.199978177894366,1.251954102757217,-2.123671856878598,-2.369330357534094,-2.904447381538852,-6.7257931433304945,-12.727362658395077,-18.885951389054227,-27.14229889583169,-42.09167810674214,-61.09712832207223,-65.66228440432492,-37.99878003993434,12.13757649269386,54.01393598636086,69.08419687531413,61.13824020282757,44.451122573699614,31.535453133065488,23.870120558510212,15.014612383880957,5.177178774690376,0.1277785111441073,-1.4397504970902766,-6.498548814435416,-16.904523302426032,-29.21219546064868,-44.148043278862595,-63.134488359938295,-71.85125645896163,-49.65775177126027,-0.698249002857495,44.9084586627395,64.74280581305392,63.44909064239166,53.542917677405846,37.96462863977973,20.455432937254457,8.694065413437619,3.770360914411747,0.5315560598200434,-4.620748523324135,-11.005027851301868,-17.44107500649158,-26.4524284300703,-42.85551451773934,-65.70550779184028,-80.63602971141994,-68.02225944399054,-25.945075313946827,21.568263442919232,50.48541322778769,58.74042088120086,54.66133872413443,44.326759615466955,32.593423077378596,24.142569507382884,18.815432040661477,13.3206571242539,7.049320504545183,-0.06280814994021586,-9.489502674395956,-22.039985470121067,-37.479487189476316,-54.84033670945682,-70.82076001247889,-73.57004237221717,-48.14135135995381,-0.14367485472187458,41.46089198011587,57.77920362210018,56.139554316698295,47.88825933335316,36.48262679614002,25.099263530835884,16.9383556296635,11.582580099461666,7.957993284062123,5.564071981879323,0.9785327205219108,-7.991554785853876,-18.82483829244729,-32.754902310451826,-52.33434129452748,-64.76531751450551,-49.716804097151574,-8.063498362243944,35.412085363205584,59.456807597549655,63.51462193104341,54.90028057440295,36.65282112419089,16.733319487415386,4.392597682345188,-0.43658966534332094,-1.850960119774456,-2.558418957674417,-5.895959974372314,-13.915902304388766,-23.66919631720592,-34.93814297694214,-53.597506390873846,-74.53984922560582,-73.34002436481013,-35.58817310978776,16.243597279149327,49.12981475892214,56.42862702982513,51.2939351579345,40.74410711717046,26.09058487985908,14.551904820348867,9.098341541974259,4.432792071514278,-1.2810868402154278,-6.452191423927139,-13.291240918350029,-23.952431650016667,-35.69430862992444,-48.8557533415505,-65.53711495706555,-74.34353579137638,-55.20355852475741,-10.762600058018394,32.10905080067239,56.39755548813585,63.854712321982916,59.761016387504,48.23973617672266,35.3194370949565,25.866690871117584,20.05339272453016,15.967054971590182,11.558289537475511,4.243892321711474,-7.203228050699605,-20.823375608287318,-36.30154260041524,-54.80995188691009,-70.76338195939702,-67.48607437724958,-33.62081887269477,15.543324280656808,50.84377878371761,61.27479825381204,55.41387636958498,42.989078849446145,29.613843894369737,19.343604382498647,14.128423884556094,11.590687578681596,8.56931851906339,5.285551259107447,-1.224796002255236,-14.98376243853679,-31.422305000020106,-46.11951066062286,-61.9772608582036,-74.7577103327899,-66.90750541544034,-30.683105922572665,15.648595998042431,47.77674918437427,58.3920759348606,52.48412285501602,36.317377954195706,96.0,114.0,87.0
57.08743154798818,52.431630297988,43.82967501206038,31.32603052756228,19.295243034499098,13.311876717126438,10.835969607814203,7.767960508088681,3.5907225248779775,-2.923636888961454,-14.372737115496621,-28.858682492567315,-43.788226633963994,-59.11658303372477,-67.08920971543142,-50.493990830917085,-6.443201615083491,39.76926860912164,61.5813648333744,56.333017859028004,38.55430819157183,20.444113888978514,6.937935274849456,-0.19782151197279774,-2.391775157018971,-2.315277808558317,-3.631670407765869,-8.371554970260528,-14.493474965217112,-20.857548267620295,-30.625721831459263,-47.70163181286234,-64.97553327149006,-61.205228146509114,-24.579394177830228,26.37358408937742,61.29727974998158,68.60539045787895,56.53099307219016,40.01120824748348,29.036571860764838,21.64696994779947,11.999348060497905,3.082659878685768,-0.38260552878049053,-2.2959753602651873,-9.084728160796502,-20.379165570478488,-33.05529102489108,-49.469221046402055,-67.77170304135767,-69.11274418874713,-37.18960607370382,14.275778731724417,53.55607128712336,65.85820874910027,61.185083271080465,49.59947112585721,32.75109856718623,16.22732834397312,6.754437747920032,2.8993044429476242,-0.719045386648491,-6.4362581498029,-12.82793103922914,-19.57096963998029,-30.2648530904838,-49.16482756927268,-71.77089193679296,-80.44344730618242,-58.212957608223924,-11.389263428801662,32.337066063439465,54.64774758569529,58.489045617480585,52.12187794909239,40.835962632229645,29.696962353539387,22.437393885542114,17.337210347975955,11.555673607028732,5.1380846380084435,-2.4909899044551995,-12.784471703487082,-26.24159395727465,-42.352600964021576,-59.9147213703043,-73.74737322603973,-69.46077776475408,-35.54647173384196,13.886767317274339,48.84001153732189,58.48621405434584,54.18886150039996,44.82284752951716,33.00312345441715,22.35824851062112,15.186072258681902,10.352945014681485,7.228653936077066,4.663468286173767,-1.2298541416870565,-11.027095519162513,-22.29334035396188,-38.01791185835426,-57.66193246482687,-63.80541985705596,-39.58237463287511,5.573569182624144,44.76970172422254,62.29639253382736,62.15930135194038,50.430991273209685,30.545676814775764,12.206130847471387,2.4196505118709806,-1.057261221715363,-2.0103834865063352,-3.0801524636371296,-7.785533866978367,-16.72498383931907,-26.541140559594258,-39.39349103229393,-60.23300752464849,-77.68512498870395,-65.87777618596238,-20.366987589491956,28.618031589136795,53.401969842747945,55.65591949074037,48.793471780911915,36.71937226973493,22.08172583203047,12.526132356784036,7.891211339426414,2.8038154454049744,-2.829362329514368,-8.068335747297668,-16.04594931770491,-27.353631510653855,-39.17193582918771,-53.44812472786265,-69.85466439841446,-72.23843232983381,-43.969830349125445,2.9842550339167833,41.18802558763536,60.00252608770783,63.6922635477683,56.965184813726225,44.3620750530188,32.139210239609035,23.89317174909468,18.779104340577824,14.83119673635319,9.859558310009758,1.3117468658380602,-11.005155432999505,-25.028478269387193,-41.36649101924416,-60.255642307245225,-72.63716558827475,-60.74214100078752,-19.651678958510118,28.180742871754312,56.22901780416926,60.734583402714435,52.19656114467068,39.02535976579058,26.179969282313994,17.33193505870383,13.32010063833521,10.7925597845217,7.654584110633673,4.008996852127867,-4.48514577607369,-19.80526329006752,-35.79642162393579,-50.464920066657314,-66.61641101393623,-75.40868633972721,-58.99419418091289,-17.089100705516703,27.10308967881059,52.918171290852484,58.114368657849454,48.54366289720823,30.94607966298251,15.042967467169754,7.777862083693694,7.9397706548570195,9.41593544871338,6.824158938915832,-1.7564875001876314,-12.942197611106968,-21.97328607740666,-29.620291351136885,-42.220099637615746,-59.31616638330493,-63.85881715107859,-37.85433548577719,10.322298025438597,52.032961778856595,69.18139729083155,63.07610869542695,44.09958879874317,24.586502414191735,13.127829461727812,9.359717777735058,8.955091859876115,8.691255806129229,4.06433779658616,-6.664102613390062,-19.286633121778515,-31.599242305366747,-46.98148137086558,-65.43911240828005,-74.03866369038231,-55.68239612404085,-10.41053096231048,38.64316647694313,67.5962149631068,71.57982867957887,58.809187808187254,38.59031136049156,19.761160271773946,9.608822792799613,6.893235931201001,3.6497118106099267,-2.9395395416167167,-10.13683743458529,-18.95548542664122,-30.131822674865436,-42.77894620755439,-60.74907038956894,-81.0637504915458,-80.29753255647269,-41.14307636682433,15.790762791010163,53.42569876608023,62.463044887860924,58.331081621199715,48.82618215916152,34.32320422258981,21.638044120917442,15.04511283458357,11.849712576130107,8.54026534785707,3.131367122232964,-4.56512939886579,96.0,114.0,87.0
-2.1757986581980875,-8.297524443611174,-14.65068233816414,-22.018428511062705,-34.822652548474196,-55.88479957803985,-76.68240143217639,-77.49759456865145,-46.17817971224338,2.8235955466082823,41.14958891222939,57.25004576041446,57.41587769295546,49.16654486595205,37.36105985720864,27.171314599255652,20.91835163158052,15.772890384341194,9.748631271003978,3.132548575014216,-5.150600646613458,-16.350269319280564,-30.665757397847624,-47.36675615030913,-64.75441557194115,-75.16113033721582,-62.67828435945642,-21.521984871037066,26.546301375595625,53.931145073064364,58.07956921546572,51.862396369483356,41.53263426913927,29.631626338471587,19.93820504874693,13.61747000334791,9.267601878374736,6.575545883795224,3.4566179027269297,-3.796940801727981,-14.129061914850213,-26.14535073218613,-43.75452795882557,-61.870937290373675,-60.10015237210729,-27.570884542262274,18.621302562628042,52.15956109698811,63.66778637065759,59.872612126595996,45.21196461724872,24.590601995682604,8.470751242834297,0.973489460027776,-1.4798161835850399,-2.165970869828692,-3.924627366377819,-10.070039976430747,-19.558524242648367,-29.626837209144878,-44.639994510974674,-66.72186508169429,-78.22767479646058,-55.319046313311425,-4.887859653546118,38.7340088498172,55.71670953382684,54.221477532555745,45.86150800524579,32.417979968630306,18.573485648153216,10.95227414097336,6.59203394172712,1.1230876299018668,-4.30286448081751,-9.936042560037263,-19.11518721498952,-30.747274414984407,-42.858372548887985,-58.351239264282775,-73.02805844283141,-67.339137522647,-31.053630360992315,15.844176271147887,48.546895005912006,62.36066635519019,62.661322633484,53.66014379395602,40.535619265802836,29.326620944182086,22.18358291013868,17.603023113079356,13.615100248323646,7.8466123037348625,-1.9593234077983448,-14.920030615526617,-29.424890734057517,-46.70970060422225,-65.23813799947574,-72.40019745421105,-51.34047409515239,-5.089372734548537,38.97586608341784,59.55616870386958,59.13702620285744,48.615739450590155,35.09266234403747,23.096396349875153,15.76069080698071,12.623172030701848,9.91590021629908,6.745665598766418,2.3141765363436404,-8.3950444010833,-24.640132721778166,-40.006926429011,-55.02992991380427,-70.72962616875397,-73.81914177545438,-48.76523617736996,-3.3352141880348483,36.87493674229521,56.295563802893916,56.610764017927174,43.90042106747313,25.735960282699516,11.956242495839792,7.295728056865907,8.515965623156422,9.254736014156068,4.910795226727536,-4.972596669548662,-15.887068540458122,-24.090803568927928,-32.494654817823196,-47.14990072387488,-62.96878686938454,-59.75303330812589,-25.058645451906507,24.248239959442493,59.7468881753253,69.42727351909859,58.37617787121756,37.9948886482571,20.296677085727552,11.446465191441566,9.049990780504306,9.028283108469875,8.006952789280637,1.477278804877478,-10.33449624197104,-22.79697008519095,-35.54416042194652,-52.30735834288749,-69.79407431937909,-71.98949199015517,-44.682726664980436,4.685736628906169,49.679557744115776,71.06619141042982,69.16300395755395,53.36020311083575,32.597484731017374,15.78598183195341,8.374386774605135,6.325815042722678,1.9701682146355934,-5.004871865186524,-12.403971793434945,-22.020821630403933,-33.55965091799461,-47.215395169448534,-67.07063937923985,-84.29717745119736,-72.79346420246799,-24.744952797511154,29.813827479981253,58.4523047475528,61.948312397405935,56.176260899125076,44.96196635513967,30.115056513159395,19.149205462790285,13.94993737391827,11.028611113464212,7.226272053284327,1.1356524066639853,-7.215734445139718,-17.740263135788286,-30.027872490598806,-45.423469889025164,-62.54874318423207,-68.21589934760054,-44.800313226780844,3.7634081783730045,49.1083386500542,69.74828593875586,67.07230453250793,52.06966411745119,32.93056673073262,17.46763421236311,11.285251174255295,10.201560050360506,7.737832086245642,2.1852513761832104,-6.135905536832247,-16.429486750850614,-29.05536530133041,-45.097356229741074,-61.37685614735171,-69.20463801811661,-55.83487640674425,-16.995845168945998,30.125016425097133,61.460049681116566,67.30361654924309,54.0976701481299,34.3789592173114,16.89600889047148,4.560449897564298,-1.5838527507142055,-2.482322819592658,-4.455140887850586,-11.435848916678541,-19.5798489457214,-27.22724909665383,-40.4895733765602,-61.722401930845265,-77.4459145586005,-65.92099496486685,-22.448235517922658,29.603898555921226,63.285035885655624,71.6208033613066,62.703828640020156,47.30580139695246,33.001933444502434,20.958343261372264,9.993978089628088,2.7599569711833776,0.45347190684810124,-2.20119203640068,-10.50452659699793,-24.1602885569521,-41.27704597176255,-62.27561760052257,-80.08686542479806,-73.14474259932686,-30.0861548266156,25.76931631097637,96.0,114.0,87.0
-75.65391232702251,-42.24255263198458,9.894079583133555,46.40619798499359,56.48200480356149,52.311379297885416,42.46496600189655,28.05423986919008,15.676718818964176,9.654196161705455,5.147432519362027,-0.537776932059286,-5.759845986858493,-12.145273353477197,-22.398126302000726,-34.12703151694562,-46.87242890064062,-63.32518647198894,-74.44172637758928,-59.634500486473264,-17.22388353535712,27.345914870508846,54.27025452861158,63.615558235159845,60.840841482193845,50.00049859015722,36.900485077086316,26.87959527360428,20.68603961083577,16.48022973944199,12.253872259144508,5.469277450382227,-5.5008728887957545,-18.93432505925136,-34.06667157919913,-52.2425022732381,-69.32028452721919,-69.661790053895,-39.63752523415456,9.23554304293294,47.617548010802196,61.0886178267907,56.733995568926595,44.79780429214958,31.293516455263124,20.425016498995078,14.572564304324802,11.929946349203874,8.995994328199805,5.780787148728668,0.04504806783882972,-12.821824742246365,-29.331656270436007,-44.173952226885994,-59.774109212722294,-73.82306044622989,-69.69469966496459,-36.69620778059632,9.892887990828777,44.77745430415321,58.068756642186635,54.012824361208246,38.774263891658755,20.932358145011502,9.688643094131763,7.323855969764709,9.036345152717722,8.645819209472403,2.4932627833678667,-8.269286315092046,-18.555585922961047,-26.190287208578162,-35.97184735045026,-52.30269889398613,-64.98664483273066,-52.78394485470907,-10.960304733576182,36.881597258479665,65.189860500152,67.91107957234824,52.889221928593756,32.15396132778486,16.812736688858404,10.308011693292235,8.925678803562777,9.040483476628507,6.823636714179619,-1.590408267797556,-14.020777341064019,-26.293759066728033,-39.872385069576495,-57.79775761078503,-72.86707413753325,-67.31825102460368,-31.689706508490012,19.351034697790652,58.59697784612133,72.53728038816189,65.60244405970573,47.490018500213964,26.95161734075918,12.669139047902563,7.620355059012686,5.4971923772633895,0.053767673590633724,-7.059572619396975,-14.884557748379025,-25.248331729991367,-37.110779756942726,-52.260205632500345,-73.33647632962428,-84.99695573511659,-61.934414543344474,-7.786316955909689,41.3943320618114,61.27701172140407,60.78842479326146,53.569560424820665,40.731555675311995,26.288169810152585,17.17826896935505,13.0370280936308,10.12376278915836,5.70811211929302,-1.0432828463927601,-10.057834244247411,-21.091733362265916,-34.074828196460125,-50.50845019164508,-66.258361566123,-64.88097244118285,-32.3522995743963,18.56508835326303,57.92912093677838,70.90521770415047,63.558933087289034,46.67078166286525,27.692759457550753,14.733830458503833,10.803595186965406,9.78984423260493,6.445986651359388,0.03758938312726376,-8.939587992726672,-19.75739740713209,-33.37431854986488,-50.05197803187053,-65.03976642243202,-68.04328068578918,-46.87599365699814,-3.0531737304474236,41.59021184523487,65.72376956680644,64.89863364884405,48.559619342817015,28.881624481600834,12.761556595843276,2.101786904533991,-2.1879649829252497,-2.6137122333712397,-6.021902150380352,-13.901769809653011,-21.672089469129027,-30.159006670490463,-46.066271667867085,-67.82067524817913,-77.67601728318478,-56.04675191549931,-6.857323492159681,41.96273080328803,68.08900631162517,70.32693580846896,58.48385761381006,42.88622717913032,29.374723913798743,17.639992408377815,7.352342493435775,1.716783951600695,0.04123409945747979,-3.92795551429368,-14.021732855613731,-28.75255556943396,-46.97246550635813,-68.4989027675484,-81.67341406069053,-64.01874183698949,-13.598824213976688,39.18407137657803,66.6696486884828,67.75269266737713,56.640833738496646,42.66337191172307,28.50759653142644,17.65977591010909,12.075701648342793,10.227451995703628,7.467734409176601,-1.5510803782298674,-15.355616301527213,-30.42800640185117,-49.75072709543363,-75.25104673843987,-93.26834755408322,-78.71935875920735,-28.648695606068046,27.09046380290554,60.09799309271101,66.73330281855162,59.59490674326537,47.68300827465509,33.114012870215426,19.624653703163425,11.497499826528681,6.859278453588129,1.492317456363222,-4.22869068494621,-10.433542867123737,-19.810552967359786,-33.99130004061164,-54.71810870416373,-76.53140763214483,-77.1880762147933,-39.63707483972614,17.858541410224056,59.42095773288974,70.69728485940881,62.36467486031158,47.90842323882793,33.25503824838619,20.054315802395813,10.07648028493388,4.445330998633288,1.7538744138180038,-0.0009489610417511703,-2.185309202042865,-9.414630333349486,-25.67386082577119,-48.68841844261448,-69.0785308214388,-71.9101783002309,-43.80569015146042,7.528458010561374,49.11597085812969,60.927769440235686,55.00396943675041,45.16371715576906,30.472022026793663,13.957489273155062,5.871203072272112,4.581599029365379,96.0,114.0,87.0
33.41841057726722,16.734253636919767,8.212862230896151,7.697844314126697,9.363408513362709,7.524056678579364,-0.34195901285780894,-11.504907734893834,-20.9482997773056,-28.460265810656768,-40.10649924467031,-57.250806382590994,-64.80718353330695,-43.114106001176054,3.6425795944586374,47.728084833591026,68.40937290135405,64.89489509113208,46.92423495581071,26.821469695535654,14.121018074508273,9.58490004708755,8.927707777226964,8.869676519895762,5.070142768491826,-5.0099290201512074,-17.644924682916013,-29.88059775620128,-44.639858409582914,-63.138826959838475,-74.1631120181124,-59.954995811484444,-17.31018897732411,32.914825877878464,65.27241348367473,72.24096211637416,61.12480282086678,41.406172773517625,21.86691400172911,10.396292819512482,7.111617801554653,4.316545613237181,-1.985378073394442,-9.144864487579984,-17.614134218207916,-28.57542494923323,-40.90443127819862,-57.943311122010996,-78.92241814878625,-82.57207553403914,-48.21815322099366,8.656522343473648,50.2562139340923,62.388062378299736,59.19244291022684,50.44544382405677,36.33816015862573,22.975069968012306,15.63826910546138,12.217870686162524,9.080049500336125,3.988948675110941,-3.4092695164311233,-13.073526705246893,-24.583509053710618,-38.44404252448812,-55.6374331305136,-68.53946918792198,-58.73527399832467,-18.23278143856776,32.2715060778345,64.39270617867135,70.34515497572566,59.28891508854234,41.07473374979502,22.992689535581007,12.831266052891785,10.548987304365156,9.147710026977293,4.896235508747912,-2.330071473035945,-11.881019978789595,-23.320493852162837,-37.9869437752839,-54.90013828147152,-67.73005535715906,-64.77195681767996,-35.85882757771894,10.943073148501968,51.216470805510134,67.80907191831554,61.18482942980826,42.78430180849923,23.718060821969548,9.080143375533892,0.19695645703071127,-2.4254272303407864,-3.0401130733745045,-8.016326224473646,-16.310250870134983,-23.770476879937853,-33.769133851290995,-52.25701025407971,-72.95113991775031,-75.10341493181384,-43.68115625536552,8.646012550162204,52.26468873160294,70.83419719577475,67.85924159662738,53.97970515104652,38.68911355396924,25.89611302888752,14.402744979081037,5.132626927968929,1.051750259125197,-0.5857653237053834,-6.209182798761607,-17.91989617518237,-33.61142737673188,-53.0276963463138,-74.13398414157339,-80.5375697417033,-51.890226576171855,3.0464438607957307,50.28266240462668,69.15262957593248,65.17845981551245,52.74081813952579,38.468573204252245,24.874072936089714,15.519291550871616,11.295098546008713,9.814337381968585,5.602441684231872,-5.278784064370654,-19.580870710893446,-35.32683233851593,-56.70128201537341,-82.32894733607735,-93.28277042256506,-66.99867821555515,-11.501488593220019,39.61741101718678,64.29305729403801,65.49040510696224,56.502871307364934,43.65627993816322,28.85957310199381,16.66176605277254,10.040351410552393,5.4486187420653405,-0.1972475243494771,-5.859124427308735,-12.72142263009567,-23.345769443072147,-39.270815635833124,-61.60073090153471,-80.10896980426966,-70.197684719423,-23.43446465066273,32.77047142780665,65.60512331573565,69.59497926816869,58.41140420061768,43.59467535004841,29.231093048900078,16.750263452532664,8.019539547635304,3.4744602128443476,1.196818998674543,-0.4635536306103054,-3.490766656411034,-13.151430209622845,-31.912016627944997,-55.42790520579492,-72.4411321607616,-67.22738510159483,-30.17933666299086,22.083898662123666,55.51127270126951,60.1341146744267,52.41793208634381,41.54762628726691,25.405543019970935,10.492997036516497,5.254084069876544,3.9934301007084563,-1.3086618378743164,-10.16330478055555,-18.825566663950603,-27.1936245309013,-39.04427186784145,-55.620068370645896,-71.59110110382451,-70.99791424696832,-39.703496006535204,11.988891460631393,54.304093045841334,70.09481393682898,66.6664381655223,55.69508727216311,40.96278146288121,26.344653952558744,17.121585111896362,12.428568974779097,7.258674230701052,0.4925743758639325,-8.182450722920095,-21.328323283280753,-38.738266156100266,-59.38867309760378,-81.09267364015251,-89.27049740698841,-63.2470577708176,-8.396376505005833,41.06781807698543,62.51702952639139,62.01857023259993,53.38119303887401,42.08396449376133,29.96854822072045,19.752898844057874,12.261327233061232,7.0153204762343835,2.5228237908439617,-5.49043073310795,-17.749741097609252,-30.97463748875896,-45.90154380777112,-65.82177269557614,-81.03399203881759,-68.00006657773025,-21.68985883943481,29.82406192192304,59.31735569145112,66.16110326695603,61.23794512496488,49.785806375720384,36.32314499683165,25.843593787328658,20.186804005958056,17.95139752304894,14.721822357358544,5.949239938119676,-8.64598985902682,-24.792503642227363,-40.7663878326119,-58.07855447562519,-74.36429095057979,96.0,114.0,87.0
-5.969328208980614,-16.237511085749986,-28.25689735329558,-43.15063821862154,-60.504592521851905,-68.86038247094831,-49.79533495661092,-3.2232698069228753,44.27234525923728,68.55612634714319,68.37394198530906,54.449600737094116,35.46366264887668,19.019706724506406,11.641897185015601,10.33162743517329,8.244402269850196,3.0966993939468876,-4.894722746898135,-14.95881415850542,-27.17239158619357,-42.822121235886684,-59.446645817129124,-69.10822171113544,-59.19803943345009,-23.21539535266024,24.327048952354172,58.739333257404525,67.8817775606169,56.49684242022473,36.998983048643204,18.950702334001445,5.871889514900539,-1.1458878451072176,-2.4703482081258907,-3.896283785026254,-10.315667993673246,-18.582091711749907,-26.054120863182483,-38.17798440759255,-58.74773478161309,-76.50294367205139,-69.51515752338616,-29.43890329334758,23.306569116116123,60.329889721319645,71.74631439454208,64.48868038999296,49.39781834582127,34.74169813412518,22.50442688479801,11.32746283445938,3.395103472380759,0.6214815674980616,-1.5835079181872924,-9.03299814784271,-22.128823047764623,-38.77769528951235,-59.33884982496453,-78.60066281080144,-76.24569468136708,-37.3650479925284,18.927641036982457,58.81892664095608,69.67235253431545,61.97319387203939,48.71265957803152,34.310236698788465,21.619603560745052,13.825886501679763,10.767178411909734,9.170566316559707,3.111717406092051,-9.277754960350542,-23.86703107144454,-40.73237845200593,-64.14080447096154,-88.23883312244973,-89.94350231337808,-52.64086967433491,5.173648276228523,49.7528814087961,66.45718554851433,63.46852567008061,53.11824903499046,39.43626046880324,24.83037842854069,14.223368403646855,8.744431903602969,3.9089812499572503,-1.8609108932429246,-7.580390860610712,-15.33880004650436,-27.308274512968786,-45.16057527682929,-68.29922752798471,-81.20277718823293,-59.84053860358519,-6.409098931093412,45.5068480194482,69.25176793832583,67.25825874228593,54.21122999128799,39.333086578362234,25.35533124993734,13.770312163754207,6.330818856110484,2.689738256936486,0.6844298985189666,-1.0015139619452476,-5.376189891779952,-17.692577139853345,-38.594553412846246,-61.656815389369584,-73.92715077341643,-59.69248347187411,-15.122518071914305,34.86069297229082,59.291831873734296,58.39714240621789,49.670169261350466,37.39830288630927,20.416396862533897,7.9672750241916,4.976869585604621,2.9938248579926956,-3.6648835371297945,-12.815207729559118,-21.117263396000574,-30.122227779735063,-43.41141232520365,-60.8053374204783,-74.00376942957281,-65.24086128929167,-25.673207999907866,26.444767265728434,61.62324988415302,70.43293824966992,63.98591210654913,51.73796733002683,36.452429746280934,23.00446692639965,15.527737612510142,11.138782810049387,5.415461042215068,-1.7020874015955691,-11.455211355278518,-26.00335590077453,-44.36356429168309,-65.87799245250699,-85.87482464898137,-85.79208981501847,-49.10872935970618,8.021035088761938,50.313432233679286,63.93151473958738,59.94263990385412,50.326243673812094,38.54597781033423,26.729418800246297,17.335867572492944,10.524702190550402,5.804659534041514,0.7324047097726858,-8.732120334343998,-21.57169133452585,-34.91302772994983,-51.18095495968233,-71.66238714285642,-81.08086905234295,-57.26357416399179,-5.733068354632624,41.13675500723056,63.11298437901982,65.59855367413752,58.45841407805212,45.83825312933783,32.84772181770597,23.708284659314373,19.34265026866768,17.35387103104016,12.887910534416022,2.178907774452805,-13.333768431802,-29.369712549823788,-45.58652288084899,-63.24815648184546,-77.19547552850536,-70.87729248306482,-33.351774591271024,18.181390735490908,52.4399043971621,58.734518129987094,49.38126863701775,35.927584342469366,24.36237966863831,16.917785708000125,10.093464355879108,2.7869904289470684,-2.0854469674041907,-3.7474913925426034,-7.421740308776492,-16.930485902080715,-29.491511102705477,-44.62735807396179,-64.14758192469975,-75.7724938035094,-56.46546102923261,-6.416167189917526,43.38666789999762,69.95737548585078,74.52670606698615,63.84563824356495,43.50581401982419,23.020699353876196,11.773667447460578,9.325686996988662,8.05896420507991,3.39491014108076,-4.1672892185689046,-14.297449754772455,-27.02464573596259,-39.63858500316386,-54.14909760959341,-72.62807113357552,-79.17560877691841,-51.261320778755575,2.3146087858230513,47.65361541867126,66.31345804997818,64.29035008802924,52.71507155903358,36.73363191488974,22.518696059631885,15.216647747745645,11.501362973227765,7.228590484934944,1.9281468479328372,-5.11211260968723,-15.128552166949424,-28.70834870932478,-46.94928348196138,-70.43288098828387,-88.236007359398,-76.80561481180328,-28.579381871298807,30.033352899051444,64.81928909174685,69.4668892952055,61.820010473613664,96.0,114.0,87.0
33.263651772438365,64.763920282658,68.63780705803921,58.38136135762529,44.588239233352446,30.28694957756008,18.802819550149366,12.542784662032357,10.388252821157403,8.125294413445253,0.03612537201894343,-13.421335533886367,-28.298855000200504,-46.754267647298036,-71.78031306866426,-92.25368051016711,-83.06042686422973,-36.46308289240548,20.58618734242779,57.396384397936714,66.95617149804504,60.910164841388514,49.45883466703893,35.11100075913578,21.162847676603608,12.265627191691335,7.469738010065083,2.268121604323763,-3.4860081300584254,-9.47759917721109,-18.31335939325113,-31.75710143273989,-51.60501600362425,-74.23751327724783,-79.23449259805099,-46.55622290197915,10.425998995778464,55.65949742534437,70.67924372290831,64.05050512245188,49.90410046024554,35.15046959135779,21.67259593470169,11.154012491294775,4.973579082886491,2.0298941260334495,0.20946821138020427,-1.737253126315609,-7.9627978496355665,-22.995662617236434,-45.5012607227322,-67.01195029679265,-73.13711810291545,-49.396063690507795,0.44980855564611577,45.23840755684285,60.83215780287274,56.13991364223683,46.67047973906973,32.74638400100687,15.841828333418984,6.3517686361533,4.744580551412002,1.5458988503281887,-6.238088862858007,-15.352119081356106,-23.45439194573989,-33.436081897336244,-48.16860060580124,-65.7264959821743,-74.5286011197946,-56.7012711425217,-10.504659777399528,39.32095274058975,66.58573345265205,69.53105262332319,60.88071614248673,47.49507579124281,32.09686215750069,20.22306177436866,14.202459584663272,9.691807414683506,3.475723338475568,-4.107409585647244,-15.160730050005522,-30.984604582957353,-50.26628904067873,-72.35728413003604,-88.99385708033199,-78.99487134496768,-33.110464153806056,23.015433818923924,56.97990022119793,63.89029962264632,57.470186240484125,47.08761366764595,34.99941065061775,23.714361499145788,15.133191435688786,8.975438622884777,4.58686157178647,-1.471965974626576,-12.27160917774071,-25.387811359277947,-39.08879988051555,-56.94299893209823,-76.65952900630003,-78.13442745823599,-43.99644140884656,9.723188468910864,50.1687695700731,65.27132875318748,64.28986425912986,55.19721225851573,41.87030362571923,29.715467068342814,21.99384023314732,18.71491958357623,16.544067878021973,10.493747961285191,-2.0183630345108403,-18.026098204908074,-33.95061479371327,-50.56490668905829,-68.20610821800672,-78.31069902281325,-63.073004498785565,-18.46495003987896,30.937072863987026,56.81226212929942,56.963971737005586,45.60920022419729,32.17549913833668,21.876882771258167,15.04992784256362,7.932117502108182,0.9940982730334933,-2.7631925581929537,-4.301751805340396,-9.60834754211897,-20.405159688500362,-33.44281954413606,-49.962126036614976,-69.3657951350778,-74.10861047587036,-44.12887540331181,9.52564443504505,53.72951132385013,73.18619019278665,72.78762505030184,58.63620655263492,37.087322484824895,18.60801216073736,10.463644434080814,9.157951256237244,7.103073604644904,1.4375746808754803,-6.775228145612409,-17.81179659131284,-30.74906524033881,-43.37678388683475,-59.343903962990126,-76.95558575750373,-75.08243854872444,-37.02625031106585,17.63183892021906,55.851090113543,67.27689348383524,61.605601503371496,48.37348984325979,32.0783361879396,19.711196275455663,14.031888556016222,10.390900262681102,5.798425477782492,0.14033977871086453,-7.66608944269157,-18.665203490815802,-33.41039153808289,-53.336066137564956,-77.11509784190687,-88.88846723331972,-66.0591998931422,-10.967321738686266,43.51615851903281,68.64986810742913,67.71171211230232,59.217817265937626,48.15092013539666,31.81915639788905,14.814950963237715,4.86903095627968,2.6026170437119176,1.6672828855256194,-1.9493381230388502,-9.937125325503535,-22.879940749887048,-38.315853543273654,-55.80655756004721,-72.30930041945655,-71.06729839587747,-35.9906299668506,17.416685145874403,54.9343635653943,65.35006718204517,60.19215271566069,47.788996967703675,31.938699845539254,19.486540329828212,12.933395988337013,9.317804144442443,6.453401497949956,1.1676736686822664,-8.06101647018841,-17.88535355434879,-27.28370253820265,-43.39587414977394,-67.7320545599937,-83.27041736009522,-68.91960367407994,-24.615029043605237,25.228833241881464,57.222661717502454,66.08176716848304,58.209079288129495,42.28128813196776,24.649009554417006,11.27614862674155,6.487676937958079,7.4242817397303025,7.829397665944433,3.4259266839944282,-6.482725743554074,-19.812670343900653,-34.09435274518019,-49.14320206538117,-63.374476541769866,-63.73151856162748,-35.57039176550924,12.777079064737368,52.834126173884925,67.32324246226963,60.52728808741121,43.28953006375275,25.711679457155228,14.64808242846464,9.727243178974998,7.262757956251106,5.99472788353051,2.5838017107659144,96.0,114.0,87.0
4.310456795781721,-0.322906012393863,-8.920269633664702,-17.75438436929625,-25.954884297010945,-37.174213821827735,-53.227358576028756,-69.98299190315959,-72.71613993588507,-45.583487278610775,4.978080633524137,50.11428437664418,69.41666462507037,67.72690346708326,57.41052565058503,43.048368308960654,28.059489558523676,17.987841613469886,12.989716421745893,8.064548352016963,1.4561361294916397,-6.812338700922251,-19.29109420901447,-36.23288514344734,-56.451723932205795,-78.49857592429947,-89.82060790469728,-68.9127449997209,-16.21097707200527,35.93178652870293,61.25921240470903,62.78863727763822,54.722776939780644,43.691133220527206,31.52497442743695,20.945980125316094,13.124694348044207,7.600970117647723,3.2315365669709104,-4.123041452564165,-15.998135474086386,-29.201724569679552,-43.64247303064793,-63.01100560280294,-80.13540234722623,-71.94327418445813,-28.96466073884111,23.893545595191856,56.92379268292336,66.12542916434185,62.33692398597751,51.556102052638586,38.02341848666553,26.970602468451386,20.67517259791858,18.191698832484064,15.396261541606078,7.514390169447077,-6.512235567700236,-22.67030575788568,-38.591458875879056,-55.687001398891766,-72.62500534269537,-77.2162606470698,-52.588552029354425,-3.146736491773011,41.51252496525632,58.92248125815185,54.29660291555676,41.679054557372865,28.717614089157465,19.722137505504417,13.113168343815683,5.769379517928178,-0.5067889554322073,-3.2074381202421054,-5.208882656546779,-12.30021825306473,-24.017853659356696,-37.68278062524816,-55.67862514466493,-73.4042296664808,-69.29788293461085,-29.635353056844938,24.511875607890698,61.8584018522802,74.77702831635207,69.90075383570334,52.76908135608025,30.944248291386632,15.145007644908018,9.7504890833609,8.88753642968812,5.815117384231684,-0.712414781390809,-9.628900237005935,-21.507945122643704,-34.384408521009334,-47.421018027459766,-64.84327538415882,-79.64700968956559,-67.66470005491581,-21.31018995008763,31.384555358712856,61.67084564065721,66.83085544531608,58.34052031635261,43.73449883729176,27.786097711055838,17.52463142929013,12.994814732214119,9.17647345325847,4.295001247871609,-1.8312253549271416,-10.490537527561107,-22.50662912722033,-38.547662118351674,-60.15707186641269,-82.87069156839402,-86.46348934104692,-52.380677910454885,6.561132455439381,54.29418542432243,70.19332036064048,65.45697862352179,56.455814350633716,43.93617967303617,26.594859804009808,10.990252805531904,3.6556736890738044,2.471019708394586,0.9668355617738512,-3.722140615022994,-13.246599395756956,-27.179601601090233,-43.11444618462952,-61.13159580820797,-74.79806311844739,-64.47691260207193,-20.874696323187802,31.04678098399554,60.39624628464802,64.89048053573457,57.21612957854548,43.30068152610309,27.711598220638923,17.094052431809473,11.701345078235217,8.520730806236495,5.329751998224379,-1.1668350129623224,-11.033238630631587,-20.4450222273625,-30.883059949744002,-49.99786405141641,-74.21589002075838,-82.76441855534304,-58.42986672351225,-9.467226180191512,36.88124044620038,61.99931642087562,65.12240262601874,54.10469715791689,37.123409929147606,20.061190374186005,8.992255715633947,6.450775179653992,7.8419763134617435,7.155556149967536,1.0685763831104753,-10.106459742922587,-23.91126913202581,-38.30826424051835,-53.65812772985749,-65.74822593890977,-58.74264384436222,-22.561039464198828,26.43540974043089,59.754860886535354,67.07329335532044,56.1494486454599,37.84153706065372,21.71177251564823,12.780059255389354,8.8557169404495,6.827293966754731,5.490386920858424,0.41450674822941524,-11.549878145269732,-27.417014404654466,-44.45338333219164,-61.80447616163653,-75.92235775751703,-73.79119044864778,-40.41291893682812,13.575638528470172,55.66857422380194,68.99078071540833,62.70625480759269,49.87389423750387,34.962653020990246,19.692011501009524,7.737516645108392,3.457309886981165,5.239267480412765,4.336491652020744,-5.0647141428531075,-19.62160301386081,-33.51787879964432,-48.48482568814667,-67.68325087352444,-78.29569237270647,-58.27850664171478,-10.762577933337145,34.821823284780756,57.76810113923644,60.22926399095127,53.762512107090885,44.04864246835763,31.77871197968986,20.87232139429556,14.771601502897692,11.35282243641628,5.368630767502078,-5.840426335067158,-20.257052332751613,-34.352560306689135,-48.790410184333005,-66.44268540516086,-80.31914496341066,-70.1845100296621,-27.36671058314541,24.742906662861618,56.04829514637449,62.572411324866344,58.50733606057694,50.726509446103464,37.96849545388141,24.306070012805257,16.014732651384307,11.951635862170503,7.3487788782313554,1.1425432291025341,-7.575280373092159,-21.52270518428232,-38.43222841154522,-55.99997475650267,-73.24592466086777,-77.09765070312663,-49.65461232560424,96.0,114.0,87.0
-76.07175856398986,-73.52217219134249,-39.83071430674957,11.715363160254325,49.58633136540193,59.147995569472506,51.02806273297551,37.72307255440267,25.64146966709082,17.77937390670633,11.0693525431405,3.6913818361058945,-1.667455872352402,-3.563600884950893,-6.598460048536417,-15.39883932320896,-27.735074690519827,-42.32739369598717,-61.52243939750303,-75.57903641094244,-61.232082646312094,-13.857980941998784,37.88671265165984,67.85915776823492,74.91288547439335,65.97302901479293,46.47629263441584,25.350559793908374,12.63361182860584,9.414319233685573,8.388716603459082,4.220737480888837,-3.0354210522005864,-12.760035266870196,-25.284747201150218,-37.97145441104023,-51.910429091055796,-70.28468656061054,-79.98372576113813,-57.080784401901205,-5.077942473889441,43.05761513026184,65.30035631082768,65.29262550703577,54.589760260505344,38.94202626677664,24.034923797255153,15.853360798833144,11.98339308411903,7.862990348027759,2.7018346638046102,-4.021328338085821,-13.597989184962053,-26.670966465294253,-44.17749791465976,-67.2028164995528,-87.03795970044182,-80.64900457991588,-36.44712585921906,23.033320479869175,62.16050002208819,69.99079222822235,62.989873490830504,53.40046919258199,39.2514032726116,21.51485256588439,7.925516479111971,2.9894873252851424,2.2724638203151173,0.0017630359648026029,-5.912944844343087,-16.947288657105656,-31.61056559859145,-48.12833328661783,-66.21207822392226,-75.22856291941886,-54.82167540673196,-5.021729415495651,42.549860330461605,63.683220553633525,63.4956141392411,53.72042358810489,38.640699109880984,23.960705076489077,15.15708954784897,10.638194807529514,7.741421662391048,3.9055297157026243,-3.820410289320198,-13.926828689636325,-23.026339926079185,-35.29034745882631,-57.16641503692302,-79.36957759656353,-79.32231304058044,-45.736972667458645,5.381892650181494,46.629650351381116,64.88970427014144,62.984018433207105,49.52546581390036,31.947876517040008,15.99533137455311,7.479202785987448,6.745339155029924,8.068427036401777,6.00385322233994,-1.7265818665231414,-13.9490628908404,-28.034133353017396,-42.624913021095715,-58.00650097608807,-66.49691427451154,-51.10931330697915,-8.38435425949212,38.62829525749819,64.37790539356102,65.29715111210737,51.1613068341809,32.60204054555181,18.37174660904727,11.33171835342452,8.117592554440082,6.4843967305489105,4.667533313341087,-2.3863616765489724,-15.915390635650262,-32.26341685019281,-49.48358598111698,-66.5661710542915,-77.81500020349856,-67.57534638784922,-25.59779457031687,28.277728591304342,62.42644512506663,68.46895062101123,59.33432277166244,45.71642274783335,30.47541478260718,15.675313319015958,5.605023231728034,3.6648258040328243,5.665201606197932,2.510956254578003,-9.06104776828066,-23.810418606993096,-37.460042937980226,-53.75225152386139,-72.70337826122805,-76.25062564404242,-46.293886888993924,3.9590142170295715,44.06029996868565,60.080132035230385,58.843960660711446,51.26185023146066,40.67103186359065,28.25365079720791,18.59876368585541,13.73139856072634,10.094570341250273,2.6582620178181675,-9.856665005536408,-24.445315410747934,-38.325839821249225,-53.56128277419017,-71.58676650464221,-80.77758813101417,-60.7036360582305,-11.672946259291699,36.706448688948214,59.93669122377104,61.90822462002325,56.675720848862916,47.5376930809325,33.758676607158456,21.245781702739933,14.637905934870004,10.810039923966468,5.6922336622878875,-0.9735001805008667,-11.048953175242358,-26.30120071037053,-43.4097876793555,-61.265663086258414,-76.6996181942364,-72.70569955807085,-36.30835037403522,13.489595457239602,46.3226220539157,55.54269567626279,52.82454189647384,46.711229144778336,37.572689684770786,25.343422394680704,14.5481856154594,8.876144825292393,5.953376120144666,2.8221461195137483,-3.003429349175253,-13.009165697535297,-25.738362641728507,-40.609979358867626,-57.92103674920336,-69.66516227440464,-58.063407770939435,-17.51548077517443,31.86930655217543,62.24767215144268,64.53419719458437,50.67064470664244,35.901471222065524,26.57798873356479,20.164923917814626,13.289076412741782,7.542053617241594,2.7384021796459472,-5.481890194798388,-17.295069720650694,-28.285305899934144,-37.983254139225146,-52.485735020457724,-73.40859859508156,-83.68727765172666,-59.13716545525491,-3.920583259450619,46.674922587046765,67.84159976134517,64.02354321925257,52.52538762955041,42.51236202201024,31.22072695931632,19.181221759729876,12.4563091575654,10.319071285370851,5.638543300065952,-3.2398893833213376,-13.193986951455184,-24.136237110991566,-39.14423854513119,-61.26730580167545,-84.1882659019126,-84.68511372641997,-47.54086413917603,6.191992832074788,42.19141964187598,53.32949661934964,55.065568228543576,54.501549153057596,47.32811558570964,96.0,114.0,87.0
60.43081316297698,49.92156613137167,34.21354744474817,16.80499943689109,5.657001456516324,2.679775740711428,1.9079775533280356,-1.2577746996710284,-8.560222203736412,-20.95444559850955,-36.16596755106105,-53.35056666198925,-70.63485422231383,-73.05814011836999,-42.44395457452374,10.572217102082057,51.60559750463582,65.1650604909544,61.376684294787495,49.75453333374411,34.00764639194386,20.76748319851737,13.572298193184388,9.709477995760821,6.894092473249528,2.119800363129859,-6.695227385819244,-16.67195929230601,-25.8397450597444,-40.62446343395515,-64.4695150494425,-82.58725699123175,-72.87108651639939,-31.49617778185715,19.28420112739304,54.35062110319978,66.06316586355638,59.89437732907562,44.61834518597344,26.89455713552021,12.593174313477729,6.663014251091812,7.20264441826811,7.992271029610613,4.353453844115944,-4.905274654037575,-17.940417365904782,-32.17421257383153,-47.063920012655416,-61.8704397241943,-65.1571697960737,-40.980680553926604,6.167657807140558,48.86186956218011,66.8479107251583,62.27012848622139,45.81107303847699,27.76390672574763,15.684232285558267,10.1834045884071,7.503664949966052,6.164694714618229,3.3729372874737593,-5.768833967144067,-20.492933466320306,-37.17646744599886,-54.526761030189036,-70.92454665797354,-77.90235904721375,-58.461273794192905,-9.6976144804151,41.14091745882347,66.67896218173821,66.7207687162098,55.64806197417108,41.42214858016481,26.006291848945747,12.053269319820147,4.210722427981587,4.241407525853844,5.615122248929768,-0.0848497366541957,-13.315844130424468,-27.833837683540725,-41.641383053389845,-59.39104215720189,-76.46204773587908,-71.14982376119143,-32.4863536535447,17.690844301425805,51.13771768150302,60.93141547587408,56.99697447074463,48.52314828389922,37.103114549862916,24.98199552120437,16.767002715891724,12.804857254895175,8.489423046202987,-0.506698082434713,-14.046981331629091,-28.532237060320064,-42.40668338434044,-58.663556941978364,-76.08180876181962,-78.64011692824302,-48.56662156246296,3.9191333673320248,46.34130490324804,61.9860666089456,60.74453833377615,54.547442954022614,43.89274829079556,29.668212267922822,18.74320031403726,13.497111902579462,9.521374566684635,3.9266780836568462,-3.365854813212244,-15.011553734868277,-31.20232242099865,-48.44943040869612,-66.45245020007361,-78.52657296653837,-65.34133430158757,-21.756337978223442,25.580716385140846,51.02891592519078,55.42070069004542,51.28458436525829,44.453606685409795,34.241484740690645,21.80563333340433,12.400368572631022,7.916191091720668,5.164746214189851,1.5381494545288255,-5.491855404057923,-16.487748382260698,-29.768800369887217,-45.4562807490076,-62.60198405044369,-69.42898279196642,-48.87314165578588,-2.804107659596396,43.50691805909369,65.53178201853721,61.420833261328895,46.00560295961157,32.63998189006302,24.651012114989765,18.231799801447288,11.404311939268263,6.227658991564262,0.8705215653049002,-8.706223001879415,-20.714831459297482,-31.040095139469006,-41.3614901426278,-58.22586306112046,-78.68293853062082,-80.80712879733949,-45.062955826759094,12.821061914075454,56.105313864063476,68.5753997035129,60.793656185892225,49.48083927798835,39.5459618263652,27.552361422389986,16.51152708265058,11.667931266391516,9.47591176177505,3.3694237480854827,-6.096963648057962,-16.154477794438048,-27.880787637902266,-44.775875527325795,-68.57022211080992,-87.83209148028361,-77.60824571068868,-32.016775047178136,19.426202585594588,47.426834878351706,54.12369751804629,55.28611601562443,53.22316023008789,44.11157537939755,32.651834245392934,23.5141515783148,16.340273310281308,10.693784259464888,4.432414689440726,-4.879380113302641,-15.203301131342268,-26.012304789083476,-41.486476209501305,-63.061127274905274,-79.19576718161262,-72.106438025375,-36.40144796651514,11.132054375611798,45.08393893579502,55.99057324136799,52.73374717753675,44.932586222194296,35.17553575011498,24.916370677175216,16.56356332846077,12.750048620984755,13.047131773685177,11.391575956852353,2.3241073697016934,-10.033402645645808,-19.838249690941765,-31.17821639944637,-49.37760461341474,-66.6119192069321,-65.65299811837737,-37.835428457002685,5.928596713794759,43.714432243689735,60.816426618010524,58.012933554543075,42.97328538497109,25.249029759348335,14.465439682544583,10.9207809812924,8.7139220529733,6.271717951904396,4.512485020398796,0.7060359826521759,-8.38054603198796,-22.385366281401794,-38.12423081722798,-54.84037690848648,-70.57761066658509,-70.21383674047179,-38.65416779302935,11.791707821743968,49.47115002961285,59.118442657135155,50.902690407565,38.39120583662293,26.18047639525841,15.823872344885123,9.859255926735184,7.293861936958577,4.362879539058415,0.37041088939760475,96.0,114.0,87.0
1.4938066779438652,-9.636021378335954,-25.209039667060434,-42.14608115757298,-59.53298408998909,-74.58005979869476,-75.69581586701636,-46.64551210826889,6.367597328406714,51.673914782535796,68.70315083790061,64.11454095295433,51.737868297255766,37.01903547270661,21.64087655446035,8.955905433206308,3.5428348976692354,4.944262874244448,4.912545779180686,-3.3629905996728517,-17.644094910648562,-31.732354852768783,-46.21624426629811,-65.1257427361801,-78.28161188873032,-62.993224395417,-17.683056666950105,29.855143344284716,56.12299656558996,60.65159779395924,54.83938739902601,45.52259115591433,33.45254052825848,22.071852147424295,15.327239955382606,11.8458457405683,6.459720320651688,-4.077911580212053,-18.30113497946706,-32.52742008345693,-46.7069856954671,-63.98190054488926,-79.3732768011352,-73.55755839580698,-34.379514696738845,18.537578535875415,53.531114420309216,62.6296605331799,59.269202036810064,52.0355328129287,39.8898573798612,25.895136219674768,16.76971305211717,12.443987071975972,8.069312668975762,2.052520024441197,-6.141428295856097,-19.393103655995965,-36.14682586056647,-53.59202003265249,-71.2673071343757,-78.15043631190404,-55.16923420980709,-6.913084490764272,35.62945545322607,53.904616921090266,54.65040905578978,49.56780586003362,41.8953806771616,30.686567955949872,18.549697716448158,10.706791792397851,7.084187313653348,4.310193795417878,-0.04539090629939314,-8.332330167293144,-20.137640566245604,-33.996739336794136,-50.507958580084434,-66.48227421393784,-66.76041219221906,-37.375305186523235,11.921139258200501,52.93996242390648,66.5185699391716,57.38440430555962,41.585774311234246,29.878490780513413,22.83888598718885,16.2227677549283,9.696535527514934,4.921091698807075,-1.4034121340390668,-12.150894541410446,-23.949912267615716,-33.74835999882272,-45.34800108577932,-64.41909142254065,-82.4328936908005,-74.48392350484106,-28.9754831384713,28.16622527921449,62.770521231661974,67.58339854356271,57.36518842281275,46.620532250758686,36.34002235526159,23.943006314316314,14.436047430621992,11.125602905211762,8.239342571681915,0.8079637445999158,-8.969441385419527,-19.240244052377008,-32.05867268493991,-51.07079247436806,-75.62634508192295,-88.87647791298362,-67.2904638543023,-16.012247249287334,30.445123120054227,50.788777537239746,54.585489206182565,55.2825479342737,51.26892395331709,40.709669562720336,29.745200095391397,21.272975513053225,14.579399851911681,9.119769648247868,2.034212982657541,-7.88199372465506,-18.156192373074514,-29.776426947268238,-47.32355211712834,-69.10721619913065,-80.15477674249402,-64.40007866450026,-22.68433612504898,23.203447279418835,50.42875561824523,55.94166743963298,50.736042798752486,42.27484534423051,32.17128317610707,22.178606653574494,14.918482656572968,12.579423041481675,13.131960231400024,9.546912444696538,-1.2843068007764353,-13.154165951824377,-22.574732193982303,-35.78024173184669,-55.16360356017847,-68.92156762870131,-60.25528560284738,-25.9219126509623,18.398815721309678,51.0033443531462,61.746230557418905,54.554753857461165,37.63217881653316,21.17209245878746,12.956992528393235,10.341256997473852,7.960351550862539,5.737721552139316,3.8097665561588334,-1.3111737994118065,-12.043762467823457,-26.878410396426638,-42.790134807440424,-59.871598073620675,-73.07426319888695,-64.40707346561962,-24.683590684288095,25.23447445027469,55.02870970597244,57.837132459978825,47.37127323376324,34.782393924868266,22.88515999261113,13.58038377680066,8.948653816326999,6.591820965874155,3.2721782269996593,-0.9014273455411909,-6.949181714618781,-18.12299824712542,-32.927453278728606,-46.65593571797324,-59.04721172475239,-66.8926237774554,-55.188035390932384,-16.095745824965245,29.665582284718916,54.55668166715403,56.73695116603419,51.49390824480541,45.22184639261846,33.90087784244536,19.564820973455255,9.54998454173273,6.095563953021483,7.327944912381422,8.548954077169382,2.882996122399988,-11.694407832406739,-30.19445671410503,-47.94061113181953,-63.04358819871704,-69.14260209720575,-51.72968674454258,-9.015122656319395,34.80833040913899,58.05675564272141,60.78984968977727,50.019042502909414,32.26674060832506,17.70065474197996,11.460603964893075,9.557595267959847,6.871843554918697,2.215623453249982,-4.157889096967286,-12.013814220945742,-19.511921820779783,-27.001282540083363,-38.564928903979975,-54.68028132638517,-64.70016459291732,-50.22199608073006,-8.194508068255905,35.835306265586254,55.54783343381738,51.00589842699817,37.91632056739441,25.18201953352208,12.95334964048917,2.390575221348043,-3.466540564926459,-3.242386513649439,-0.4926583567296352,-1.4691870384610008,-8.05854659996235,-17.313715838105256,-28.36645223939355,-42.46639682376847,-56.103410413068936,96.0,114.0,87.0
-42.6644380833618,7.335086295485826,43.45730983744809,55.29782805334686,53.46556073486363,47.66349120096092,39.011095771842264,27.025687649289278,15.702147580940775,9.387133929035627,6.307802750657795,3.332960266754144,-1.9829483053867865,-11.474990985637676,-23.936550922128973,-38.46270373902739,-55.61582900528622,-69.05940586766239,-61.43061112560284,-24.075445509879383,25.884869703586688,59.89792741680828,65.53802135635773,52.837142366645686,37.58091351702115,27.542424244086348,21.024548309011987,14.201273655250906,8.183036714092445,3.483863991674587,-4.103799729437794,-15.678076542094018,-26.96502357529512,-36.580362745799874,-50.061502944286886,-70.66289991213458,-83.93440176593333,-64.71613370696024,-11.864133439385784,41.41110460808711,66.79733695010135,65.34452585941511,54.00695748512209,43.822588012829144,32.88198805077066,20.58969481476324,12.958036020208874,10.608229099418843,6.558601258782091,-1.9383254489628206,-11.853402479554838,-22.528218804702945,-36.768816122991225,-57.95136466490497,-81.81938674203873,-86.79004272891581,-54.25443304362855,-0.5262343237127365,39.03752303879944,52.75527241510889,54.92810604385273,54.873939131683954,48.69033175321137,37.31631303856582,27.070892760359328,19.168408292420192,12.947384891869744,7.398557317793546,-0.6385137541523656,-10.88133622743917,-21.190360724845767,-34.07368705140032,-53.62325407753663,-74.26732279836443,-78.75771360075863,-54.365512193374784,-8.610926113132043,33.5610937701002,53.85928072473938,55.03980320183663,48.51243181529909,39.46877405277564,29.172704429447304,19.667593267751638,13.712553324426668,12.694161194126336,12.844903915031717,7.014304358277447,-4.955618772372501,-15.982737060362243,-25.65818076172586,-41.00781495037106,-60.52345232954501,-69.25646678976523,-52.578414812768116,-13.129549121112234,29.8005227776376,56.36244621205289,61.165836420415246,50.268541088982545,32.33370204963464,17.874537970850188,11.930795033324985,9.731386973620308,7.220996283934079,5.263372162665917,2.828820863019443,-3.8252488409035066,-16.065352325684067,-31.425078545193504,-47.5815809176656,-64.69924978395636,-73.6912214125941,-55.76733677312088,-9.78768395771647,36.80527135056879,58.18111823790096,55.48782664585676,43.72826057725432,31.228425205646193,19.796179572576087,11.769419283606096,8.232490193195668,5.777076629007064,2.121279443449833,-2.3044231835889457,-9.573594218344658,-22.265431195486066,-37.11276013246014,-50.31714831357813,-62.256020538608645,-66.29398751536296,-46.3348347599027,-2.0913712582341843,39.6773944583031,56.908519708628276,55.38266729167585,49.91574422647134,42.59171007128219,29.7280905630569,15.997235925975513,7.922517481837813,6.106371244706542,7.9864468439843845,7.869234809642782,-0.5464979419107823,-16.91616268142921,-35.502345828112475,-52.68025403857595,-66.28670044550573,-67.12536249043079,-41.286607317260234,4.869051804175899,43.99711813044997,60.6036632362373,58.82688436473852,45.20552169503815,27.299812479870393,15.099230416580237,10.744202929223292,8.99172178345032,5.704620266258275,0.5620371677456758,-6.334339395542272,-14.294521545746196,-21.528717918617556,-29.750539819985825,-42.976452365654694,-58.99140919413876,-63.72017959790001,-40.223290905206476,5.832179896291002,44.57443951178347,56.09347417324868,47.461833106462045,34.12454348920258,21.61300627851939,9.603217327376905,0.0878093031792608,-3.976722598249344,-2.422466135149632,-0.1758471230275034,-2.8875878009231664,-10.589371930327777,-20.248928501585922,-32.13632425099924,-46.837774017186675,-58.27143563091709,-50.52542602739391,-13.872269435774983,33.47623534241044,62.41430279273212,64.90825964582365,53.318220861098084,40.13050185595379,26.82285522143208,11.824720093327665,1.3802937256337253,-0.41870937415789994,1.5018446737424667,0.3131053233567551,-7.24228053832999,-19.09141739422307,-31.496431259475788,-45.885513187404854,-61.16800150071325,-62.57894247415707,-34.30214093155815,13.001690381782943,49.40016377108353,59.701264485794006,53.82848780764319,42.792176456988415,27.90539844743019,12.552982925511406,2.959017121734573,0.39725315794314525,1.6262086281939236,1.3293794271199275,-5.199243707957831,-17.002918322136576,-32.070870688692196,-51.21708207870205,-70.10102966570385,-73.24360476747317,-47.17792933425164,-0.8760171381274906,40.01268518712176,58.3939735546672,56.699516569336176,45.06880834289881,28.47963852147907,11.714963621624848,3.10459354836828,4.301055594285295,7.530072048439313,4.45758253075856,-4.996053474441801,-16.197245835452904,-27.99260075999235,-42.420556804131,-58.88331864695375,-68.77063352699265,-55.150601377300504,-13.614239746873565,32.8232754109853,59.11453253091027,62.48915506792122,52.85760512831592,38.217105763878756,96.0,114.0,87.0
