26.454750267151915,523.9805741325782,690.9544831959389,612.5010295405701,524.3246525565996,487.2805817631355,452.86359561816516,402.35331252083614,349.2190197793641,299.9404425507559,252.86188269803264,208.27656875395584,166.24533459142134,124.64099786142009,83.6507056797702,46.42342131467793,13.373615723848477,-18.982660035632275,-53.06092699142591,-87.53238703157454,-120.97848208149223,-145.80349728849336,-139.08761470156057,-91.11326083016377,-35.65754020816842,-10.933891065834828,-14.232237373688092,-22.049463971212568,-21.851138709242495,-17.199752134312348,-17.145265696725566,-24.92314215217075,-34.61074363193354,-38.38056734021093,-34.41886431999399,-26.911297291371667,-22.36083895320576,-26.782485848309,-39.2112534616372,-50.15843928144748,-53.848720274304284,-54.52856387609145,-56.782450056024366,-59.1779760538733,-61.46374824482573,-66.11102146991048,-72.0141813352636,-77.24630347290461,-82.20841627278801,-86.26429964438739,-92.22779266455983,-104.66374639592044,-111.10276028350796,-83.73196564627355,-17.625392417446367,51.356070675326,87.15174918672044,91.16507432277623,86.47231221933913,86.49625712878007,88.73012737798983,86.47082340110211,80.59203224674037,77.05832045587165,77.18654363408122,78.41388051976965,76.5453886464566,68.48293567997578,56.2197594431799,43.00388625479954,29.19645329412426,14.18626957256383,0.9834245191026202,-7.823769019895192,-15.267902333932314,-24.23822125925991,-35.651320033563685,-49.54339502033129,-62.812593638326426,-73.75110394109399,-88.97760564592656,-111.34591562342958,-120.14613012493221,-87.34972415749928,-21.8019610106576,32.43336905060336,52.18164156055504,52.38734403325837,53.523141233256275,60.91255249617973,69.6245386807687,74.42294426432993,70.07622380862794,57.043310609837086,46.279525842693026,45.33993191418109,46.38239733483323,40.34542464424546,31.639756343351145,25.088074928140554,17.23023028855209,5.148655127967068,-8.508376547691126,-19.696506948489642,-28.86774467692664,-39.06342121318714,-51.05134736365422,-64.51488319783472,-77.27802552640058,-86.461521511804,-93.54702354907249,-105.36380550732471,-122.13551598735026,-123.01735811059913,-82.40410729541411,-13.097031304867553,40.231719963793644,58.281974117176034,56.55684703531177,53.91424078740168,59.14088011816447,69.04721786361333,70.83763897419881,60.99205327503472,52.19624002189275,51.78074936692448,52.109577339983616,47.39072575377837,39.259646579536486,28.98568818622104,17.733420988405104,8.30137671637368,-0.10853978846517184,-9.675077540544624,-19.649410939496175,-30.5712368526949,-44.373849092977025,-58.011367094845205,-65.63968477104343,-69.33227702550718,-78.83965165499896,-97.81115540808769,-110.21294861991257,-87.94185704782636,-26.562269998340053,37.26503101420069,68.55714290451546,70.76699768242159,67.23970420947283,68.84850319722746,69.02842723785724,62.22409754482296,53.21403935563894,48.60556626640201,47.65641138467034,46.98002122479703,45.76910062191948,41.99430773380285,33.60534626852822,23.237574814943823,12.456743253428519,0.6683157963011872,-11.052760580181554,-21.295590991986625,-29.672943160708858,-39.8689915241204,-53.67214720072748,-65.98959088515248,-73.94208824220786,-83.21226396406578,-99.31108103833571,-119.0608104514674,-130.7092671900703,-113.42403534688431,-55.683109770715575,14.708990341953987,56.02911479683086,62.829216157555415,60.35607965267367,65.6026829233706,74.79832745115529,77.71355845693115,71.78111450891325,63.63863155811199,59.570064387473884,59.80609358529685,59.55670008984395,53.70169136118119,42.09657803065613,30.0846027514636,20.76860571827515,12.2339059399101,2.4004911112874336,-8.915736398770388,-22.530533137244557,-35.46744746175324,-43.821036687588034,-49.99522545037383,-58.73168335940844,-70.36055561562871,-81.81182153307216,-92.91432182262943,-107.74092102562619,-116.17703447782822,-89.57909635686813,-25.259533795810494,37.198356107389344,65.08562658464369,64.92260914428499,60.026968776473026,61.28678439503624,64.0223940805053,61.35564555908255,55.5211530979565,52.191236353705605,50.98092258765051,49.50246228082214,45.897283151403336,39.11145402720741,29.565465742004953,18.549956758285436,8.0193217368911,-1.955273069479871,-12.260002751573872,-21.85514908903828,-32.6782247555669,-46.86051692198356,-60.34091589777166,-67.65329983782084,-71.4222291769226,-81.8243017902461,-103.93253383804945,-124.22044561085582,-115.53180341199673,-63.777989515093516,6.9522703617893935,55.37333025211743,68.45993229877342,65.1757610573459,64.73840606761686,69.5118185265401,73.82297508742414,72.07779272864468,63.809823401817226,55.903297859224914,53.69588369128679,54.94875785033811,52.431970097251586,41.47195890840415,26.53674723965737,56.0,117.0,77.0
79.14634798972072,76.80108915464176,77.58039087687922,78.40521610211054,74.85707554537902,65.19404361553761,52.4209339326374,39.129803122823276,24.936326076149353,9.974404726935749,-1.9610278257138134,-9.92737901185311,-17.65067482270851,-27.249715437917892,-39.47965517291595,-53.63477117878933,-66.07802403216093,-77.28887360716394,-95.11397050948146,-116.75943231231749,-115.56289616573451,-70.07557634628157,-3.0928193591000612,41.52625108516989,53.14817279362572,52.066164141568436,55.15691562191413,63.550579323836565,71.63721470832782,74.29952341929511,66.86154189833769,53.12508530609269,45.06662930447972,46.04066375350746,45.401828792193236,37.722890444363784,29.569371609449878,23.182313477026238,14.146971515661663,1.153610253912013,-12.089398055020725,-22.40245913360861,-31.62890918066423,-42.3471405651432,-54.83396488769225,-68.42867643037013,-80.36008170523777,-88.47858373729478,-96.1752198121842,-110.17790223035101,-125.43245127605147,-116.00209878766586,-63.472530425211446,5.678880456625658,48.778063002946084,58.82328115342989,55.29761531062956,54.503857973073,62.00775809447457,70.93045110060562,68.80807840678975,57.70164349673981,51.362183692902,52.25039180964084,51.25606397367805,45.29163851143683,36.500118991490595,25.71006760003844,14.753420334611903,5.90902412494147,-2.7495918048067582,-12.55513432025478,-22.604011581504864,-34.251299135122764,-48.63986578603558,-60.95157924926709,-66.74671489247118,-71.05039359552045,-83.62735764777294,-103.3086232626102,-108.35096128641666,-73.21865736034246,-6.259343320989042,50.241463329741535,71.19628332437671,69.43395887986436,67.26489036707484,69.47735609635976,67.74143776506584,59.46701692999942,51.31542340083884,48.13775619539917,47.508508297907056,46.70826861913852,45.10315271102594,40.000964089439414,30.657836241324766,20.203509293001662,9.135326291442084,-2.789206716587006,-14.229977578431564,-23.824242507459324,-32.21582620015864,-43.620495611467895,-57.66169239356968,-68.62364686168328,-76.11867349435373,-87.12746456361654,-104.99722243241149,-124.02367332364958,-129.706735292297,-100.49687510696374,-34.52110990330048,30.783841803379346,60.6619756764321,61.885499185251405,60.936969302680176,68.33233004365371,76.62815610141557,76.71644717855133,69.29176030213141,61.90713367779115,59.34648612065808,60.04911285748445,58.58603333828233,50.75432481025811,38.422696484565144,27.129665715074204,18.367405914802017,9.536586470379094,-0.6802627720174292,-12.629552254214948,-26.58991054601818,-38.371575065176074,-45.59070417982256,-52.1271510021862,-61.91600886913733,-73.80813103539953,-84.88658195741876,-96.75952441697376,-111.99772386060249,-113.15537101209902,-73.65468053908427,-4.923584377086236,49.22223005015027,66.87741549438049,63.14036436841495,59.764753239019406,62.32068530292561,63.91794594921655,59.67260885499759,54.20613373847349,51.74357259068854,50.66609922544772,48.75428297258216,44.26800072256552,36.594168338589334,26.452697258229435,15.386426135769996,5.158358270084014,-4.938302642003394,-15.1083331941369,-24.684590638459415,-36.481221609516744,-51.14174265976436,-63.17025668541779,-68.73535256294123,-73.27017736837334,-87.20297460455902,-111.08136863822172,-125.86047846064649,-104.72171744416438,-43.34337586605815,24.60331244332984,62.32197472106172,68.0670519441791,64.35375570000457,65.79402848402829,71.08076011959935,74.12013491135396,70.14868932526261,61.12900525549512,54.63438175947763,53.974060061186016,54.95134898055269,50.10920661533334,37.19446315869375,22.586339722549628,11.609213938079554,3.2783192973927764,-5.243491941347718,-15.527305155442665,-27.306134587053325,-37.899267338599714,-46.61331163419991,-56.21880177349653,-67.51859532589921,-77.2702541569695,-85.08661928961094,-97.8023604967438,-116.5151562287691,-120.86122364355107,-84.3062325537903,-15.69297412402496,43.3975647058692,67.4246867581335,65.7158991283343,61.66099588131736,65.74924607256598,71.49961010839638,70.27867562322413,62.08858062534125,55.16862838064627,54.46805580675529,54.626076319476205,49.23879566395641,41.31637769038469,33.806321811832866,23.030798455488185,8.651327112169882,-4.129362698212722,-13.679348122803418,-21.521238168662574,-28.579628230798665,-37.54423986259266,-50.50003284038075,-63.47013487865535,-71.44535247441378,-78.94774570943092,-95.6850626403557,-114.63978860835788,-105.45653508028923,-52.03932732091198,16.315236028935324,58.745499317318405,68.19086605204116,63.22756788733499,58.60945745664836,56.04681797069931,52.81752305567316,49.0384805104974,45.93981683505027,43.49265044594031,42.35593722505079,43.483093854478255,42.51863215462541,33.18220710118217,18.206437500871466,5.7759175663390465,-3.3279797906115913,56.0,117.0,77.0
51.229801907180494,52.49459006772558,49.953036285589384,42.97566663767279,33.56504394070983,22.407261108930996,11.993046095702367,3.523189944252792,-5.51004307555085,-15.431736382905672,-25.687095510867177,-38.21528046204766,-52.73147451733898,-63.273762155291145,-67.6868465555053,-73.5341183953397,-89.16333253540732,-107.63679792832268,-102.88328210234226,-55.55427170532095,13.016783922426036,59.95814055670049,71.88431338289669,68.21215674609809,67.75410031900368,69.72024373318249,65.83609406739919,56.73714469007511,49.89428692049742,47.87777822409317,47.32259950790278,46.39646567418944,44.13048618387225,37.61411664068552,27.64969246163737,17.12081017538942,5.726763037724112,-6.203209798988039,-17.2456461988699,-26.212858599138407,-35.050628095297256,-47.63901215493095,-61.3509625594611,-70.9044409154083,-78.62133890007354,-91.68016260581652,-110.82805453182291,-127.94884232415923,-125.67074940266433,-84.16850577157697,-13.44047596542975,43.56640890978714,62.76708177966459,60.90344929054625,62.342217948333705,71.14297513193785,77.69427104268486,75.04311503369024,66.83031158044835,60.623824275148074,59.42226830468282,60.103922143420135,57.038209003664704,47.40005093601207,34.87187723200378,24.41765290717055,15.944669195353978,6.714807036360266,-3.8926042379395716,-16.559202573316846,-30.45071022025859,-40.843143069110305,-47.30408873443081,-54.57409174491668,-65.287632689867,-77.15568661766135,-87.99128878711235,-101.04599950814351,-115.19294911137554,-106.43066241706691,-55.02584310470069,14.002504416607595,57.91700432407384,66.85503028929264,61.51981793987854,60.0830901645871,63.25893271945745,63.240605339192015,57.89950148923311,53.192377363528394,51.405829235739425,50.28163219268915,47.782225111550176,42.36308797370782,33.867571581877414,23.25572365869121,12.318185096345278,2.3016984986249103,-7.942440990175061,-17.86837354999452,-27.716755380647726,-40.575940309110656,-55.192306824871665,-65.38916027284176,-69.68741517282628,-75.97054094770449,-93.55765420272263,-117.53874599519784,-124.351856235018,-90.24835900091927,-22.339291691005965,39.45244699935964,66.42600559922711,66.96471250613256,64.08383772394086,67.1879604002382,72.45876333257132,73.78252715981601,67.74963126116951,58.69663717027095,53.90644087553108,54.413471526989625,54.43296924654187,47.03907727859027,32.78978341567056,18.99007444669067,9.067673395709942,0.929732131961732,-7.9939049941739375,-18.87059464739094,-30.60406272351746,-40.520095259849825,-49.171994982036736,-59.40540419017865,-70.65339903458255,-79.52197890461039,-87.91860332837199,-103.03362235470388,-120.66239928128782,-115.05715641725214,-66.17551534703654,4.176225969191339,54.09265307442749,68.54497726597391,63.911402465641416,62.08611533309788,67.70455257751816,72.08141859011502,68.34104305618632,59.56917042828949,54.37778937419521,54.84163262171501,53.673880167736584,46.939787918793236,39.194681691055806,31.203936851622107,19.045813953781625,4.596896860465859,-7.1481737249197685,-16.08332856946648,-23.567741646931974,-30.814435116020256,-40.91749514624659,-54.56201409406879,-66.3141706423781,-73.18800142622834,-82.61149773293474,-102.00208129203266,-116.32070787870698,-94.10347814045201,-31.6894224912939,32.33349972188924,64.23871946724461,67.3292263582658,61.575236195769136,57.7954661605242,55.24167707137851,51.71324291165069,48.05122034934269,45.17933399802807,42.94543781613765,42.50884275217956,43.76237095578808,40.79090069326245,29.045226112117597,14.112667127113843,3.0273982262832813,-6.189018661385791,-18.492917415228526,-30.556224100449253,-38.30486599494463,-46.10899655417869,-57.744013727693286,-70.22053661178995,-80.08651050961437,-91.06416912728747,-106.69834082677029,-113.01693360556125,-84.50372130090938,-20.381865691183013,42.810299309154985,71.14204625060536,69.14413223072073,62.89358651319422,66.02281545809761,72.33294407697562,72.3449308404627,65.0589628266114,55.93724899348423,49.869395852035346,47.379714480542795,45.16277983614356,40.81176975545293,31.649217486547954,17.1134072913873,4.451612024153687,-3.0517604701077583,-11.032251101564981,-22.512782177138913,-34.06776977004256,-43.82233423764022,-56.03879904698384,-70.48459272665076,-80.12574272729182,-86.34941271552192,-101.46256694329496,-122.66644808782881,-118.62908722842879,-66.8880604800641,6.0187183775451665,53.32891865280208,63.41708948065626,58.3909025084794,59.50343462949476,67.60058759380182,70.35257924628696,63.69921108473378,56.00788266092939,54.50448931741654,57.30292379058244,57.54479393927779,51.014507144074315,40.79277073334884,31.817960928287423,22.947542304617745,10.52912136315686,-4.362440518513957,-18.639187819921364,-30.317176220990483,-38.72514602764651,56.0,117.0,77.0
54.8881132273916,43.79599406531116,31.536104768132322,21.892008376203925,13.43302664680709,3.784918083620891,-7.281517179456187,-20.63477584170511,-33.97891906064611,-42.94643247056235,-49.10257990138204,-57.34939812631834,-68.7550529793246,-80.37092262896145,-91.28551919607057,-105.62635386632162,-116.47276619500634,-95.77654009521505,-34.78782343032737,30.556817199053675,63.47024554564837,65.67968874080475,60.360439797563004,60.84223732743828,63.88632684381355,62.04491168858488,56.22244653250912,52.45453582300391,51.114401456418726,49.783376449442116,46.55473673556584,40.19471033779771,30.958940833931237,20.030240381748882,9.355428872199827,-0.5978173002695356,-10.914486698217045,-20.589971774162112,-31.03673279184781,-44.861194480023606,-58.83660615342565,-67.04639752009693,-70.78455544085521,-79.71743640114943,-100.5864808924909,-122.58020746290416,-119.20667948632575,-72.68353401336282,-1.944178688302528,51.10663875732658,68.22758012264119,65.69755042025827,64.40540497954844,68.76552260023063,73.4976380949374,72.7681375429783,65.07488345636258,56.67048288071453,53.6679535218701,54.82486079616219,53.23843681063113,43.340107003393285,28.46104767846472,15.757423002673837,6.674231288117937,-1.4942333344895025,-10.921286748939089,-22.30263138337614,-33.722819089744526,-43.014715311773045,-51.8908107470194,-62.70406583241599,-73.54950470694334,-81.67977747078496,-91.38770901852172,-108.65229080811001,-122.85357342442539,-105.30311413650024,-46.0961861837268,22.112339224353732,61.60630220822596,68.0351831802809,62.48439387603781,63.224249645834945,69.53799937488286,71.9102183181514,65.93975929807193,57.39826500080731,54.13852976644541,55.04934993630642,52.17886460482074,44.597439228413485,37.09659093970935,28.198146797945107,14.843066178358765,0.817447281858989,-9.92922700522933,-18.372118957008322,-25.573863959344383,-33.300997833435794,-44.64240290993902,-58.448935363077986,-68.66726407736697,-75.12582510691196,-87.2783262953359,-108.04800760135149,-114.74525294445728,-79.04895657156779,-11.26002761038627,45.37511846893556,67.22238345738899,65.81277662895596,60.17272058085444,57.08557757952638,54.32733295842966,50.60036957834588,47.14244419961104,44.457066877241544,42.55159511438331,42.85430408469405,43.684913660390386,38.242391848850055,24.633215056814052,10.415079430444973,0.4630587618232427,-9.385270113449744,-22.328122746508548,-33.17079004238829,-40.270064174047015,-49.096042481708004,-61.498123576221126,-73.33229693928824,-82.81971765188038,-95.28743264893049,-110.63849761765292,-109.19006627655385,-68.5445866302062,0.0052491098713217665,55.15575785177819,72.59669631130194,66.72953992020032,62.839184256997605,68.03692238239888,73.21396434462424,70.80765748110242,62.335644057185704,53.74820923374743,48.89321942851603,46.86119370486469,44.20035015515606,38.814328858660836,27.79665989396787,12.895270531532693,1.917917869689603,-5.031447406574178,-14.057564048216708,-26.052716153536643,-36.95187914781765,-46.90873752817803,-60.26592394346105,-74.00393116495204,-81.79481296650003,-89.3587270113637,-107.93066019084576,-125.76935279905592,-108.4037062168967,-45.728696570173604,23.75828323055362,59.42963404364247,62.294193632479086,57.616144847916,61.60575408429965,69.43153916060399,69.16543371263866,61.12040326259198,54.84854204671799,55.14842538924825,57.93505779610394,56.35646267611834,48.16131187419826,37.98474200967357,29.445616358174714,19.781502055582543,6.3293083695066,-8.657856678609232,-22.343941415424165,-33.053958987513894,-40.7613020667455,-48.41347731903018,-59.65019695722654,-72.981721398076,-84.34456124463097,-96.33731891281093,-110.34300993412081,-110.34468419915021,-73.35443666000246,-7.247810714063329,47.09689225882207,65.4716936725238,62.72374229566469,60.715796035639876,62.68556576481762,61.59669175669028,55.56647372490696,49.00271348442241,46.17881581111838,47.970234844326576,50.444483989325484,47.600003918719345,36.83980468154345,21.599663067273244,7.178876832377842,-4.968362976442257,-16.91570657437689,-27.787144767192267,-36.067596440298274,-45.83018668340052,-57.89264911650203,-68.0511829569818,-76.65578101569699,-90.82350123627229,-112.08407617799799,-123.43166042679778,-98.90964404653582,-38.952761108130815,22.877857923974354,58.496280562278905,67.65432084326491,65.96618783026787,67.15546356675272,74.41492881952459,80.46000471271887,77.3111214082271,67.10481307935288,58.12296366275595,54.480340259855986,53.300355444261186,49.49327624456413,41.591819166679606,30.06916838345044,15.548644296713448,0.611064989262563,-11.507165217927163,-21.638398708772012,-31.927226006341076,-42.799876881654974,-53.37148907298152,-62.502001395221065,-70.064317844507,-80.24846316988744,56.0,117.0,77.0
24.36624225983162,12.853838361072766,4.347981317052099,-4.029019949206758,-14.03367815950906,-25.74203679911434,-36.62996800710025,-45.469401801795605,-54.807067715987586,-66.01715734148392,-76.16013277300044,-83.94349717664988,-95.60514834250716,-114.17785188324916,-122.26537086777154,-91.72446399981293,-25.237985162644296,37.38380196835955,66.18602836329843,66.5517183699796,61.736214692218724,64.87989246698498,71.0049642658266,70.96211598896566,63.309208733942484,55.73661598023389,54.30878019871246,54.8761814862598,50.2398765610943,42.32601192532522,34.895510177763285,24.755894289077105,10.586489326899306,-2.6415933202019777,-12.529344450862075,-20.550884225852144,-27.60844369100185,-36.118784445115345,-48.621216300659356,-61.98961091153496,-70.62613552319556,-77.5700761703957,-92.87146990886943,-112.9880781484122,-109.3291095892773,-61.046873796595584,8.061848478184107,55.24427807488382,68.23250661038192,64.04405360074156,59.046119382235474,56.38662848795492,53.31179272330844,49.51828606206026,46.30567064422073,43.781022662951976,42.363773784156905,43.291796337387964,43.04806710762189,34.92864024841417,20.197119897325297,7.148054539312947,-2.0983010490707494,-12.922014702031385,-25.95010392722126,-35.411839866371935,-42.4137444457816,-52.4311825145792,-65.18681948230804,-76.18305125723512,-85.83208273417947,-99.90706509994702,-113.2237902086832,-101.82989462374047,-50.014642986920116,19.135411170006407,64.05009005701704,72.04095721458427,64.62974281993519,63.661035179071085,70.02657768565025,73.39266680442405,68.73401934601814,59.62131402849488,51.90364450922835,48.17517094096211,46.267722074429315,43.029901021336855,36.315474863062335,23.554485153221034,9.079308120863278,-0.23126177596434722,-7.232492823563507,-17.37107202644757,-29.465929336675067,-39.71221695996142,-50.347497299913684,-64.55927907932747,-76.92768416895981,-83.38062526680336,-93.4614232277376,-114.53987794125038,-125.75667005620988,-94.00183080488434,-23.99204469869402,38.33413832226478,62.63269521820951,60.62003219754369,57.723226834535595,64.08256798111502,70.48022015982048,67.26128921722594,58.731297656705294,54.3052615001335,56.016006778416845,58.17152105209217,54.558494940182335,45.15251058847764,35.36802260703336,26.97717037125083,16.25396492179812,2.005454659152656,-12.83736632447481,-25.791820567774312,-35.51733363059337,-42.78291220216233,-51.2200462134227,-63.516797945614286,-76.5048617377712,-87.49229791587419,-100.4787127337223,-112.96533701736064,-103.98579885733179,-55.7345313135787,11.510551800198192,56.03338310281847,65.64861339155638,61.54067431932049,61.16264274551023,62.94060373898277,60.22567243581244,53.49419834334902,47.67967678747676,46.3073372796162,48.88750191273472,50.39366572663507,45.25561071474106,32.6371531567445,17.182551825163852,3.504979636095794,-8.37172980698229,-20.324669759716937,-30.339000991052536,-38.5443756468423,-49.24429570384215,-61.17246185420508,-70.44997449602529,-79.85704284911539,-96.58495573405585,-117.61897021849654,-120.8087598824603,-84.1261166756819,-19.56434043486269,36.373350795683045,63.29813611032194,67.51914603020818,65.64898927946479,68.79039966523932,76.75996508315502,80.61773961316547,74.74129473672124,64.05573253963806,56.540369478449506,54.13218453947836,52.62482775528201,47.602442869659,38.627295039136285,26.11571411494881,11.100066770497008,-3.234810800198527,-14.51556053913768,-24.54574438205801,-35.030700185051856,-45.93454596316084,-56.212644691442634,-64.75457922537313,-72.45855513259677,-84.53753462459868,-105.05218601047726,-127.68800491012658,-129.304155429856,-87.9517964050179,-20.210275344612267,31.812922320516023,52.09747984908979,55.34573630321256,57.85003872523847,63.780403208660495,69.74758544969266,71.51117237237067,66.20449381071317,57.39958408627197,53.80553696339838,55.14909232091763,52.40149399151145,42.78520686270055,30.967684818919423,19.635155813579463,8.648066808452857,-1.439858375473719,-10.575098000422987,-21.25938996713046,-33.95022990406339,-46.838190471064095,-59.05820317969559,-69.45097823046059,-76.77371239962257,-85.50301385348622,-101.07151054618635,-108.81702376482367,-79.94089663570495,-16.116076731106663,41.3868260367687,63.848238462281955,61.81367499276684,58.164305379701375,60.770489162055924,62.95383706619643,58.538557630363556,51.1570714690486,47.90847405934196,48.746833463408564,48.671732108215785,45.0501135415384,36.44181594116885,23.349088992889556,10.066737876668945,-0.7454872992250078,-10.172322199590134,-19.970100476615272,-31.28622540979094,-43.92819355980728,-56.21125542997466,-66.024183692729,-73.09524276859845,-83.33210082709721,-102.44123454517226,-121.92398522501426,-115.88329456650987,-67.06890310853673,56.0,117.0,77.0
-4.832208321362184,-16.708129037694718,-29.20355956154713,-37.414688804084804,-44.85925788500666,-56.02971345457628,-68.69069536850992,-78.86489552806337,-89.29161768364283,-104.62049480376513,-113.70427117755699,-90.79062659947205,-29.88664400422379,36.00710921332997,69.60433914934885,70.21337318804173,63.23601187893739,65.16933834546677,71.71719433014938,72.83858073911462,66.27597673029379,57.04693871653901,50.428156718205365,47.614801708233315,45.54701308685187,41.590116258266825,33.25284991945256,19.13816305281773,5.78617252947739,-2.1729441512837497,-9.75204187730057,-20.871285592066602,-32.66942229720385,-42.490663496249944,-54.16575875333126,-68.69402332166351,-79.23879879621133,-85.26806698772775,-98.70613481555654,-120.44844111704218,-121.8648604605721,-76.07056268216397,-3.0379421917447824,49.40709345036538,63.56113551100801,58.99222426669429,58.75000167918975,66.56127209074315,70.60889127425408,64.8809837532749,56.74507009132001,54.33024072794086,56.92314420357356,57.88085311546979,52.230792780384604,42.14453453684886,32.91489156734398,24.288788843071263,12.398263383259314,-2.357824490385516,-16.85394991671619,-28.95700096280524,-37.75265901121038,-44.904021151618,-54.40036916288704,-67.44146615587383,-79.79270406883957,-90.84818089089688,-104.73124744037068,-113.79852310918936,-94.04693925783478,-36.34876010098067,28.12452779013905,61.799466411640736,64.73422093692899,60.820197172401805,61.816332503928905,62.758464853133404,58.49009489810248,51.51140759585623,46.753459004249486,46.80039314646086,49.718924558183645,49.754584801626606,42.24472993938202,28.199071544783074,12.94938554975993,0.001137824789705727,-11.82452232544007,-23.553713318881947,-32.693565642902556,-41.28542586091557,-52.78219305036674,-64.17743942206945,-72.81732403882613,-83.7388928762757,-102.85437250414819,-121.68956821718726,-114.58801832799938,-66.8223656490702,-1.0409064209012893,47.25428145536543,66.14100262318819,66.9226432405915,65.82561200413828,70.89699754142383,78.7354746892087,79.87917838677438,71.74922319567285,61.32110185916805,55.426553767890155,53.86187469719501,51.61817665160063,45.38406622880236,35.36305645192529,21.936816029705263,6.708235005151561,-6.784873621577528,-17.428421049878864,-27.501030203411528,-38.1784148009352,-49.01555098974015,-58.900633989151515,-66.89882020644589,-75.22330977353145,-89.59619702472666,-112.07878064386844,-131.6551705779941,-121.97544088768292,-69.22925547242804,-2.0587447441042,40.62078946043452,53.876182957784884,55.72912539571408,59.29955559688494,65.69550834613021,70.8661133076604,70.72569596049053,63.62571232428573,55.56090454079507,54.05072988010269,55.11318646331998,50.1783436868164,39.38249309619993,27.641101834436068,16.42160974431569,5.5978760661862905,-4.101504107562849,-13.39492788722657,-24.80326084700328,-37.70957511973418,-50.46547248069277,-62.33485565349262,-71.84510035828048,-78.76612267628714,-89.40655837955055,-105.43741445208414,-105.12866726159059,-63.68920062371105,3.152322621082017,51.65093484913858,64.66129347472071,60.19683092676554,58.40635840418934,61.865016668881395,62.38319889503944,56.34888921227315,49.613176458488866,47.94729555019014,48.99697419158183,48.049711419088624,43.13190871112751,32.97357602561526,19.329954809531777,6.687384740991009,-3.5218400512375276,-12.90290704867002,-23.055373453749187,-34.86105415397077,-47.60057252248462,-59.39649820320244,-68.2099814529595,-75.35003523316743,-87.94301962510255,-108.9300690425873,-124.10983709394174,-105.97858709638176,-47.42974799964006,17.65573930908589,53.50082758246293,59.79979548471947,58.75697197024446,65.46678544064909,76.04343551657861,80.08111677532222,74.5732948096408,62.823822681626936,52.36648306952308,49.35021285550017,50.02409796389944,45.91735944561603,35.61070655500236,24.863816675657358,16.09212246921317,5.030541147433376,-10.004017274450108,-25.062948773364827,-35.03592371748894,-40.340293998113744,-47.69483744528261,-59.50239246754628,-71.92904936669592,-82.73579503542824,-94.79314710421154,-111.07811938873004,-119.38687389889847,-94.34463193740264,-31.934456722478174,32.12984295266641,63.455413367393774,66.12914588534173,63.85186402226067,67.28980257468497,70.3761725062478,66.94840465726432,58.91185996828821,52.101664023229525,50.160699457035186,51.042059346968564,49.48196331315723,43.365791489530174,35.07737330184133,24.797053349535826,12.364816081787435,0.5332172199727359,-9.021031940590056,-17.23995643590839,-26.870544349746087,-38.5934625528368,-50.51689708574648,-61.42426767543974,-69.60326639298096,-77.41967902991159,-92.7645412902116,-112.1613984664919,-111.09386330742204,-68.58292698257719,-1.9344154938483638,48.10449960832835,66.18027637836973,56.0,117.0,77.0
-39.830921274473525,-47.238127480281776,-57.928430655750766,-71.2766118239394,-82.92027803641592,-94.52462895598427,-108.72857269180912,-112.13078964592854,-80.61259858833652,-16.343840286266314,41.85628764151724,64.82879089958215,63.364277629376346,60.63526922492829,62.455014504354985,62.077797626725506,56.51755356519297,49.729615041135034,46.25937624824187,47.56267851699973,50.30223040777461,48.44310161802045,38.65572623835717,23.67596771829529,8.945264310491362,-3.407162804931688,-15.31257330255831,-26.51905877372084,-34.987418836875484,-44.33037861280358,-56.30819227512009,-66.88836944859055,-75.3611220285038,-88.40507703407286,-109.244338009754,-123.53125762935949,-104.67138258800637,-47.92151661316818,15.825416072547279,55.52177986040317,67.44624789642268,66.23174131887089,66.59451053924656,73.28577035694651,80.09431198398467,78.29369688359367,68.56960863223402,59.01995190489722,54.70796801333345,53.51990424565776,50.247747897609855,42.857714609714805,31.80460420277524,17.58922361519156,2.4801322556298584,-10.067383557557402,-20.308603675700763,-30.516016727540755,-41.343530554059846,-52.019623966879536,-61.40838078530631,-69.04027797406124,-78.51520078115968,-95.41553034419283,-118.99388450059406,-133.11529051855183,-110.70217196021414,-49.22338435732865,13.760710000146979,46.816764941305955,54.75998724607007,56.343663468514386,61.013885012050075,67.50488984808867,71.53276788124359,69.29807700534224,60.94461682908465,54.36888190165817,54.546921684169845,54.498524081410906,47.43199509455091,35.93728339367919,24.36556845327301,13.231778477708005,2.649489026574708,-6.704942901401919,-16.42574219377997,-28.47521408207217,-41.44692384240308,-54.025654847324375,-65.41601519151344,-73.9620874091957,-81.08289402921542,-93.95411667543155,-108.4916631104957,-97.68430847246775,-45.08536633602591,20.658412918699117,58.686983754280824,64.02242691511044,58.941184083033534,59.1623940659935,62.673889709996246,61.19006182897798,54.10183417805761,48.56234139337664,48.22509765782617,49.05216774221787,47.10064607755313,40.75400166286416,29.18803354440265,15.422737893441852,3.5336967776156447,-6.234043252939779,-15.699939876762697,-26.291037991480593,-38.52166189815801,-51.196910906826524,-62.31357943381107,-70.20368667928093,-78.08378361667613,-93.37684885025986,-115.05372102926701,-123.3802634865729,-92.36177294885326,-27.240985685037757,31.761231531149,57.518926649734716,59.24769761747791,59.73989100516903,68.64345085610364,78.18519915330171,79.40733369540405,71.56125665608575,59.27125210390272,50.68889098689654,49.563435743229455,49.59580833726916,43.378083567520534,32.29008791458901,22.244285370964462,13.337363250691363,0.9930955970225273,-14.600922627171746,-28.61980761435961,-36.79419190945747,-41.98218574517278,-50.7630872099499,-63.217027543821004,-75.18831861449658,-85.85190844940783,-99.18909764977616,-115.37476239973135,-116.52623598737068,-79.17946414718473,-11.521662145080088,45.122547917750495,66.1432482357781,65.09658370619736,64.32894086215319,68.63324575826263,70.10768327174132,64.86413304704946,56.564090876278776,51.02360797544877,50.3415811446508,51.0571187764048,48.10431038979144,41.112742792424925,32.370823501999695,21.34233830067163,8.753024012191009,-2.4641755058173658,-11.427195756251416,-19.768100937308713,-30.117149623907387,-42.0839707092196,-53.83659836752417,-64.11779133785802,-71.5699403514096,-80.82840286382756,-98.70536075781199,-115.31656626187242,-103.18475360197029,-49.99149492143348,15.676892435904884,56.31150136604834,67.15514900530431,64.61413060479693,60.282982432571295,57.16875454252449,55.06751194326201,52.92348704587035,50.523875301339615,48.641839643825826,47.19991606494162,43.670619778342,35.03044696606173,24.570284535365676,16.436095982849253,8.052007281538716,-4.518438558626895,-18.59358803662165,-28.704082106831365,-37.823203777975024,-52.07703423539339,-67.85446345744441,-78.04941534768656,-85.41681041366714,-98.92747380155193,-115.90292618302206,-113.6572435530702,-71.05331461883104,-3.7810716169530587,48.26686380127829,68.2866515178905,68.04569733071988,66.55397540032067,72.46563601611132,78.3952131706318,73.99382055182373,63.121011309007514,57.67252042328293,58.84541307472662,56.777727782190745,46.38492285615601,34.54392943769552,27.265612620896842,19.792510589397924,6.7011000552279185,-6.655079862340807,-16.553408151177415,-27.825994194100552,-39.45794197135865,-48.509057086766205,-58.726392462806004,-69.47655627964069,-77.96607053756306,-90.02547468509881,-111.43298594127045,-128.47010562798783,-108.52531312504816,-42.58266772534598,28.813777423361444,65.02612354696588,68.44343298475881,62.809475907732626,64.34186573409791,70.79889209620436,70.2813046148137,56.0,117.0,77.0
-82.46681177464764,-101.89586393300989,-125.23033537040386,-131.35529493459168,-95.83041872493926,-29.158024820027375,26.791156660730255,50.83536033394424,55.19518828390627,57.292445904337754,62.89098977652591,69.10670427863904,71.6571748546867,67.28963486805226,58.43115324221282,53.845110342487864,55.016819986205306,53.21799351023248,44.3090187536731,32.5223241656177,21.122892856440323,10.08118299800454,-0.1778481337825999,-9.331110249794785,-19.684917778664275,-32.21617903536994,-45.147445833443825,-57.4966992715514,-68.24472399213512,-75.89783695005111,-83.94982854447761,-98.8428194881382,-109.37114287187445,-86.38011737996851,-25.29189646433846,35.553277567024914,62.79898401841688,62.584136816911936,58.260921394527124,60.23556520729143,63.001701264970876,59.46783775558994,52.01376707184001,48.01101704099088,48.58918021122213,48.856423910674366,45.78877626884782,37.90641408385793,25.210260561474232,11.704701492547155,0.5702414923126571,-8.926830429080518,-18.594704697445902,-29.67769649286464,-42.222116487405415,-54.66829548209027,-64.92454186885873,-72.155783509882,-81.49274751582769,-99.48026340868324,-120.13894074539293,-119.13279747993212,-75.60836800184136,-7.6834189162350714,42.81161227852785,59.44691194965329,58.69663906602548,61.55980836434564,71.86995619820381,79.5654659369557,77.9499340390863,68.1457044285091,56.057408219740786,49.71541595521459,49.88193281318817,48.57243881499404,40.39790227205173,29.104875286285644,19.762287971072187,10.249383269817782,-3.345096706268235,-19.068006390082836,-31.63215050844933,-38.26937731919366,-43.982144910138935,-54.169430864854625,-66.86229977082071,-78.30239658758228,-89.20119437076444,-103.9675595285501,-118.48339329740142,-110.2156553890647,-61.204568515546065,7.824479836930646,54.843160176329995,66.94241108294604,64.23185197254408,65.32268489716915,69.69603384453247,69.22467533530936,62.51037495847552,54.47422726760707,50.391872220941934,50.6530964384772,50.72683838103751,46.3657909629186,38.747194646424745,29.46010584881566,17.73418823284829,5.27799483895628,-5.26019954761054,-13.768112560670199,-22.49169682990763,-33.509223549359184,-45.545090222583184,-57.04777248834027,-66.52682578610003,-73.65174504299571,-85.08178463464462,-104.68948439196858,-115.97577187220537,-91.51809439448888,-30.288596853868533,30.919846014529963,61.890660508401766,67.07085559384988,63.307452879487954,59.23716426071384,56.49971529891822,54.493053324354165,52.22433585828095,49.90419121869599,48.224746548072105,46.59063308494484,41.68968310663199,31.922002114069404,21.96307883655856,14.28328311463446,4.884299624375844,-8.72855199098263,-22.001290627188805,-31.081146176160235,-41.3504697120029,-56.87602189680309,-71.49252328020195,-80.05894829974156,-88.42537647912792,-104.15184248312595,-118.53394124275343,-105.68745153298632,-52.39074560175689,14.26531455436187,57.18649796164815,69.41399411315143,67.05290483216662,67.56167311145657,74.77133541600182,78.34848549566713,70.9593088298638,60.63078511931251,57.66769603157752,59.04601076466027,54.495131317117746,42.680120498188344,31.986150071666195,25.51877788256273,16.544019560773933,2.4878359607390066,-9.71058375203022,-19.511496600548178,-31.402635354517155,-42.24261713268222,-51.19355989610587,-61.99808018483351,-72.08006401088247,-80.65971955615629,-95.341192223875,-118.10443149717403,-127.8425509040574,-93.17851217344989,-20.075250203062968,43.592795393880884,68.40662155052298,66.73296669516009,62.25108452940104,66.22662497879243,71.76381185137545,68.13396412770469,57.16566038504715,47.96561568556894,44.732077830486766,45.419594733185995,45.52474976673443,40.07462105307258,28.161810854028424,14.683544110120005,3.344801773811441,-6.997492830176344,-18.866104602195772,-32.256305295826984,-44.310844631776995,-52.701982011195916,-58.94499722430772,-65.89266671023151,-73.72430872026891,-85.71816146279522,-105.96032830457445,-116.72279151037127,-84.76768927844964,-14.209980218861139,46.80277199812726,68.10231802413298,64.25353929029984,60.9213816010336,64.36533019076855,65.56481652851477,59.922717560016395,51.94005508590015,47.97607192617916,49.502304535305655,52.10790682035826,51.23088186052459,44.790356803228775,30.939985895140897,12.435800916866917,-1.6591022283657022,-9.002732538271088,-16.53551067724786,-27.246046764488508,-37.00763902681772,-44.34474108625472,-53.675667723549424,-66.43163533378564,-78.04147632017025,-88.46708846529884,-104.32892266605784,-118.04045155609116,-101.1314206805459,-43.975636931093376,21.064419961553252,58.77559489574386,67.47297856472447,66.54013650184272,69.1288183279657,74.22429006852607,75.03688091531211,67.396758678447,55.04086783933549,47.61949498207189,48.15172996816409,56.0,117.0,77.0
-56.625601739785665,10.20250799919456,50.792522019190145,59.905762016610815,58.57994635418792,64.10728644231742,74.83715822472287,80.11339342892006,75.78384685759931,64.5125184395818,53.38018602660121,49.35470889600573,50.05636276176279,46.900516885368425,37.14878807858208,26.14480060148082,17.279693379099637,6.769131322091806,-7.880340438783329,-23.260554308518742,-34.08211251063428,-39.66552698025809,-46.419520845878985,-57.79384286709558,-70.36900057473568,-81.3363264720061,-92.92386774865969,-108.87970402804207,-119.68018396480753,-100.19982941171816,-41.37954215053592,25.087733660553145,61.3995387758162,66.53888468119298,63.83511933683285,66.64069102817409,70.29249304206778,67.77899034891641,60.04316932686569,52.75172269098428,50.157685529394925,50.9506586048848,49.976341567131875,44.35750925780248,36.26723317392388,26.32117851187368,14.057153297782783,1.9843368771629954,-7.871174230678771,-16.12461744698461,-25.43820141848167,-36.981984481126354,-48.9610023208706,-60.09358686383088,-68.67593751257084,-76.0987933730877,-90.1759188406386,-110.08105982443713,-113.4613521766646,-76.46932239611226,-10.653305393165276,43.35794140846927,65.24874360034879,66.3175104751609,62.017529256048434,58.31404774748558,55.895974400388575,53.885815036618816,51.516618054151955,49.34606058804086,47.834556197943876,45.70197252206725,39.242819018250714,28.81878201159075,19.601858963626775,11.972846111820974,1.307485318504977,-12.911773074622381,-24.973956400942946,-33.56800881483383,-45.40749009668068,-61.589290315250665,-74.5352746290052,-82.03065290774286,-92.16840191838227,-109.40430470335056,-118.82055661909403,-94.01053632826397,-32.539915202817056,30.076618615604936,63.394208805681835,69.32033610492867,66.3979981095343,69.23893611775254,76.75155913503679,77.2580813323122,67.66282897217418,58.86556168924708,58.08167664484555,58.67787317543793,51.52604611032223,39.11394527493588,29.86691075068233,23.527934320718458,12.77808302871835,-1.5030191860267035,-12.517068100207092,-22.729838534450934,-34.86334194868029,-44.81805961212236,-54.10452997532162,-65.19351906550753,-74.48164025691214,-83.89338238407794,-101.5050788186998,-123.8026790193562,-123.2255201804952,-74.27118116875415,1.473190275922038,54.80244633049858,69.52584989198421,64.87715654073492,62.53620669831897,68.2706616210115,71.85552400299267,65.32319831308395,53.986540960396475,46.43096417786447,44.69849317573918,45.74329859313282,44.69068703132197,37.15087119513248,24.171831581819987,11.161745568510323,0.38184084239211147,-10.201766412093018,-22.669928576619224,-36.02770958750177,-47.12831923879765,-54.56799533501273,-60.82971348125829,-68.05922767703456,-76.43902735581462,-90.89756219974329,-111.60003272901065,-112.84331339691722,-66.63213392268938,6.629624579324638,57.07292061314067,68.26800691228473,62.4924946724757,61.51429463401025,65.3538540405888,64.55990272194911,57.542304112515666,50.180654540874755,47.97457999363127,50.39555682233203,52.33497450031097,50.01920163812016,41.597242167528464,25.708821649332634,7.561103616878437,-4.247144594650784,-10.844172734722807,-19.421464034339916,-30.363087329728828,-39.248130899166824,-46.621139915523486,-57.16095089297018,-70.09503592238121,-80.9068748522194,-92.32020095630227,-109.57127766285453,-117.53054548175119,-87.97417680235964,-23.991764309166623,35.53333127210035,63.53981191164235,67.32722488932187,66.74767748779564,70.62457324866594,75.18753632996473,73.71200336050042,63.91559684421979,52.01282490554906,47.158821817641005,48.83187328096529,48.63043734701143,40.80481008980218,26.658245900022386,13.492183932703647,5.711730274534431,-0.7734783862801482,-11.630223473679893,-24.67116670683695,-33.44408480467085,-38.15074330251917,-46.13417839470922,-59.261615468875696,-71.19988310207475,-78.50603308519635,-87.22303322737896,-105.00287831243384,-122.42721058853284,-109.02045223749519,-49.453453621289455,23.990726955428737,66.30421387338843,71.30613189824373,65.52745810008115,67.22662725587047,72.12009697968422,71.75138810007248,66.4008759009936,60.67160145813823,55.92242022332879,50.495036966925696,44.91160596457638,40.7812424723467,36.479337667864435,27.203271924630318,13.3567700915327,1.4110579214110386,-6.389187902810019,-12.831969617902935,-20.818118857582675,-31.5608813901314,-44.702443567138545,-57.24967827942398,-65.93167497115493,-71.91810440220615,-79.82647795610414,-93.96418810441118,-112.67232696074214,-116.01316920810176,-78.97032555610609,-8.966594425952412,52.9364373530992,78.2479585088925,75.07036388745443,65.15667652469037,60.690069166046776,61.36914428272642,61.07517509232435,57.38544400729228,54.32743542520309,55.14979216357198,56.96955189295945,53.78563103598042,56.0,117.0,77.0
66.8638624737541,65.19502286522902,60.80569885790784,57.50634320778953,55.32705110698775,53.23636959210977,50.82793992180177,48.850534267703146,47.420783087921265,44.418619592684564,36.42023673676882,25.85941610722407,17.41639700788648,9.374145484626293,-2.620415258177302,-16.880016875640017,-27.582816574472513,-36.375417579285376,-49.903403625089965,-65.98594468127133,-77.03836726876362,-84.24277125755196,-96.65009970676138,-114.1083753835704,-116.08385290577957,-78.95369291397257,-12.655411006776491,43.18920717932436,67.21343792407356,68.51904975829831,66.3392918786846,71.39122997071209,78.07746204080394,75.20710096284726,64.46783376529332,57.879725079675815,58.63131041034737,57.564284386581406,48.071780968692345,35.88411316903229,28.053678964117942,21.096922616536723,8.657106208816607,-5.123796546740549,-15.259182313826104,-26.18364198434736,-38.077429967833154,-47.32918317675932,-57.233004305306444,-68.18618850767211,-76.83662268318612,-87.88634702471442,-108.25147902037384,-127.61307464816242,-114.19343240250751,-52.89748301711113,20.85884871834639,62.535864043032824,69.03443224795092,63.32638420977553,63.62003448040641,70.11267392654824,70.99264481249169,62.09387650323555,51.17813617640467,45.41400124340624,44.90646841183657,45.894198552778185,43.2736790431031,33.73633269381214,20.208644601750834,7.8578812506227775,-2.5655278724324937,-13.586761617040835,-26.564716026996933,-39.59884213910936,-49.60698808046204,-56.33936307493017,-62.8228137976606,-70.2726659879964,-79.67052642092581,-96.81149333392106,-115.67454991892177,-104.60900851609776,-45.99630853147896,25.27403837041762,63.77916981822099,67.04351860279012,61.305764622156666,62.57290198681288,65.88318607839909,62.98409827104494,55.137517617783566,48.896933178279674,48.393809210363884,51.233892935251106,52.18959247588768,48.30854434103062,37.726906134976936,20.252759488731567,3.299998035046988,-6.350920984969422,-12.913537379929046,-22.54260067689648,-33.265571480883665,-41.3234783436451,-49.21154413763098,-60.881420238070554,-73.5202762213007,-83.77874924192193,-96.82229548041876,-114.17279710496014,-113.64156390414963,-71.65222256335642,-4.492337332654913,47.10676329037061,66.20475668997116,66.9110188088292,67.41762423544544,72.19074829821669,75.61792074973445,71.62968678921025,60.2275541156443,49.65468040940069,47.30167966153867,49.328093961917546,47.2494490017915,37.103737432070815,22.411731092031705,10.724879585446823,4.03066802533535,-3.3727270060342223,-15.480615996485739,-27.83368404320238,-34.94703965296232,-39.82684300768713,-49.59754805251973,-63.146220426795324,-73.69156534973939,-80.43030547305038,-91.35866628083257,-111.17230542943078,-123.15218987172015,-96.00959682905439,-27.328847613113446,40.63723909247402,70.67969817288562,69.47641701262282,65.10752653892162,68.80583049788986,72.71025850585049,70.52067602818097,64.6162463398621,59.27434284526959,54.45641136618379,48.815317515995375,43.54045762076154,39.762947556602,34.46673723994732,23.41923776517183,9.462760941375262,-1.1884194791229898,-8.235797756400245,-14.895946843248405,-23.618762561967703,-35.19157385109558,-48.571920685178384,-60.21694271961194,-67.74905738237673,-73.80157490298906,-83.11866436256548,-99.37725032686194,-116.54407896979941,-110.01297981853367,-60.64229499541822,11.680210959849138,64.26368282568102,79.26067581476438,72.09777842467395,63.11566829776501,60.60547759654288,61.627776368152915,60.26976184912423,56.194175223125306,54.17871423184825,55.837062421448806,56.77480880555822,51.53256062101153,40.38056145652655,26.329222943072555,11.583519849803489,-0.7062306950920245,-9.522991056442757,-18.149853147966603,-29.036276568026075,-41.067932802771196,-51.733294970648764,-61.78619662192892,-72.37708165431472,-81.09265373535096,-88.25546410971567,-100.2703861833669,-117.97762817823181,-123.35729943763744,-90.22870517274535,-20.320354695617503,46.004983815348105,75.68144549125492,74.89653731125138,68.59144245774182,70.89340435389096,76.6443003140361,74.36106176936919,63.86719947659328,54.541037268724956,52.362788686851154,55.27172108336308,57.17917251449808,53.88256861753218,44.7199036984775,32.035210493050634,18.63997088500072,7.722228610289733,-2.022785719257513,-13.999897958489546,-25.436500639058135,-32.94297742526619,-39.343866769644606,-48.671899069645534,-60.70159475363741,-71.67315833708773,-79.01108063185823,-87.72904356525335,-104.35135599753124,-118.92209932901923,-103.90579375165103,-45.1049759552513,28.511635963910088,71.65576439110832,77.21333188332089,67.86062043065472,60.682620815918504,58.053799950053325,54.526709874737904,47.22462935851616,40.13158734716099,38.06575065259911,41.76670726118775,46.42809858622045,43.754269232584896,56.0,117.0,77.0
69.21956560973256,58.70901698008097,48.85596947662196,44.8560919478168,45.248746739616145,45.737147220247934,41.228121591838686,29.97144912610691,16.381947891817433,4.7373895116118065,-5.57264378808111,-17.159962326286426,-30.473500474077436,-42.89708961520968,-51.782608493054866,-58.108991057819765,-64.90865500554054,-72.58895937922325,-83.61790964099085,-103.09919459241988,-117.16779975296996,-91.97158457661399,-24.225783856477797,40.82543030358428,67.34433341064485,65.16325546397785,60.86795447354194,63.813943598539204,65.81441490121486,60.9618874714556,52.88384290808056,48.14360401895489,49.11077342189015,51.892886551340546,51.63374102168226,46.04122417316851,33.211083951842774,14.840611157059357,-0.25600930951332734,-8.184747656532958,-15.31154626201313,-25.765833762226404,-35.89212508302339,-43.36896825677674,-52.17959429022323,-64.68978715660708,-76.67087308053112,-86.88804760704214,-101.88499324537081,-117.31957043354019,-105.96852948327198,-53.035250893265356,13.502147003723092,55.737659932817586,67.3223363908834,66.58733245045264,68.51118333706454,73.6434224807372,75.3891144912197,68.86402490126639,56.608411608796274,48.078344787852046,47.83797684407444,49.446523217611265,45.14296485845108,32.9892437595443,18.45932362427431,8.436201063516888,2.278121667661278,-6.437032381027509,-19.3582893168304,-30.49136581767513,-36.224009568263234,-41.985153360278915,-53.42037709313216,-66.73173903791242,-75.79671417903069,-82.71542725562912,-96.39390224100237,-116.82763885057821,-120.40179839161854,-79.16532977535634,-5.31413799940184,53.77023517482102,72.29699555864332,67.5321855086556,65.50613163943024,70.3720591432691,72.7243761552043,68.96830651814093,62.91770628630976,57.92882386830821,52.89870253478775,47.16406814314082,42.32803915418793,38.63416101712523,31.91487314002746,19.361513165880734,5.901207000516786,-3.4672858909107376,-10.057456542569177,-17.145150053003448,-26.66484080755015,-38.995500879774,-52.290196417629296,-62.79903960821055,-69.43368860688456,-75.95883842236036,-87.04248005700299,-105.02457159525878,-118.41875493276142,-100.1306485340379,-40.21527365764497,30.471115916861685,72.20266647367667,78.41302309348903,69.06474873778734,61.69260336426638,60.83573883794247,61.643554023583235,59.194232013960935,55.20436489761216,54.379427650172914,56.477368017311164,56.01248483467609,48.77067570571198,36.51894382972282,22.024776951042888,7.638241840445602,-3.511942726865696,-11.869673234236474,-21.040054432215904,-32.52853113668311,-44.3350914502466,-54.589856482134,-64.85017750127463,-75.20469873395386,-83.11252354103995,-90.92624828875475,-105.2026604049038,-122.05471047420495,-118.5270075553352,-72.51788773299697,1.3148706731286313,58.787946050408095,77.52247974013461,72.64581582372722,68.27630787083444,72.77524101622782,77.11696762418113,71.81492032709087,60.64358377942805,53.1218171464965,52.94043822994344,56.170434320703855,56.867862291678904,51.760831729523346,41.30251445951141,28.082716933710138,15.158857884427418,4.992376848114209,-5.241562797183287,-17.606069654862456,-27.99271297431984,-34.67801510956416,-41.656482588181994,-51.991469302854235,-64.18382199328359,-74.11223308531383,-80.98497580830072,-91.7049466807198,-109.82005324298147,-118.8669228857795,-91.02338273419949,-23.087089003865326,45.37619769112978,76.310320911962,74.9923892552061,65.21784757081531,59.631415291594934,57.39223930310219,52.727524646406756,44.89271060615541,38.89075166955812,38.64211606704981,43.37159976492745,46.72570650579529,40.94900923283776,26.430127943834293,11.832293717184996,3.3170999017847023,-1.7942167124697832,-10.006764010676939,-23.022493142023382,-34.8909883286129,-41.4174120473659,-47.93515466513586,-59.03534313630647,-70.61290275315186,-78.94876837334537,-89.16578735342874,-104.39452936509943,-107.82883184750028,-72.01318527614742,-1.0393564638913122,60.9142739877822,84.11149215412156,81.24664572441863,75.7957434556336,73.90442558112433,70.74824214129254,63.87668200152362,56.17415794257001,51.15662288709029,49.51593317950542,48.96898355917681,45.12535244715415,35.94983068439973,25.233167996713934,15.83686329264074,5.407098268161084,-6.146803189694953,-15.05999989540502,-21.3785796376856,-30.20055335387857,-42.18355938710458,-53.26520204394236,-63.105144776520476,-74.81031634998249,-87.6579072012166,-98.11836698718093,-108.23890940317303,-122.35560224861389,-127.55211895889178,-93.38811098100213,-18.63683296358164,50.766239937048915,79.52150636564372,77.68156733431526,71.22580647221746,73.21136392483868,78.79916230293064,77.46169066138731,69.31011535406806,61.93103221657418,58.99793587906188,58.08033644447025,55.340501865335156,49.297384818054425,40.28878561398047,56.0,117.0,77.0
48.528059524953576,49.032986757662385,42.32475841231965,28.663599498025572,14.943082722341178,6.516180093229882,0.2748078587214191,-9.917443593253772,-23.067428441318786,-32.62349223520806,-37.499065034712814,-44.698617807027254,-57.41712861601842,-69.89755480242013,-77.66608010592032,-85.618172077309,-102.17637173580013,-121.14120732826197,-113.59910437192532,-59.3113351596354,15.284545571796372,63.18298355176032,71.92283963843096,65.99965624739403,66.5755134921789,71.66810058766617,72.17575459272928,67.22912658810525,61.34998652736556,56.56925328793906,51.26492713053,45.59436688917128,41.25028840038457,37.24650500517097,28.808128085709324,15.230457052190262,2.735231806238487,-5.5058845739665045,-11.931652567217618,-19.606806763534724,-29.960180689107734,-42.89679837144156,-55.75820289746933,-65.01553209005277,-71.11246323420164,-78.49728344947471,-91.63470646852687,-110.431942797885,-117.53390684340553,-86.44749957217401,-18.82110528191628,46.57432810609207,76.98729835869662,76.30855376832672,66.28753032556219,60.87963986694107,61.20288067033095,61.33509525165485,57.96450330617619,54.521446138765896,54.86150257075382,56.897299191953145,54.63054938734148,45.592842075918234,32.47589287161848,17.71414371554298,3.993248710601776,-6.058574409965771,-14.302640267358669,-24.150890046244516,-36.04786129735461,-47.439263543917505,-57.460495132898956,-67.951050152384,-77.78753471852039,-85.08131469825085,-94.20793988970266,-110.49942550116829,-124.44958792641641,-109.87071770287794,-52.239398642579395,21.39656600329476,68.05308115538217,77.345971743884,70.55891820571591,68.83099484506572,74.64519577700861,76.67356904249195,68.74185557630683,57.7717572691097,52.371152176705195,53.81409928975859,56.83671639018164,56.047083785286866,49.1769927243548,37.65655200420711,24.14736097120713,11.958586139046478,2.2525259081145586,-8.698238846535249,-21.021964398668757,-30.193337909216304,-36.448186453002386,-44.28357395136623,-55.48561745256094,-67.45785411509166,-76.22962388589686,-83.2921211185949,-96.45282083906457,-114.63287205326044,-115.56539892613426,-74.44674941076612,-1.0329586561253932,58.74291201686684,78.16554418483865,72.1659859473101,63.01525436223811,58.89518602240597,56.4850553775313,50.61919550161009,42.726423053373225,38.16149193287686,39.67323237105566,44.87920060047554,46.1981336476932,37.349594892994276,21.800779572641705,8.704260404796013,1.7855420846912353,-3.6182965404433287,-13.425445135515007,-26.913485668040742,-37.24648408541953,-42.94485889374346,-50.71463697435597,-62.62770613165931,-73.2895758265492,-81.34289121972591,-93.3300320066663,-107.904877070225,-102.30791784186451,-53.595285176661534,19.910109105053145,71.71169317600445,84.74135690065421,79.28971614037386,75.03592909611083,73.34669131365975,69.09049471703506,61.54504772583153,54.3571765608212,50.38346966250255,49.4166658279656,48.393171707030504,42.943607851535475,32.778237551799954,22.426738007050734,13.048103642263555,2.0374068949936595,-9.13271814113484,-16.955113767609966,-23.482837471792568,-33.5071454079411,-45.61347703463526,-56.100361146826295,-66.20978036115908,-78.57959280267724,-90.99513690776881,-100.79573314877642,-111.96846180933174,-126.0429502889097,-122.82648587060899,-74.5200632326463,4.346998809646095,63.553915344544706,80.92820203525646,75.35353316673039,70.84954392139088,74.99051129218688,79.39007199716677,75.48703996242833,66.80681154470831,60.64135383778685,58.72539495977922,57.58652235789167,53.94623939810075,46.94938802836129,37.34335296870728,27.1730802358736,18.154579701870162,8.924488957182907,-2.3615527673473324,-14.830344761326167,-25.8019338996113,-33.42512905419004,-39.44907376994552,-47.39015073399131,-58.999056486582454,-71.75816168561497,-78.54507246048803,-79.2218389848639,-87.18931318243445,-107.19471404236809,-110.7115195468639,-66.54475254132448,8.625938426457623,65.14189314349198,80.31014302351848,71.56377230348498,61.021098304890174,55.76291870286843,52.9761208779934,50.06147980260774,48.0023724565511,46.97908148876987,46.0103698097226,44.46664698388566,40.47403376482178,31.506456450403654,17.961597814248965,4.210026805737477,-4.415260644430776,-8.316342531303334,-12.312163903949456,-19.544211204713715,-31.178543020652718,-43.914782829138865,-53.921903399520964,-61.885936239228876,-67.81546198188697,-74.27336784632543,-87.6496301665385,-107.93066921011956,-119.93171296623674,-95.38938558075026,-27.024200365341667,46.80172839457574,84.97224067761084,87.83686968876738,79.0797752111893,73.7580340680152,73.12251638055697,70.68202151778078,62.26374752624121,54.59845892763097,55.12233589454043,60.52186648086382,61.30920660612041,52.96815956597115,38.93586099774188,56.0,117.0,77.0
52.6398362367349,42.08695748139551,28.292947302025933,13.481821951639185,0.6955056885669962,-8.445915973017511,-16.89079374198289,-27.458737890708576,-39.51032170852204,-50.4014645149024,-60.400369633385,-71.00830714891161,-80.10497472918865,-87.18354764032605,-98.19570046941708,-115.73736730637171,-124.40066331591593,-97.28925951635115,-30.495175672845942,38.954891425222215,73.97067877489611,75.84618871002877,69.03305535036272,70.1191141303584,76.1549417899496,75.2911092805617,65.41263601484341,55.41899324244095,52.240815528222555,54.813780645849306,57.165417123733825,54.689160148155835,46.202515703065835,33.83733810365374,20.33184622112075,9.014339187006309,-0.6239284050600965,-12.314160290154334,-24.128588832592445,-32.1176526407794,-38.375442439352,-47.22159465656748,-59.05857685070935,-70.4254430178796,-78.14557909511296,-86.16391019545782,-101.78949412491072,-118.04214543439886,-108.50478005847297,-54.86626605089648,19.71483056708276,68.4092073493694,77.87934211640511,69.18882795779588,61.30784546513379,58.31614784619216,55.23249642779568,48.31446931985897,40.85991261210858,37.97194431601831,41.05323336255302,46.05866653402672,44.74387075416014,33.148195802986024,17.419742970614013,6.155751526826438,0.38764320730529134,-5.8582050915497526,-17.20492775447438,-30.498644546929437,-39.14043420108775,-44.6896998266581,-53.90329689697648,-66.08208496163518,-75.67559936950794,-84.11656960573814,-97.87986814912871,-109.76602397619939,-92.86299310128345,-32.86964347461949,38.79353794263754,78.98702220956022,83.86135187728395,77.58111036438493,74.52497404227145,72.53610683235608,67.12545132439226,59.25262777615977,52.830065606798776,49.87915699361704,49.32668677996298,47.41804285709055,40.32544265687443,29.621518230270727,19.73783068016505,10.082533308890104,-1.3639968944122518,-11.792361771794418,-18.714876645414282,-25.93713486173447,-37.003996982587424,-48.86419098996069,-58.8909025037715,-69.54722441434872,-82.36041533228493,-94.05396903619018,-103.58803997617551,-116.10841886919773,-128.39180596317968,-113.99915096127708,-52.799955357505574,25.4389672992089,72.53908881876045,80.41295230011458,73.23583867553319,71.31220653631159,76.79109149570232,79.18351431841705,73.09497918336726,64.55734197924455,59.7449155402643,58.511327532788,56.86661081683256,52.26215513012022,44.37487398071483,34.34897768725461,24.446836790863404,15.629876011438,5.886838161262032,-5.940637079438822,-18.284870113575984,-28.34681409338796,-35.16773159636985,-41.41918802844185,-50.36668513583562,-62.845061749040134,-74.60885622783235,-78.97033808020826,-80.07138660165623,-92.35909587402134,-111.77949598414484,-103.23657730221814,-45.920048222279185,28.809035166974553,73.50772752159821,79.04321887794745,68.09510606714025,58.991628764140046,54.89435716294701,52.14681325080067,49.31593739520787,47.655256203237975,46.713687934272095,45.6733600244741,43.690371175186336,38.457746076148,27.93838155753617,13.73713396182968,1.0564213740549904,-5.826299375531609,-9.274865034102689,-13.976663123456373,-22.490187966755663,-35.00037684866063,-47.10538421228584,-56.395652195116426,-63.81206083915688,-69.35251276296097,-77.20849201191072,-93.12834383535602,-113.3937630193289,-117.74446678481884,-79.1910465386,-3.8917707842230453,62.325265291224135,88.45999025031074,85.5264305725968,76.92727661987612,73.28573353268436,72.95878703607902,68.75668224908537,59.50702302348886,53.82430328573493,56.595499842261916,61.58014425557406,59.81862846117201,49.204468026464625,34.75960475011776,22.09743261067299,12.575057212604596,3.307061981134725,-8.180602897617376,-18.73827651033661,-25.36512578506259,-32.756522354627975,-44.99316139302818,-58.42513438542661,-68.48114927014016,-75.02785186046911,-81.35334027239105,-91.22220151390825,-106.26826748691134,-123.17633428399085,-127.79869083031338,-96.09404795966302,-25.5864280414478,45.89084878300044,81.3138175833154,82.62806482307408,73.07294165611518,67.86869310149382,66.68229661377075,64.23689642187928,60.12095463186994,56.528277641902775,55.518578889339686,56.11587266306091,54.47320196872808,49.51811339229365,42.78171271389853,32.88599756783202,18.5220864656755,4.423009303487429,-5.322654952165744,-11.895891465610235,-18.738214796416727,-29.24401564143274,-42.86029947297342,-57.03726248544565,-69.33437085887894,-74.98876907730397,-74.27307268981502,-77.70930281076654,-93.51233261111152,-111.18987945603139,-100.34879306552885,-43.49701832510063,31.104860550734422,78.11680526941744,86.53556045651551,78.03168242224437,71.11857759291662,66.1970462410136,58.70253242551787,50.94304357850223,47.294631397377344,47.17035048452915,47.325583302080716,45.300088290961945,41.150210163095686,56.0,117.0,77.0
42.350183545897394,28.584575479750995,13.471712157679596,4.117965897322087,-1.0609018005109443,-8.583433947448526,-21.179808254295175,-33.62654754083701,-40.72984470930092,-46.80800649021286,-57.38045398083697,-69.2617412079324,-77.91265200537354,-87.4335636678733,-102.43915405891626,-109.15601241994918,-79.44713333155525,-11.074852276189965,54.722376875427976,83.11163986600431,82.15274339662841,76.2647522731224,74.10873349610432,71.39497072801518,64.93458491274961,57.09821526658809,51.61303765991788,49.59302687538556,49.13000633829703,45.9654714301044,37.38008047770349,26.580911341012797,17.07984351482337,6.922083984429458,-4.679817540552637,-14.102991413270889,-20.500979848153936,-28.77301818787906,-40.55936561839192,-51.917035766265286,-61.742415879439456,-73.10809296141021,-86.03195092286528,-96.87240340732984,-106.67593073605303,-120.42437534915479,-128.5047812739642,-100.85241215258998,-29.506317250939947,43.58749790876827,78.02491617482767,78.69462437142866,71.685137942602,72.48934791079158,78.28888547217154,78.17300835734963,70.50891467358136,62.66610464055183,59.17612890680663,58.24568927589206,55.88627386904848,50.295228942046855,41.612449087963356,31.372302182494803,21.838009731334054,13.018453468854881,2.6559586401846578,-9.572986842817697,-21.53620654221255,-30.59172314836877,-36.86117114478422,-43.62949800459522,-53.67131507793971,-66.66489087026642,-76.75881158813523,-79.02397677410758,-81.98222575607272,-98.39440478179498,-113.93309275394708,-91.27077939440099,-23.71984804949659,46.16593852492094,78.37578412456479,76.46185973078357,64.89208472373214,57.42293949944918,54.115313725656925,51.2868728074639,48.68984818321116,47.36571379389783,46.439823884667916,45.268674927055685,42.64510540561229,35.97145888710262,24.03774794344057,9.64012822676796,-1.5558256661543068,-6.93737480990767,-10.359375671696718,-15.964735666185492,-25.815818850721353,-38.76723118641283,-50.029358031408066,-58.737592533346216,-65.54230156250463,-71.06318572331291,-80.88511072466717,-99.08023635992683,-117.61770523846909,-111.73005372145809,-59.59425342508759,18.349871136759976,74.16968759147252,89.45734457702707,82.85328469315532,75.26437030042213,73.1340659853612,72.42756875498857,66.32427837314849,57.08169070047042,53.84386753018501,58.270352858393,62.022235870517555,57.53568202110762,45.121695175934704,30.762495388004297,19.090331807832047,10.053071715076948,0.1895007753338775,-11.570262267920668,-20.98623141355234,-27.106781014040564,-35.831509008442694,-49.01978956387167,-61.77064747488153,-70.62922605910974,-76.69748754176203,-83.70463916527683,-95.06333169425514,-111.30507720681416,-126.79629177407513,-123.25966864398238,-78.65701066465033,-2.8433662537939535,60.51015466382354,84.25418518284323,80.00371868927786,70.88519920396763,67.3885015103585,66.22799448262379,63.13032965711294,58.92562012044824,55.92054004334012,55.690285426706424,56.00963804654846,53.31160780359987,47.73513687761721,40.388501614947415,29.09240421795251,14.134315147018995,1.138042561908184,-7.42228692514098,-13.660002983432213,-21.329249401866342,-32.9825441194357,-46.98274527465307,-60.956218404161476,-71.84849755639455,-75.11281453879886,-74.27541501930044,-80.99897076758748,-99.53522218086894,-112.42992890820463,-88.30819644140354,-21.53547550637113,48.90018708011141,83.87948603627609,84.65945148517393,75.56331927702571,69.76127426706758,64.34271436677444,56.236040845002805,49.392118148144945,47.028298852847485,47.3331145923161,47.01012006530089,44.26652428356477,39.69916442148243,33.332415054364624,22.864624468054814,9.375770091952782,-2.897113927029133,-13.795521821086327,-24.577073235485553,-33.15051201674827,-38.317222538036226,-45.12633089069818,-58.23714239878309,-74.48438203614516,-85.35224584078777,-89.36183558210227,-96.47303966864418,-113.32452700963917,-127.20575432977229,-109.35271260325574,-45.73447547706327,33.28031564816625,81.68132029025547,88.33325069322996,77.94043397569703,75.22163080684597,81.33373722812911,82.65744768571031,73.31760823081834,61.25241133254224,54.10710193871665,51.28673225585067,48.957082216128576,46.330625429625655,43.89580625921176,38.982063661540046,29.8340465958044,18.14481871484812,5.717912764571512,-6.299120840838459,-17.04731864083196,-27.032630835608757,-38.41347496765138,-50.88328448963649,-60.69328405193361,-67.99463337381935,-76.67395279878554,-85.3512139224533,-93.12015763462396,-107.1979684512514,-120.40517818517239,-98.32565180708322,-28.00611281919106,48.686638574739355,86.28705220394697,83.27745951952079,67.03572129132273,59.380395824743275,60.05741565740425,58.24998509659002,51.90053726632153,47.568354266294214,47.86271375248778,48.477092145880256,45.0620088153078,56.0,117.0,77.0
38.71139476216516,28.472439838846533,19.309520125253258,10.258521360196355,-0.7457243720967461,-13.189481395413567,-24.524264332352086,-32.577824106454734,-38.603950418546255,-46.129972387995906,-57.266026724814836,-70.24757213647183,-78.14851217029997,-79.0766616505216,-85.22507345207916,-104.56583598330418,-112.66399237529441,-75.16152664860527,-1.3550294397423484,60.021928533557706,80.2636894716513,73.1754583294294,62.12680786701027,56.22324856419411,53.34332431249991,50.43623324592934,48.19250505278977,47.099947730275545,46.15154046644287,44.75492491953214,41.25258636867211,33.01754385075694,19.90783027035969,5.830233037872008,-3.6268918081851265,-7.891535860967243,-11.640138278245363,-18.3227639472064,-29.440829343870973,-42.349235478259736,-52.73377034205755,-60.9322952327274,-67.11709176915447,-73.14012152964811,-85.34233084445778,-105.18548010540417,-119.82171321956127,-101.52135222781156,-37.61375093531781,38.49062748350187,82.35169244471923,88.64070534708942,80.21026871738681,74.11956160121872,73.13077535743699,71.37039803402523,63.57187892342472,55.219543032123696,54.58237800943587,59.876352265636996,61.71984108305185,54.54719261873082,40.89205325676105,27.02236339373718,16.329500182716632,7.446362096972296,-3.135597628917649,-14.738851327463287,-22.89422812006437,-29.104514024253273,-39.33510230283393,-52.99049917482836,-64.76029065592371,-72.52578765381472,-78.44859219860022,-86.43810906157528,-99.34513795346899,-116.36879491645297,-128.89350320108116,-115.05305905100143,-58.332602537232475,18.715025571055804,71.5213473635407,84.79701259964872,77.07431617043417,69.26974142454003,67.1001907663414,65.56785711544482,61.92878759354747,57.82914834338242,55.577524702600925,55.91866659811955,55.61956266765285,51.89984373571529,45.83845334758452,37.64868469542579,24.940727390363286,9.943772753898575,-1.745315737677792,-9.319476104373445,-15.547034138506415,-24.290571161450366,-36.91598198730789,-51.10253611766611,-64.64575148269296,-73.66091511209295,-74.82576519242133,-74.95885303165865,-85.42948217626699,-105.21473520681648,-110.40106798522221,-72.34420620646596,0.7243873731489255,63.41171445845297,86.6265650838999,82.06512785851999,73.49193358426415,68.42638323785843,62.20132312324822,53.886249922958356,48.25663100336149,46.990462692859545,47.433492173211214,46.47290820083245,43.08448193265049,38.12361330558509,30.810213073155197,19.068923116329007,5.601028355562923,-6.097169339507187,-16.943503946555246,-27.43421289681255,-34.875031933642965,-39.80843405550197,-48.23461440636699,-62.96667231888527,-78.49084793369327,-86.92917372180409,-90.55208327452326,-100.4757358552367,-118.7512865335322,-126.6004804237375,-95.19360862620005,-22.2185652731008,51.81501433056688,87.21307191906801,85.6660361303585,75.82688665277696,76.60353390090535,82.77774900446153,80.8773434124076,69.63493233652909,58.56280030368838,53.028967687903055,50.68054868879679,48.171444035494346,45.667516047631366,42.88504203507651,36.74019319106347,26.61626907029972,14.574432674407632,2.1595586848665183,-9.557848081465435,-19.923810832314363,-30.099997592706583,-42.049279490456335,-54.12391646396935,-62.87636141923373,-70.27860502206477,-79.37762093236152,-87.45530793137684,-96.27722860557685,-112.29533555465277,-119.24579439611226,-81.97310111554218,-3.9049781977235996,64.53714751585753,88.60226798855236,78.62730140090096,63.53253988985042,59.20290007944932,60.14334162231322,56.6467922772662,50.16358676413672,47.28275046937245,48.26368824611348,47.99328238014479,43.200280781662755,34.71642860535127,25.3861752037036,17.737918896935668,9.58905870774843,-2.7804519289186747,-16.134982741132823,-25.43898059474896,-33.18177329255524,-44.57838935938549,-58.95820007986085,-70.53091414856065,-78.10987221675089,-86.67906510857512,-101.59592889628323,-120.32268555196096,-120.79837848895752,-77.66570105510463,-3.321361938650922,57.67423640608874,82.1033666994291,81.27509481372103,73.70712099749173,69.69036781592541,70.40191945455366,70.56769261185975,65.91635787680076,59.56808194845307,57.241531823323946,57.729763495565884,54.719692736523065,44.863864735085905,32.267070519720946,22.41094646560408,14.449291249571386,4.530599417985614,-7.671875385150043,-20.529794110855438,-32.659538146894654,-41.89195928591585,-51.118753730713685,-64.76620926698402,-78.18558385516175,-84.39116163358261,-86.27021429548518,-94.62980235132653,-114.92477633467439,-133.00644377141614,-117.28707567675524,-52.73515316727228,26.845518693886593,74.53341625230843,83.72871955660547,77.27645256631115,73.39463651335997,74.410981712165,73.55053764369946,67.99079011929801,61.76691028442608,58.53887929610238,58.36739250178101,58.96472405183089,55.235584484741146,56.0,117.0,77.0
36.66875091021545,23.580899157742937,13.738762240266226,4.664779058339755,-6.583879278247714,-17.567681517793066,-24.598140140897247,-31.49773857526514,-43.160813588817746,-56.772759980257824,-67.38688899722099,-74.25775369083614,-80.37817594001496,-89.6066967272017,-104.01210325131444,-121.16524607535644,-128.784121349719,-102.95825120321382,-36.12611029544793,37.99973568359208,78.98367103774592,83.59297269845595,74.25340541496041,68.20364219902032,66.83509388297189,64.6991717382696,60.68966443482912,56.89116345223734,55.488056923826456,56.08822246909366,54.90910395617632,50.30195620159322,43.793016910432755,34.491378036098716,20.566607822027503,6.075926711631125,-4.266544981657256,-11.094108633688007,-17.661814051975586,-27.607852973082515,-40.969014472599824,-55.18292081154404,-67.96858678750479,-74.73209397627804,-74.41412771580858,-76.58766850065747,-90.81031313142053,-109.73851470918427,-104.48460657091852,-53.153286475753006,21.973714872248475,74.31183821002219,86.98281180022201,79.27635403943248,71.79987685159729,66.95488464299058,59.8364384075485,51.792336953548414,47.516737442233214,47.09660879344834,47.4008051029159,45.716912855113144,41.78431819541461,36.371496294032866,27.871469478392292,15.123828823685136,2.0155225225643245,-9.231368219031106,-20.09434152645345,-30.0111383905331,-36.34131814880316,-41.61820354311835,-51.93042707627382,-67.78886813630986,-81.82470749620485,-88.02946049720634,-92.33455362777427,-105.32568623623202,-123.40375651654546,-122.53422693932163,-77.21832431796382,1.373687610673175,66.79862012067944,89.47081709684542,82.39252703067599,74.78484959739473,78.49218477555273,83.44600119783483,78.23357178733747,66.00817353038582,56.39468490739523,52.22032719706451,50.028313068877125,47.3904709582627,45.011016165653274,41.56863353693874,34.145572968283666,23.247809787076612,10.974186903329795,-1.3397340738974188,-12.689480893240736,-22.77495936843867,-33.34402431812973,-45.71706403267859,-57.036864537730615,-64.93409860883216,-72.76677167379023,-81.95787378220278,-89.55257704725818,-100.20881956970133,-116.83171073189175,-114.08880899696757,-61.82965087067819,19.243374229315634,76.33779752425004,87.96105899145226,73.65310244247044,61.0922679606367,59.48916025962458,59.762595282556426,54.75689525070267,48.78354373718384,47.35939845758309,48.541391569391266,47.10204653709154,41.019248175020905,31.963252512546145,22.97634207556631,15.666263782362636,6.4640468429449065,-6.845765468978046,-19.285405188569282,-27.566452002110744,-35.96933369675936,-48.66240363553051,-62.80107329610663,-72.97692317925403,-80.21285016015675,-90.17982027268505,-107.17909315966537,-123.75546195731481,-113.24833738304325,-57.60289861619313,17.50227662722062,68.43500874311054,83.55055621582606,79.14197381277904,71.96732740459561,69.56584717694899,70.79624722116304,69.73220328222585,63.95250952361656,58.36399068226155,57.34843416058478,57.4861906220446,52.533508474044666,41.18807991801494,29.041046626321304,20.102405238954486,11.889720368366001,1.1557987517969306,-11.36184706987678,-24.219686174254434,-35.64225598394157,-44.26963272242977,-54.61466257507502,-69.07486054002021,-80.82146931805015,-84.96869370784019,-87.53175289988839,-99.4367528823976,-121.60426513386925,-133.34345134577111,-103.09827015856474,-28.82448930310901,45.12391773430731,80.33911816720351,82.38526956095264,75.49699228057955,73.42659423121763,74.64909710408196,72.32174285013141,66.03519341276443,60.46351665136606,58.23492256632184,58.6353505876684,58.585726807948724,52.752925019127204,40.902362882982054,30.02010034073552,22.702937705878888,12.354054174824196,-3.011056057652792,-15.262757392737521,-20.445998985711313,-23.618799378754343,-31.61668340380679,-44.27648958542019,-57.15938514393053,-70.1488889347629,-82.88844851574041,-92.56376461856125,-102.17560101520837,-114.78261316171863,-116.58243788259811,-81.1447366450487,-11.324108259478141,50.95310564004842,77.36207734633315,77.81323874576488,72.18256856489337,69.63653481579055,67.73305700750143,60.40498660137204,48.78111977460106,40.96910096781425,41.821167328889636,47.12388084612311,48.15864616821724,41.65490281212304,30.08287027775183,17.52118162894546,7.32906740364602,-1.14596610909602,-9.87684063561921,-19.270110660467594,-30.58923699218208,-42.60757633680433,-52.04774951751293,-59.06036234190064,-68.04553515699101,-79.38005833799838,-90.30160248769762,-103.94023394157861,-119.44200619832338,-113.15335820631464,-61.10655513112509,15.695513118988922,68.87300622711335,81.8642471936909,74.24435400896121,68.90963391196657,73.56830177382159,79.05862262479886,74.4385298369273,63.78230417149429,57.9821674014955,57.34933938548474,55.36117979159702,49.85165574192155,56.0,117.0,77.0
40.381611511169346,34.365971899252976,24.52612379990711,11.169080314627058,-1.3833342784820664,-12.351763105739684,-23.190997700785683,-32.2432402556891,-37.68851013951516,-43.89262656343237,-56.14963302381593,-72.45485686263068,-84.40876073192334,-88.92707709810655,-94.94911027803973,-110.74751910756757,-126.51611424746241,-114.48126904854486,-56.17837120532128,23.72316364581707,77.88722770099453,89.13905831088303,79.21549760360205,74.85194939769747,80.48911231541716,83.14405880496997,74.96084205859657,62.658335348896365,54.726516953332236,51.56574326994772,49.30872705580019,46.65190653387202,44.28276225747289,39.88735198107952,31.25161130333274,19.772997867884122,7.371971914697756,-4.757291927529476,-15.696736084796832,-25.66697248008571,-36.7754061670586,-49.29670578252344,-59.60973295268122,-67.00295651715604,-75.42093476569883,-84.33050956549748,-91.88762733875018,-104.87428262170945,-119.83486339735593,-104.37744718782022,-39.02784197555917,40.11958062627135,84.04397044277661,85.11374050839629,68.96729044195175,59.705810601306766,59.90661050199044,58.84588322976789,52.782031996856254,47.84552745309739,47.67614002569738,48.57243385963646,45.79742904902737,38.58412070872451,29.216984568707645,20.756318387642704,13.427127436066012,2.93115564551306,-10.823175980636902,-22.02339392879827,-29.707953906580634,-39.1709007693953,-52.890575915926405,-66.25695833615745,-75.14659596305862,-82.54949913723244,-94.33711811100106,-112.88945305139134,-124.89048538521884,-101.57914266777313,-35.76837895214888,36.02965972167883,76.01263129126869,83.38860263920475,76.84277025095992,70.68276338431411,69.78094374373103,70.97302330968034,68.4431299699776,62.007293823312125,57.60771621887679,57.56888332929662,56.78410702259503,49.75420635888501,37.46182679416539,26.13572514398991,17.858434036768212,9.082720858010829,-2.366854759277569,-15.079871875266265,-27.799573420044542,-38.33398476010545,-46.80453086409603,-58.53691775660552,-73.13928597927607,-82.73854708238966,-85.37370941292244,-89.63997729431304,-105.25590643118663,-127.51727542766508,-129.97467391675713,-84.84708928424263,-5.0017619772431745,59.813127099432485,83.26570216272177,80.38708509079437,74.22860564382985,73.77120946978374,74.53314026223278,70.72616436588564,64.15858819366498,59.46443757027144,58.1592771152794,58.892134228271416,57.68692879451888,49.70384058604412,37.34570425269751,27.71852679619995,20.35820676573638,8.16466697401988,-7.243245738305251,-17.392772823126936,-21.21246828712974,-25.266264498265198,-35.007663489418405,-48.08515454929983,-60.82312665253347,-74.00512695316112,-86.01657252925396,-95.06564693737718,-105.67605661109849,-117.60708893474,-110.99333489233382,-63.067660984362,9.462727994859204,62.400003516393944,79.17987976468193,76.15166515476218,71.0589369062252,69.32183819648279,66.32816875927706,57.176647810338594,45.77709865897177,40.327231391887196,43.29772671928711,48.15801095013475,47.00787398382638,38.664147831037056,26.36343421849377,14.270436548526495,4.828712851104165,-3.6240904297333025,-12.474086964673397,-22.316966452864158,-34.13697124663797,-45.709591970797405,-54.15230615624658,-61.29569094199962,-71.23602118528031,-82.57979489442053,-93.70970469106345,-108.79832250833421,-121.37826483362885,-102.95329623821036,-39.27213481837374,35.157795292739486,76.29169095953597,80.58430670243783,71.77557542006838,69.37017478545965,75.72627745762935,78.90943777063019,71.4359969424387,61.32506309230601,57.56035912259278,57.12918699768319,54.086161720488555,47.864317706309464,41.37084268633456,36.369998203620746,28.180681279567104,13.284306827318217,-2.8609228405464613,-14.15772128386774,-22.274083851270074,-32.579054286251406,-44.453063914468025,-53.29520550603244,-60.95884106122108,-72.1756822933706,-84.71858294866242,-94.58925506148266,-105.14884133622681,-122.49348503142218,-133.82719340121702,-108.52743924526884,-41.13877977261331,30.155668153100624,67.4256228863965,71.34342677256666,67.14932713741538,70.68488970053475,76.6087748668549,76.9116773388176,72.53873123324762,67.04707279831196,62.17444955875192,59.247049520153446,57.4137033953222,52.94749749295604,45.414752410409314,36.50932922323108,25.752032815643435,13.177442000054773,0.674144363243443,-11.257347890555975,-22.071204742632254,-29.916217271990742,-37.550797393008025,-48.58308544852812,-60.35334572809199,-69.92576781499162,-77.39182389148603,-85.27755295869333,-98.35755242195381,-115.85812414956764,-119.12559780908433,-81.65884246548308,-8.969167999187114,54.753959407737995,77.69647468668653,70.4458042593294,61.256752128052334,62.28297288223155,65.69173544814964,63.81368012978884,58.6653957615924,55.03723969532825,53.80942921726413,54.975052786212345,56.0,117.0,77.0
44.10187468709478,35.965397862455255,26.560462814593784,18.676603280176128,10.888133292825758,-0.9289154143001804,-14.542398230686294,-24.417660902895058,-32.02035236256673,-42.78744332328624,-57.084769519164105,-69.27961603334936,-77.17797289516984,-85.26318519781232,-99.16620265566162,-118.19814712487572,-122.92975153889279,-86.00423873138983,-13.43244377945058,51.59526185022431,80.7492836625204,82.1139204247938,74.63693693158741,69.89232403776708,70.1921986444963,70.7953860060002,66.7764326605212,60.262409403213624,57.2753220173277,57.7267981723496,55.51453240647686,46.48937627588341,33.85398368933235,23.529905034732362,15.558376976634818,6.02096385265416,-5.983926188454853,-18.81191984479887,-31.18520230147566,-40.798551430818215,-49.66090102442495,-62.76573201090872,-76.73463643957547,-83.99605436500327,-85.90015143802417,-92.7937720470566,-111.7936995089724,-131.81633119563668,-122.3302856925966,-63.38594211517339,17.356392560983007,70.73182810129396,83.96677767808265,78.2233954445331,73.53227374168017,74.22449001726777,73.96901699580408,68.88481554790772,62.464674399709224,58.76575225278135,58.26944321856197,59.004240892118354,56.16251058349741,46.24830241675015,34.078482921553636,25.669733648461577,17.530725215581686,3.6488396008271478,-10.968040179203745,-18.94213024444946,-22.00311533863239,-27.45554291228526,-38.68665868420417,-51.81563410168291,-64.55489404132011,-77.77232389144723,-88.83315507100839,-97.72470006045735,-109.43832330639484,-118.94579257977763,-101.63896475326138,-42.70539474316888,28.368801025571898,70.58367187074649,79.36409869253795,74.40643289149493,70.28621233599215,68.90593687435512,64.33611239733492,53.73013199500064,43.3122303497952,40.4574176563095,44.941330807865604,48.63468797938416,45.22953111483877,35.33859678881041,22.669395852090624,11.278410549635197,2.402365463217175,-6.143654762471931,-15.141539980920383,-25.560293070462876,-37.669815156259794,-48.51316672309034,-56.12432778848396,-63.81697511142062,-74.54905034034982,-85.69677954440628,-97.5136012272612,-113.64650538898317,-120.64167620514594,-88.57322822078196,-16.467964477814068,51.500831318718916,80.45393802829176,78.26067767850277,69.95859638345087,70.67407004396756,77.58288721759357,77.74171864338007,68.20909064681068,59.50318644256704,57.43019431101684,56.644660596822895,52.52517241261351,45.85564541361976,39.8512815551936,34.64267322064627,24.46813422241325,8.381214461345202,-6.715753913677586,-16.566278111005502,-24.888611182169235,-36.076024421891205,-47.411218287924164,-55.3574067178164,-63.77903618589042,-75.9158814328225,-87.86987303533294,-97.20850267670043,-109.47581707209349,-127.6766240750514,-131.41698349701502,-92.3270290306751,-18.733077511495374,45.18088799016134,71.02718881455651,69.83708623567173,67.30239984670473,72.65647993448563,77.37662528544182,75.95095701730969,70.95416238896289,65.52832516557729,61.07500158775663,58.769781889479525,56.50818107315965,50.997258834948376,42.957963850896476,33.6429616000808,22.23013373342604,9.490675764710428,-2.8108306007712227,-14.595736087646578,-24.64510456988416,-31.8942748813451,-40.40132314506094,-52.10456756660686,-63.38191006047989,-72.24528580935153,-79.43214858286433,-88.33560535357684,-103.37712693509008,-119.575939488178,-113.18846127992748,-62.745731423973616,12.515765889795054,65.841831601147,77.43849515253133,66.95731621973071,60.6222657915761,63.534677002984026,65.76555081930907,62.40715618397065,57.35036539470187,54.450537731424525,53.905858858147546,55.59460325216891,56.33557710704748,50.441278196248,35.71993442866017,16.616377114428275,2.382825361867971,-3.8947301979059894,-8.104550446391423,-15.277043741918565,-27.351997529089065,-42.39597120264418,-54.48516625593219,-63.14009843639718,-73.03037779257593,-84.46925160901678,-96.89745237954965,-112.66680732338484,-130.20613353121436,-132.2689672743343,-93.98966837648848,-20.160221049785992,45.79181941119517,72.6997873496931,71.28034446625567,67.71052568424427,73.75405514566323,82.12227920916254,81.68628527940992,72.03492100969768,62.16785430482734,59.989826102235,64.49294344657139,67.09661654831191,62.66359980257498,51.66211133916063,37.37721839448732,23.704492954596265,11.877168471088059,-0.6408232086170824,-13.891715778859416,-23.907102642329363,-30.615794459758035,-38.33256868099962,-49.95751366442085,-63.81884223261248,-75.9934358311327,-85.34680136555623,-94.36969244238041,-108.87573277610265,-128.09124281955783,-127.90116902714257,-79.7185800759669,-0.18372728095746282,58.69022751869905,74.56325428435653,69.41319525884609,68.34724842069055,73.07024491376197,73.14554674577329,65.77234181203184,57.249396511918505,52.496849477500085,51.23059119064885,56.0,117.0,77.0
53.975045145634255,42.59342040858942,31.204941584012182,23.672027195960297,14.121026968550453,-0.9428014164779431,-14.06189805961389,-20.042770041575615,-23.022363618185306,-30.18946623735505,-42.50536906610865,-55.4791512795708,-68.3701296340731,-81.33830285755761,-91.41521709575724,-100.68538721882248,-113.18401571453846,-118.00070111361369,-88.44334355344918,-21.238041312035403,44.5542451363652,75.8143962894835,78.46109216728325,72.81832714118539,69.79886365749947,68.20159602721702,61.76345715268941,50.295624117337965,41.53249203793763,41.26499235264806,46.4992997523064,48.46467615883796,42.89502454864545,31.77635515978516,19.100977116547977,8.528990704071491,-0.018876440048991895,-8.692722449005764,-17.9298189679602,-28.973736319192422,-41.09239480716425,-51.00004462054819,-58.104968118684525,-66.64651478191927,-77.87083484113583,-88.81985485972366,-101.80471591520478,-117.89552881874685,-116.43194818036325,-70.47223920389152,5.898450302900397,64.24672855747086,81.91728137214164,75.50888972703292,69.01828230793464,72.5789573984865,78.79254006523422,75.65311733088397,65.096555426746,58.32871305182842,57.3892507396717,55.842211206268324,50.734501789842774,43.91948768336301,38.45781881503044,32.45720333352184,20.19760869678053,3.5840995591278255,-10.068275601507557,-18.84177626395311,-27.803942671201433,-39.59546562324906,-50.01669929643859,-57.46585507108506,-66.97460336248625,-79.62566431614566,-90.74012465498598,-100.06610638948018,-114.48950762686185,-131.74147964895096,-125.14703497381129,-72.95614353078268,2.7246137695443635,56.727499879141135,72.27590721910953,68.35384594460632,68.25364555402037,74.53213589241662,77.56831125635665,74.69648043502403,69.35056377239673,64.08207596434798,60.18472493804537,58.30782371655363,55.29367701306882,48.833651056899015,40.41828220927558,30.583492023960634,18.58839978238524,5.859925161337112,-6.2644264188034775,-17.797328628725353,-26.933502061505802,-33.99634817874831,-43.57012214341579,-55.567023418272704,-66.19400593725511,-74.40731298884336,-81.60037415592964,-91.96115247064007,-108.64361368250088,-121.4239697590031,-103.25423139581274,-41.53412971862867,31.941437367796308,73.15169209567648,75.3025756743292,63.98749308957597,60.868257421923325,64.6762974092558,65.30591364176952,60.864007789786974,56.250890143744,54.04855164636626,54.21520290781507,56.158011348947284,55.52190422737248,47.03489651468045,30.271963809202507,11.637823047864739,-0.07367513196605076,-5.022259624157291,-9.748424863397725,-18.236809826157206,-31.637661351627187,-46.40062466303109,-57.12498703402533,-65.7481728516143,-76.25969092837073,-87.88931601564927,-100.99904130470983,-117.94715297055735,-133.59857631433508,-126.05225290948124,-74.83155349765411,1.8355549706938525,57.80960023826967,73.99367207185314,69.53125982562074,68.51787847343175,76.51931894528822,83.18550191418049,79.52926917003296,68.76166091992694,60.56764293469022,60.94173700036243,65.79590168980477,66.59931336259503,60.04578307767027,47.69393844278348,33.2201800546771,20.173139094368402,8.443582771361429,-4.547568761035792,-17.257593302786564,-26.01872830278066,-32.552427300501556,-41.262139579702406,-53.92308835250948,-67.62877682219437,-78.94818045586723,-87.77317596528789,-97.73863483038019,-114.49686446458647,-131.65630966284044,-119.33532399454431,-57.784937569809074,20.964328665269612,67.29071800473754,73.79022989906946,68.15004670434251,69.5575577395378,73.9414401168483,71.58595266521776,63.10808828223298,55.41705465360677,51.8826418369723,51.09783283629116,49.899967860295455,45.77891897345201,37.1969997229586,26.42533121402779,16.488147929028177,6.315048512511996,-4.995335453865703,-15.960160081840035,-26.16236712627466,-36.45550418941957,-47.33486297256496,-58.945890136981625,-69.18887311554221,-76.34971313743182,-83.3869068246285,-95.85474778784908,-114.84351279482446,-121.85938093089058,-87.32295101065966,-17.317801651720572,44.047542001829996,72.35534529958248,77.3928119485967,74.44943514322404,72.63868114299518,72.62397324826235,69.62034934880317,63.134785447184115,59.01654332539945,60.21106526316533,62.425342089454865,60.982736708441564,54.00951377709883,42.62414248571762,29.303899018607595,16.652686147103598,5.349608003366775,-6.626102589121524,-18.412212324867333,-29.331717458960114,-40.269186026063956,-51.74255383912884,-65.67167539957029,-80.91955741559853,-92.28934158444787,-97.34199563270771,-102.97304791298222,-119.50934946987586,-137.47887976963216,-124.11237904750091,-63.749937422923026,12.540922916721957,63.12414449505113,79.1051437094225,76.83929631057204,74.13674580015272,77.64794759441217,82.13979694636694,80.40831018588516,73.08584657928994,66.87630322051898,65.20252739365206,56.0,117.0,77.0
48.789037473018375,42.13235640604134,37.06256384281845,29.67904651339965,15.522123903110392,-0.9215107101081779,-12.956263897422822,-21.153919341087516,-31.01618951316072,-42.978325704290015,-52.31195430298916,-59.78408731915999,-70.48397741235155,-83.16868703226122,-93.39865914553803,-103.39791128705909,-119.9500087552048,-133.79966903986937,-114.72150543881597,-51.44221354871339,22.136014903534967,64.80026146360125,71.87856620392603,67.35992937568183,69.8255201838759,76.06543650678132,77.22622445784815,73.2478579065974,67.76521834281874,62.74306155193118,59.502848327450344,57.741128808934725,53.75774574873951,46.518788042642065,37.774047467486994,27.320917924814164,14.88729967388102,2.2964152855734734,-9.691393509101578,-20.784556659114536,-29.003481741332372,-36.353869052421125,-46.97025928234619,-58.88626857219478,-68.79448019270804,-76.46135204492185,-84.03047106413815,-96.2030033054385,-113.73129430929113,-120.60435131290913,-89.32661969969747,-19.242453283472756,48.36803750986449,76.9696631655438,72.08402736114014,61.88656811615813,61.7480247513387,65.47896735357304,64.37282296857285,59.33303620499673,55.372332570512796,53.83770279922098,54.7056930499636,56.51570277625757,54.01606330187764,42.8920407256191,24.638335876581326,7.315252917218213,-1.9198209207174812,-6.161245033157677,-11.717150150538066,-21.641473845231694,-36.061291737191105,-50.000174645144405,-59.57468665736606,-68.56364553346546,-79.564896692048,-91.41257814036973,-105.46291537438518,-123.25424658057085,-135.07534571411148,-115.89051386357353,-53.31313605575805,21.873007615679107,66.21629422445271,73.55088333413296,68.21188132281007,70.1932555766854,79.15763367171373,83.2905303347593,76.73668706836115,65.7275885945773,59.76091472872774,62.30023833958846,66.71421053459032,65.45715060834638,56.93165677565477,43.54625897361475,29.20992267544226,16.775702593694064,4.868564076806565,-8.453751093852425,-20.243354330245342,-27.92903957731141,-34.68775676446466,-44.5606642224988,-57.97703190941837,-71.2144401774002,-81.67241893278577,-90.26851692243906,-101.7444972446964,-120.35343886060515,-132.71699461950402,-106.23686159871087,-34.27284238193497,39.0530584529434,72.30922878351308,72.09390024552046,67.65575795894362,71.04823015288724,74.16097106977442,69.4711567502717,60.54363872219449,53.96372514322383,51.510161517871644,50.92099340033264,49.10851466086931,43.752221750263466,34.11358597814664,23.44767132355013,13.672911638197446,3.1165818726571857,-8.261081879694736,-18.951449408481768,-29.09729327605652,-39.518031577774494,-50.6507513956462,-62.18942816547353,-71.53364671002493,-78.16575901074499,-86.18939987755552,-100.99538534305414,-119.5329799097506,-116.94653578165102,-69.06936219851444,3.198734638191882,55.59782880638578,75.42992857351774,76.83125991203741,73.60109282312875,72.64066573818205,72.23716893636141,67.91702487229325,61.41506641816447,58.914265321338036,61.002361522732336,62.520322245572075,59.54168268786308,51.065557452136986,38.864625146247285,25.47012074103661,13.337122084653085,1.9935959818359508,-10.14297509545973,-21.60634842786976,-32.48186475341317,-43.46094252120221,-55.45019237736495,-70.14448236760913,-84.82657696526952,-94.31013582289516,-98.34622929973641,-106.47568296351531,-125.76181820956072,-138.32358294000153,-110.9475599018092,-41.16015504990675,30.92787934465415,70.81013961114104,79.41514499456378,75.5392258093336,74.57881936087279,79.23367240033667,82.44685197085623,78.5971169729861,70.91009574412702,65.92288991280833,65.43901214344281,66.89762251433862,64.99912917336522,55.44049084673345,40.257685703937184,25.334377314010826,12.884865681879473,1.3922921163022148,-9.711270252316165,-18.31267388182612,-25.492964063578956,-35.97518077249545,-49.4003875048861,-61.30679067662811,-71.01155552044662,-79.95255704791148,-88.72632432888558,-100.27893956158076,-117.64602133226732,-130.378604484132,-111.13537265705735,-49.325290205529804,21.349262069724734,62.87375334170951,74.64859474148855,74.2005700453376,72.48740881352511,72.04683230093869,70.36353652385027,65.65919030496664,60.90039406215609,58.36741115547929,57.08898518707003,54.51397762027129,48.73552527075054,38.86955302575707,27.23282148855989,16.73574810591056,5.602125297323895,-6.748030466483086,-18.026697240691032,-28.71929370878582,-40.01015988238883,-50.73390975790534,-60.998678693799526,-71.84660326636089,-80.50084267097334,-86.2926766436434,-97.70186084939228,-118.62383459910976,-127.08774729526041,-92.67162272976198,-22.592256105120956,39.83341202970427,67.91562192793005,72.53967644553707,74.24526149539058,78.65426711965544,81.5008471383731,80.05841291613505,72.52224285190837,62.30801166723535,57.02652594071151,56.0,117.0,77.0
55.30775756595778,56.506500328964016,51.750130326972766,38.10521019842551,19.07957983317238,3.7591673852689174,-3.334343479711203,-7.4405915330917,-14.05938127260086,-25.46623480219096,-40.44156657369162,-53.162583184846,-61.99482339598693,-71.58204417839994,-82.91270931241507,-95.1107380675535,-110.31261378080926,-128.19610766831147,-133.8971229273554,-101.75652346567692,-30.638318134491673,39.02685910304742,71.31718765398878,72.10010596924421,67.65735883358299,72.53164223029034,81.34396972144587,82.4077706882675,73.55787050529887,63.15050318239667,59.75004061695143,63.81295204100294,67.11268676291587,63.68365451308721,53.40340106078771,39.32219569313038,25.39446358875674,13.428713924415256,1.130867352644729,-12.230302317499582,-22.834584071247566,-29.762393422615492,-37.10523261107666,-48.191909008819536,-62.00173545185834,-74.5457322398744,-84.21527553741136,-92.99011636537027,-106.46615550762192,-125.87190556987699,-130.35390484786072,-88.9196840658146,-10.679309467638685,53.409092725027186,74.38139747283107,70.19658849056759,67.9654549563165,72.49933143910837,73.63723068899223,66.98647582770985,58.216090132781325,52.880693221096514,51.29825591110249,50.63369855777989,48.01867075358727,41.32799370161698,30.95954601524549,20.576576924894805,10.773006562850323,-0.16294305748087903,-11.452871827955061,-21.893600304198426,-32.060426831385065,-42.638593014680204,-54.02588531168928,-65.23238031775158,-73.61641035370282,-80.08861372557566,-89.59707822351872,-106.62424269735108,-122.49486409052085,-107.88247496279182,-48.58884010385249,21.772466780636737,64.24423521144854,76.99963173553925,75.92088577497829,73.0079712813975,72.7107810634852,71.47212663142408,65.9921970204198,60.07885828479549,59.23904772293767,61.72876507733292,62.22349217199196,57.619185627148184,47.809901825290915,35.001130801975606,21.765422283845044,10.10133462788357,-1.4651605025907384,-13.58084618180986,-24.751157138628844,-35.64243303094104,-46.72090987684616,-59.42341588243342,-74.63473433884394,-88.26919206236049,-95.79614101452596,-99.69232651847808,-111.09947109844202,-131.59830729955956,-135.60266478826318,-93.89661365136737,-18.44310779181389,46.34727124217791,75.77831440361244,78.71394480229235,74.5753017538347,75.55987800409248,80.68681268966115,82.09276722319072,76.44232496391585,69.00219156727451,65.36967936102383,65.85889128231929,66.95345611341993,63.08526147670338,51.36242494219949,35.72050162004356,21.511136587895223,9.556286548223238,-1.9299094294147536,-12.526428051469686,-20.32310230493533,-28.044352466893464,-39.754030676346886,-53.12993670525305,-64.25659466129153,-73.65022477620928,-82.44390615231424,-91.56670787591428,-104.76133555866684,-122.82987483230289,-129.32010611978458,-96.92839538956187,-27.62168162462542,37.093789605710455,68.58190646113256,75.09047018082104,73.59917226050148,72.27407505987388,71.85194941266857,69.25023745638502,64.12199996356857,59.92996251399539,57.97510544970595,56.58245200642127,53.23915523978517,46.28439604862476,35.49842778672472,24.078692529918357,13.715133737286324,2.046041458826347,-10.161111523300914,-21.08994506277014,-31.935090811965246,-43.23042746230247,-53.660102423002364,-64.12090531270668,-74.74594380746069,-82.25579895862346,-88.51308531729721,-103.18312183286368,-123.94036283336753,-122.24643237770225,-74.46276148329252,-1.8319281080621068,51.56562338724656,70.62006384937298,72.73423223281962,75.39609568690257,79.80205474889239,81.62014810814124,78.5182657448765,69.488612373888,60.05746019984395,56.68714125465063,56.81929735974949,55.456382531726945,52.03221460735647,44.88204378127317,31.07779003307411,14.788175061771819,2.711072699390377,-6.108875435367623,-16.08910677490535,-26.248889050060285,-35.44750348104226,-46.327339206677316,-60.18529826597561,-72.8979020843274,-81.48379933800614,-89.65187487535796,-101.1711688629624,-117.6927520234506,-134.35068696509535,-130.3388445855603,-83.13513848289429,-6.66421295330189,53.23957655509973,74.30636973953906,74.00678855431313,73.86060891846994,77.66235340841014,80.07362536559263,77.50587651522767,71.03765611207366,65.56109617411163,63.56910987827784,61.71696965309356,56.98390918324178,50.254640459507804,42.555896825903595,33.997389864075686,24.499785741667754,13.52146914388705,2.2610163055985137,-8.638506484062978,-20.12031743741166,-31.645306461940763,-41.31275523975864,-49.6724371000972,-60.249206694901865,-73.31512921614457,-85.40457537090614,-95.47673341137673,-108.5248328186199,-123.76006720882309,-120.35714825373739,-76.83498589889363,-7.350336964923084,47.78899589574081,68.39231264311013,65.96103997049762,59.92326110206593,59.565757160887735,62.492172505888746,61.829519432013,57.42775133215361,56.0,117.0,77.0
51.16003096513314,50.17975392877955,46.57566797180949,38.56169599466205,27.835998663852433,17.77385855896232,7.751476571177992,-3.4732358277570734,-14.557343917156619,-24.815130979894718,-35.059342017718905,-45.833538247571006,-57.40658097687118,-68.00861011295444,-75.51119123309199,-82.2607140482107,-93.71098164858118,-112.34054835232465,-122.8252763642473,-94.68409999514282,-27.15593496761082,37.70115584558065,70.31069415100053,77.45884668341785,74.9010438343637,72.69713035994654,72.69854651776649,70.29525586447636,64.01320698816556,59.231528484821624,59.86355978366539,62.267849331061875,61.483267914092465,55.24394417184743,44.30631839778262,31.097557645416483,18.227331610960036,6.8634613252836045,-4.992962126138226,-16.9118561638004,-27.884308878294018,-38.80732703009669,-50.113948322297645,-63.65194940045309,-78.99467265562592,-91.1579576513599,-96.89846296900332,-101.72396410231991,-116.69829327968542,-136.11263774674245,-128.74231530689266,-73.7685027460212,3.204221845301629,58.5654832135449,78.48200222736784,77.4745106359818,74.13634562965045,76.93488468755503,81.79510100575004,81.0783323692513,74.14163385623485,67.45465125525753,65.18133437586036,66.34675690578472,66.57939729800756,60.45907674773097,46.94943466283672,31.340084792087424,17.89567712596789,6.247460990186799,-5.195280644217569,-15.067056444273113,-22.31155744149553,-30.98629962629065,-43.68316133643427,-56.62920451696327,-67.06364387463708,-76.24529829919867,-84.93668273378822,-94.75234976180855,-109.778394335526,-127.16030747116864,-124.80351156612915,-79.30331778202867,-6.426361359650451,49.76964625122499,72.17275698728452,74.9392650010248,73.05496790809018,72.16678975509109,71.45281766873939,67.89029307744826,62.68698711854989,59.16547657690377,57.6361633675175,55.90363717224758,51.659882782467676,43.48064400884646,32.086056830726356,21.054875618049557,10.548311649312389,-1.560444994223689,-13.439449472584279,-24.152933996744135,-35.20988458244075,-46.352395950738796,-56.59352504805995,-67.2941790796415,-77.3472823316094,-83.8300711462727,-91.51272102765434,-109.39048792285173,-127.36999303938462,-113.19697444598148,-54.00007746214117,17.07675689605933,60.19027839692648,71.9295379128176,73.10983940481785,76.71878252129855,80.70889784665378,81.33550316428332,76.42541093186423,66.40790387715352,58.39415276334011,56.65382532836499,56.67191415669127,54.66569392903895,50.53309610082273,41.56547874971275,26.257974384551886,10.732204043950693,0.06668341919590559,-8.799994375126856,-19.145757565130275,-28.926487460829186,-38.28147417089856,-50.107718357333795,-64.23547682609053,-75.72985530710021,-83.66522053525433,-92.53227793503444,-105.42442996053087,-123.07710320210865,-136.59411375436989,-121.48403151382215,-62.20167471111793,14.220291589689017,63.07052078813179,75.1962091688209,73.44934322378143,74.75002870115075,78.73672448463662,79.89430304922612,75.85785768420553,69.13057706234663,64.69022583129193,63.2313163190542,60.65808992836692,55.16856561056,48.123879722959536,40.16230465858728,31.37962795921748,21.46947503090867,10.21476559212858,-0.8817807048451134,-11.876363915969788,-23.52738754236162,-34.68848838079818,-43.72224602707484,-52.37662148485409,-63.89418554696668,-77.06489434195107,-88.38994757603629,-98.68210542241893,-113.23230387067028,-125.99377784301741,-112.13888092889253,-57.74408858064139,11.653537827858317,57.22305684055737,69.1188731788798,63.92129583876654,59.15997782050527,60.38801459444985,62.88338862527655,60.680112476965476,56.456506311484475,56.738006639810266,61.43037456224503,66.42265378909062,66.78125423640354,57.425925889584676,38.951793045012735,19.834870018559148,6.483261046665958,-3.6125120257182535,-14.145296168810379,-24.531078546064645,-33.66525709803597,-43.370475650474646,-55.376313955120814,-67.30773221743324,-77.27999468537364,-85.68382432409132,-95.58333908122499,-112.10031242422237,-131.41461031294315,-128.6503874303368,-78.24670287758491,0.8843253658352603,58.69093538952552,76.98308876952493,75.1376613202816,73.14529173046807,77.29304681884888,82.30754188534597,79.97957673670709,70.60499137990195,62.538087184529296,61.98574351200571,65.01137076438292,63.87553160343801,57.2755403573438,47.35634074072375,35.14615497610465,21.033340932915454,6.617431621486584,-5.002667366945464,-13.812677025696429,-22.399312957385774,-32.28467690725973,-44.154621937807775,-55.82683515127523,-64.93674387403479,-74.06437340674186,-86.06791692857223,-96.11269383152704,-103.03322404782388,-117.06756079366573,-133.34690527355053,-121.65030319678544,-63.82481606776084,13.468641152421014,65.90196669186537,80.93618869414054,77.45679630002053,75.23075920776039,78.31487228012644,79.19048787506873,56.0,117.0,77.0
65.30110740629338,66.76710342928664,65.64627290505507,57.16072666115714,42.375990143329865,27.175146536763418,14.440309613675518,2.9274638056513216,-8.330694688691205,-17.339731209596447,-24.43147606248482,-34.320945458005504,-47.61943136482785,-59.88314976356361,-69.77968897739372,-78.79328791177447,-87.49730123283378,-98.40817281357003,-115.14568467060634,-129.88589597788243,-116.3791034201916,-59.15086800293205,13.130647157031541,59.39491732199872,74.14916508467621,74.46841009135055,72.63291773944442,72.09430897713837,70.77751768766757,66.37736224252855,61.41854780963472,58.584354953831685,57.27921212730979,55.00917353058661,49.74154566429838,40.37733269774738,28.736135396417147,18.099930805935827,7.201508701514672,-5.132157646593274,-16.599277046097182,-27.262093252527038,-38.50178215956285,-49.37049979272779,-59.58829779257349,-70.43749921308162,-79.58919000468234,-85.45063008662774,-95.50458629272427,-115.80006065042333,-127.98092351860205,-100.01625074075157,-32.50099351130453,33.35177439980236,66.02779856437688,72.43466725372099,73.80865623637341,78.06446800164542,81.32525849669334,80.58155827892337,73.8426619151034,63.51669560266709,57.33190091530207,56.75187531873375,56.31970337116781,53.72872654215636,48.62779760741518,37.64955327126122,21.430494032680258,7.151164587909675,-2.4278351191126926,-11.669248189002845,-22.12588188343016,-31.549265390184143,-41.340828233897874,-54.1277016543649,-68.02948735024756,-78.21788778800823,-85.9474968909126,-95.7530174947991,-110.13252419061193,-128.24864001304826,-136.41229601529074,-108.6005142213088,-39.688060032604554,32.503429237319665,69.59857907853025,75.00226420925459,73.27819721100812,75.88760626838935,79.54927773207173,79.2485286566936,73.9634165306536,67.4477011124645,64.10896225939447,62.77693813951183,59.33047957956971,53.23480555770517,45.91822469519951,37.701791039617,28.67251005498745,18.305328534441283,6.939978408352994,-4.012443812878546,-15.183826422371727,-26.900973796280596,-37.526653636429984,-46.08237585846804,-55.36209822324175,-67.69323459524584,-80.63025269637923,-91.24050282258072,-102.31911009283093,-117.95488645802806,-125.9395120257318,-100.22076850171645,-37.296823487341484,28.4261135212794,63.660269155563014,68.4284384990771,62.00782571485758,58.96575946121679,61.3296925280934,62.80907552832597,59.32986210011736,55.923379281898605,57.81155434496863,63.02951399319136,67.26118009376182,65.21680656362086,52.75647456345467,33.053361491416446,15.350321456932434,3.472605257615701,-6.575364869531775,-17.238318176124437,-27.28934839894906,-36.260058538130586,-46.65407266515046,-58.96512919190463,-70.40862333344771,-79.80050483143327,-88.15995349212842,-99.52489961003698,-118.07647981744428,-134.41287857517898,-119.25524124523535,-56.14537169281618,21.578489174655243,67.56155615361372,77.39619087460093,74.0457266616429,73.76306756214119,79.07990826348724,82.59356864616083,77.70712689899995,67.72350335311036,61.5732573020162,62.889372938965934,65.31471969657684,62.43007108407839,54.68244697528328,44.04405192056082,31.23812134848625,16.76277527004556,2.8746497502338695,-7.7184443671268,-16.234096995636413,-25.06061967646363,-35.547157309592386,-47.6999699449822,-58.72487331699969,-67.3406221095364,-77.31138693497637,-89.48136624640304,-98.07312885535896,-105.99503267167788,-122.57260879546006,-134.3236854529777,-109.37529958633915,-41.36031347739494,32.580600441504764,73.57406014322771,80.75122394877495,76.16909050569659,75.80510538716088,79.1841260944847,78.03668648709949,69.76155793494864,61.032192284413725,57.65359156929395,56.63913724924254,54.508983591693166,51.41903913175238,45.6803070510134,35.00771248819721,22.282190198854742,11.605158511940093,1.4764463034645088,-10.955949245100923,-22.75882095253609,-29.637315776354157,-33.856256461852155,-40.291132056991344,-50.23916367126328,-61.93177247568781,-73.81224490263949,-85.44564876205278,-98.6240381811815,-115.08567688269983,-122.36517812152228,-94.42995785411398,-28.07030374571643,39.1205923792556,74.00336823297009,78.73156753591203,71.55104169026663,66.47049607266217,65.4705605069883,63.0307075349431,57.73639729830583,54.36512568275068,55.710755338922816,58.02324615919431,57.824300499364924,52.716869052124096,40.40650626762138,25.192820935477947,14.357549644752048,7.200028353374642,-2.9346401588681283,-16.35931164098683,-27.82967690781285,-37.30670537958657,-47.14878729724978,-56.6771427796703,-65.71704344640769,-75.47860493821281,-86.14310027557006,-97.54140060662074,-111.49539546082643,-126.54937651500747,-124.6225079363487,-83.76844218194927,-13.367905541825328,49.93801114926129,81.5362009713499,84.08582885136185,75.2690453887605,71.81105160914657,56.0,117.0,77.0
56.79511733699679,56.826049887725944,55.76934958955058,52.61960957869989,46.200925573544055,33.23528037028891,16.80515347365805,4.023520351624074,-4.9236066173516315,-14.677592241931,-24.978640169037376,-34.195796057296974,-44.6832971374705,-58.27330161696513,-71.45654984172249,-80.47895088697724,-88.42461820789548,-99.36305080212608,-115.24053854839715,-132.707159633607,-133.09179708921258,-91.93079536031942,-16.89865306892229,47.513553700226076,73.33849823103928,74.3368245726955,73.57377121624945,77.11241421194907,80.00396832242161,78.15064294511066,71.95881201708792,66.07656913108927,63.7188145136608,62.111445460968454,57.769175491177855,51.212510161150334,43.63474959741402,35.18045350644761,25.848122755728355,15.043550792571153,3.72380739019098,-7.167451440786594,-18.55284826986193,-30.180995798619428,-40.15939584440949,-48.50400091760836,-58.643955692310634,-71.54806361821252,-83.9556131655951,-94.10322518257391,-106.45886405295764,-122.17014276304462,-122.90740428212975,-84.88904167307425,-16.635109555358948,42.387106149993,67.42863860737103,66.85207382528684,60.465503206703985,59.280990979909305,62.183043700676194,62.24231819675143,57.98659731525373,55.89620282679423,59.16750082957283,64.55617757801012,67.57238393830217,62.730821734452874,47.42891447129258,27.36801946759263,11.416734404874125,0.592745695290644,-9.617779571015355,-20.274685027998093,-29.927551873966298,-38.99235495431182,-50.12650829810019,-62.46266009848967,-73.32744020715492,-82.21414909447688,-90.87237794658405,-104.15483369418925,-124.0368740734119,-134.71952794144173,-105.44797869384479,-32.71747162316554,39.263690445318744,73.23069273844492,76.787507518064,73.29819839895869,74.92129273910436,80.71025305462474,82.09994563277178,74.96827331470907,65.19929331422023,61.31499258935844,63.8807284349161,65.11515419537747,60.57663733854805,51.8568497884091,40.55462552391139,27.17707201497326,12.531578823504596,-0.5568800069826709,-10.255997304985915,-18.691013583730935,-27.864370467642182,-38.97512766280021,-51.143053080714616,-61.37294920218858,-69.87984922723557,-80.81039426691822,-92.5238422418566,-99.89531788841008,-109.8675603083343,-127.83586083155595,-132.04871266838433,-93.1595428674518,-18.39058914830548,48.62952981332527,78.27581858006104,79.63993565049584,75.35843184351252,76.7441983431793,79.6300867240898,76.21419689620193,66.88716189831743,59.490122927147475,57.37029000753785,56.15031361236293,53.72591419176492,50.17758419331289,43.10014036908877,31.2885414976451,18.942704360884253,8.802683699200355,-1.8763833662082232,-14.695700761375535,-25.28903954577571,-30.88808117700235,-35.340272917050335,-42.85641897911564,-53.53280437830374,-65.37952029463989,-77.18830804167857,-88.92577664534316,-103.19452831455828,-119.21789787498429,-118.89279155402456,-78.11174665659443,-6.674130030173947,53.03258427162322,77.7239908692952,77.07871613878655,69.53376338320088,65.97175310843627,65.12703270445395,61.65475682063015,56.31255068757939,54.34681204366558,56.49955287918079,58.301802188879584,57.00887878637505,49.869405604584024,35.93912690088504,21.43085809930948,12.20123004547507,4.7920663283005975,-6.710279624686439,-20.021309949351178,-30.623709344950566,-40.09774809620514,-49.98978208725707,-59.284217391097556,-68.43044497514404,-78.48455828331112,-89.33581379937382,-101.18426426607257,-116.15492571095514,-128.9496253602708,-117.2149920645042,-65.0314788199304,7.260301666574866,62.66688923856117,84.61508002119669,81.81578904963608,73.26621847227014,72.59718603059076,77.64979917631273,78.51203907250213,72.11539200556244,63.473578086099295,58.86819953510494,59.97959091388869,60.03778425137384,50.937751038641395,36.34002644153313,24.04545960375788,13.950588371245287,4.880250723025561,-2.02099730956056,-8.216143738632546,-17.15064948164458,-28.28442504190682,-37.41463891666575,-46.66704501269655,-59.66743067347119,-72.60473261696248,-80.94529690116487,-86.4445573976752,-95.0919505333094,-110.94362721711437,-125.85304135733146,-111.91042078943522,-52.01250912992525,24.229085657932938,70.94875443113705,80.34099042705944,74.81121746249033,70.42465945528937,69.30796048475185,67.66235991078534,62.172655304748886,55.13823548002499,52.35709518622399,53.41744537604421,50.43206974140314,41.45705646255797,33.1493531850001,28.277631146470103,22.94199212122749,14.676174284496375,5.495832142149893,-3.512533933495441,-12.940270506606147,-22.28272073571085,-30.994445944782186,-39.99846603298307,-49.68830898147018,-59.07929288608676,-68.06291909415627,-76.33043044044103,-86.2481973553841,-103.06898137616574,-120.93669299967237,-111.92537221631648,-55.48855784263873,22.22156925583266,75.07071588911919,88.45500867138458,56.0,117.0,77.0
56.856806321160676,56.368547512682795,60.69600755880093,65.89989494055938,67.21074170613014,59.307329605378875,41.67508125142356,22.092595523096257,7.954951854700015,-2.2737036535594806,-12.712497105210133,-23.215533822548622,-32.48943040207538,-41.93405871330255,-53.710825860165166,-65.81755774527096,-76.07037494719718,-84.58288467334948,-93.97702915534087,-109.46142012784281,-129.3737191626017,-131.50353755806776,-87.61033005696407,-9.422456855471491,53.40799458765967,76.27789341662657,75.68905343589617,73.05962899867532,76.48732191560539,81.93700259684168,80.81771936362372,71.99014146774884,63.22493522198998,61.66590162115154,64.72612536854083,64.38485260787105,58.384457996521284,48.821466871218114,36.89218226795484,22.99184426576303,8.435035460616767,-3.668046994451278,-12.698643770203564,-21.209797511043984,-30.845082768133043,-42.51025856585061,-54.402961688480886,-63.834447428714945,-72.67240443525604,-84.41987188411039,-95.08896904465878,-101.92547222844416,-114.63469101998746,-132.0283477017918,-125.89412482325669,-73.65923219254893,3.8124824945376328,61.252207334213736,80.54287049228154,78.14669115631769,75.13599710551557,77.83083831431134,79.48531087154403,73.83764159610351,64.2115536804526,58.457640542277396,57.1290348020205,55.54448340134501,52.87465631171018,48.637397101342565,40.072838055899915,27.54063199580222,15.832802788045745,5.948309682621657,-5.463059001123593,-18.23564894797751,-27.34527182431167,-32.04553106332334,-37.11382677419157,-45.69819338608613,-56.91530788079192,-68.82114719121824,-80.53516417444231,-92.62346056980593,-108.04690957432042,-122.06506881391849,-111.78203364397321,-58.9589071308744,13.563921635166896,63.774571272975386,79.29208547142099,74.90334017842481,67.94010221096491,65.72886924042685,64.51173190351564,60.08636184608819,55.20802024916917,54.71780425310377,57.232058466476914,58.32811553514088,55.70145448249302,46.39265932627474,31.422875287633012,18.188516547516087,10.21760595016519,1.9688384794130716,-10.6542044206648,-23.396183326878806,-33.33301789621,-42.947507335697026,-52.763755875231,-61.87508703559555,-71.2303683447252,-81.55799991539938,-92.5868097985859,-105.12794850437388,-120.78072144090609,-129.27565548389163,-106.13668573304726,-44.4946207775125,26.308760094555147,72.4261364697817,85.56569247689796,79.09905793855687,72.04459562249505,73.9166700024075,78.66743202972128,77.28414168130803,69.54230330708432,61.51617163609661,58.73938652190404,60.57696941579517,58.454524367000175,46.844558538935225,32.409121269517264,21.03126452257779,11.166885930851887,2.6612366552775635,-3.7376642114272274,-10.399557616368279,-20.349208127271655,-31.20300860826907,-39.810280439832674,-50.0751568570204,-63.693054221278544,-75.54555726870613,-82.58612968881478,-88.35337485657543,-98.92180678330095,-116.27942050801224,-126.20881899754191,-98.95315528545748,-29.346958102883164,42.04973531329182,76.70868262909602,79.24371361070938,73.14325098918324,69.87690832307163,69.10212765628938,66.4953165315694,60.04154768928173,53.71178097970854,52.56408352682315,53.289100732765114,48.22741041187617,38.69705524671465,31.490812830274862,26.994254061157726,20.813685763194634,12.01051197827287,2.901341161660084,-6.188836179036897,-15.692929908564997,-24.852236662433725,-33.50342960758103,-42.776264402389494,-52.446371679870644,-61.72945820837915,-70.51387611102592,-78.78915686812475,-90.26654741182021,-108.99005344440727,-122.61831501781951,-100.30283562319933,-33.008262404724434,41.531763686618106,82.57257058337647,87.17528031930601,76.31410257078511,66.33151466697977,60.923922356197465,56.78354375304649,52.22936435453066,49.639735342259186,50.15089640055326,51.56143106889279,51.8460092944005,48.83916184456697,40.326345055779655,28.3865149240614,17.27889378104314,8.180650705571178,-0.18243590138116647,-9.76554909671688,-21.608031716695283,-33.89129323059846,-43.527958889345285,-51.252233575104604,-60.863898907509615,-72.78386812888486,-83.55698795292172,-93.63832604038444,-107.3603588253821,-125.4017262868377,-134.53388050366917,-105.98188431644434,-31.852753396670153,46.08580630097222,84.6517589726733,86.78751416315744,77.7851824432334,74.04934251360596,78.97595629516309,83.00921028278488,78.25901699750851,69.2212893819069,63.245657674060325,61.5088257394701,59.55943424967363,54.505614258003355,46.665707635473105,34.98756058581506,21.383056423264357,11.81191302486221,6.044948566857419,-2.6790678829501178,-16.578731714914156,-30.637453428553435,-40.33946577778629,-46.34065473924735,-53.37174613734699,-64.53051939741368,-76.98380774887214,-86.67577031006816,-94.88723296276437,-106.89439670835675,-123.84095880441532,-131.15476902972392,-102.39621037326262,-33.105901685491574,56.0,117.0,77.0
