9.09618396772414,67.04179377336548,85.7457621638409,77.2090835153665,69.97082179994402,71.00018606181554,71.4513405185404,65.08042328722246,55.89277095404707,49.41481663339792,45.07038464469333,40.712136368007926,35.78120064211905,29.9877958989372,23.280752587948545,16.05009558629181,8.850546884128608,2.378909979511438,-2.8753934968883392,-8.056233659729077,-14.940236443107544,-22.428833437129132,-29.147278143669453,-36.04155021676812,-44.21520233521677,-53.53674038645864,-61.75144550435367,-66.85649750160051,-69.40019771201037,-75.28505632464768,-87.82563502618461,-93.04190967372885,-68.2000771276119,-16.509667864057764,26.44624241645716,37.37885256824611,28.210584831966564,23.679833803492404,32.409463344571144,43.814290486719145,45.20536851261271,36.93915360603195,31.668616540413908,36.63471608538662,43.41627218280105,43.516553351555274,40.17742489264718,36.613244955968774,30.696827437058584,24.046976340594988,20.211570161123362,17.871469515566762,15.280733912821143,12.212817806553872,7.992006800926963,3.3228037281299603,0.6696006330114861,-1.5962261160841782,-6.719910525351396,-13.913473525170033,-21.988632827603915,-31.573498841440244,-40.35158468990217,-46.14575723620362,-51.51022418652495,-57.87588519345708,-62.762903011672734,-68.61516569648529,-80.31547522272996,-87.64694627533883,-67.10896382823177,-17.932031519102964,24.473566207685135,34.30648369261987,25.612099471582823,24.427176572121457,34.65374788295077,45.9345971673834,52.81546352157157,53.39766406240724,48.29615229536318,44.25596259885426,45.98927302468385,48.22323432632291,44.07476128028573,35.24778052876172,28.957285825476248,28.393360622775262,28.917557186550166,26.452136344204384,21.53185139435246,14.566104203405507,7.500790224449023,3.1009536120026584,-0.26710884538900337,-5.607925370546715,-11.75111348971616,-16.803770483638452,-21.10474362363867,-25.82878403688422,-31.23166654870911,-38.86139928787083,-48.02891685644195,-53.092739633218066,-54.061765462924626,-57.0243160561955,-65.05886919092711,-78.155311732398,-91.46642628699658,-89.11963900573724,-57.15051417739257,-7.726640188280281,28.818047624035263,38.25243274373066,32.120909517693725,28.01566360251465,34.86443043917053,47.844351534251494,54.006582573141024,48.876879287098724,41.565032443400845,40.079741673673304,43.04073966869259,45.61431318512635,43.27091220587025,35.83266559186399,28.935995206314818,25.63282829232417,23.3278704768928,20.6451259345521,18.967498999892022,16.393721334005082,10.982385041960008,4.056673139498184,-2.7876967363405503,-6.790881609187767,-7.892458740034857,-11.107777566496082,-18.19576824406667,-26.174303426830587,-32.08910684153049,-35.93169242967674,-40.37455764057179,-47.007744312389015,-53.274786127287705,-57.38777115858055,-64.29086952069012,-76.35601554200689,-78.32391391872875,-49.9488889636247,-0.5319445776017132,35.01331181582336,40.51261012520002,31.721326003929786,27.58706284982825,31.76006955687309,39.30241952074107,42.5503036823615,38.990174388246956,34.56178758402923,33.56975807160837,34.54138718155184,35.16867800649498,33.58831092379075,29.13245936682189,23.081277233658845,16.987841043233313,11.8454696559403,9.717805637661906,10.37874910627581,7.93875024824024,-0.6659496555134502,-9.702723249586848,-14.63135451519097,-18.810245507425016,-25.353109125944837,-32.22438428508955,-37.19333010781206,-41.641311504753446,-48.22389481864638,-54.42736315809078,-55.79191498374995,-58.30231311593738,-69.6008906299945,-77.2093370455346,-56.56032797849696,-9.26234477777056,30.676165250314433,39.73827621507888,29.97017917820549,27.701191354212536,40.091187109310106,53.11534534864911,54.94683027987312,46.30518194795586,37.10188421575224,35.49362159516699,40.40275842290079,44.369381157920294,42.41804888098274,37.54350300647398,32.6786940951016,27.58158633507206,23.322333889757072,19.753625662778237,14.477966201044968,8.307379053474328,5.917710992388045,6.006454545870272,0.9789539527907261,-8.830019713233167,-17.40668827494335,-24.42060065693786,-32.11927416001382,-38.907299306555714,-44.14156653233245,-49.963450268021376,-57.00877532254566,-64.3387928921722,-69.7042291237627,-74.01728613906452,-82.84026294409882,-92.12125513690147,-81.58342746379645,-40.90840530619561,5.667284430048969,28.82886589193424,28.983142397640872,25.191879105454266,29.599451668033282,40.531499561614716,51.07939293029061,54.86314845681512,49.87822913884893,43.30192788941521,43.51213889956669,48.36649232832806,48.630672326681136,42.592415314518234,37.56326006777161,35.80203058561318,33.50701490698268,29.340048465802994,23.898941787431013,18.215758055664985,14.396092006042915,13.167710008034778,11.086132866066944,5.118688895402396,-2.36987347204924,54.0,127.0,81.0
-42.29371155038128,-47.57700295260119,-53.335655741910266,-59.49962899902539,-64.04747119473046,-71.42333093723575,-83.88777990649665,-85.40885228117774,-54.7268846068361,-3.1646434600368165,30.74148594673008,32.35745210978437,23.803777979718298,26.6343701885649,38.19171557690646,48.465244757805365,53.70286772565801,52.311318971141624,46.65113817458244,44.21905136562236,46.98580161398406,47.79345671487531,41.710646604853345,32.87342496197791,28.295478920163916,28.72431195562561,28.53069009048587,25.24617906091947,19.706170147286137,12.37668838068459,5.919907828115054,2.209846085712112,-1.5859539104204243,-7.414926623827759,-13.3545555090971,-18.056448187557386,-22.40797458306982,-27.293495886978597,-33.113418339862804,-41.57343617856118,-50.11034272344353,-53.54527580830709,-54.481669492440396,-58.79433791559478,-68.3755785287678,-82.46519638434782,-93.29711976936242,-82.99963896514038,-43.38292629041873,5.347322153647118,34.180304317473166,37.22792822024336,30.109013901879848,28.802868762340307,38.53718856596637,50.81558568850255,53.4653340260742,46.454553575632254,40.45664827388301,40.678604003775725,44.04772311947542,45.584678994981154,41.45959496782901,33.51705897669427,27.663557453808036,25.012831207977904,22.53001051749289,20.051623289418245,18.476786638762196,15.093815830320727,9.067064565415322,1.9762428497037636,-4.360312297372533,-7.228691977195291,-8.396619240099309,-12.844417206951071,-20.57440953536692,-28.164196819876942,-33.32476495202058,-37.01641093706531,-42.10790628910028,-49.028943683539566,-54.59220242803277,-58.77623327877218,-67.53266268804587,-79.06615147201727,-73.61703475787422,-36.42782048290701,12.583684893033748,39.42510808305382,38.370548865624976,29.610412816542482,28.0730989583108,33.91787160467293,40.98074330663531,42.06248155190103,37.47822431928686,33.91971115494332,33.7634283261645,34.84878464561495,35.00119222541744,32.57688662864495,27.45610568859613,21.291059788099194,15.329856296838646,10.833422344644186,9.792586447957957,10.301890952209147,5.95692118197828,-3.5757495813811326,-11.521441862884254,-15.67507780980577,-20.476712751781346,-27.452368442871727,-33.868791264126195,-38.38772043186808,-43.288142798977894,-50.34082306263382,-55.29952517524137,-55.88109556148106,-60.71542275404853,-73.3328813707545,-74.87831420619393,-44.47125402789723,4.68498314087607,36.57297323244431,37.61939246371882,27.675559319101914,30.177931520046453,44.53299641009856,54.998070204045305,53.19334280002403,43.19892037239234,35.72425243717797,36.510368417797835,42.00556354490725,44.40644095212096,41.08316015050432,36.14233058428669,31.209761645463104,26.210204953467326,22.313613261002736,18.48555227445014,12.5929255614083,7.077966704864535,6.023460477356485,5.3029616423698815,-1.6562491017865346,-11.589428212400815,-19.458272869293758,-26.570165051174037,-34.291407820996184,-40.48976025415075,-45.693551901595654,-51.890426467715095,-59.178761422701626,-66.18117684185638,-70.82655045187428,-75.94271302448344,-86.15214155807011,-92.11937683509939,-72.47816817997506,-26.400123201234507,15.37829713867937,30.490563010341514,27.472372470510287,25.484626026489046,32.37959079585097,43.92351490161502,53.10104057255438,54.176346843715116,47.660719239892295,42.51371088195646,44.83123550638699,49.2431610713025,47.27301708252149,40.73528033611048,36.868569137693655,35.32707531277804,32.476556158346334,27.8685901127029,22.204763054599272,16.826188891755542,13.846236821300055,12.878908747287035,9.741086803366391,2.939332005521788,-4.366454793318336,-10.64383061700244,-16.54645968597724,-21.633635083357046,-26.538803495144634,-32.81100354722996,-38.82544233275632,-42.35520481306628,-45.069020198086584,-50.46694866198463,-57.81832358776457,-65.62448832433913,-75.30243913328317,-77.7412123819857,-53.73120832451477,-8.168191263154496,26.849222877452455,34.32552309857165,26.83294391262814,23.29339051254317,30.53369708022709,40.3877652916292,40.906529676762446,32.71104821980912,26.995593552312492,28.715592440111354,32.283642334911484,33.43366391085992,32.42438643294802,29.056212552193234,22.328139466399996,15.537977055438054,13.545729554823595,13.119643775950319,8.091429880236896,1.2586822097604364,-1.7580410392876602,-3.2965973360641834,-9.560106270450685,-20.167027484339496,-27.63608920234706,-29.419219611239363,-32.84232385144459,-41.66937838493315,-48.901669429351934,-51.52528833976956,-58.19725414314019,-71.13439632378649,-71.42015790374035,-43.121311619905455,-1.820661928816047,23.298969186680175,25.743458287399257,21.47533384991149,26.197849298674612,39.84413926585909,50.535367707381575,49.10338855786183,40.30558841374958,36.702010407730555,40.466363584971155,42.722885823533474,39.56943254673463,54.0,127.0,81.0
39.29242475005568,31.41994326124047,26.691751297660282,24.377721267583823,21.719459496221127,19.575202625419227,17.811823768016733,13.555723655612528,7.069129747606467,-0.05903831098632831,-5.606582185408442,-7.492785065124694,-9.222545573416623,-14.876115716517042,-22.93303019639188,-29.92698144297459,-34.42288690748304,-38.23550883052103,-44.0264110685871,-50.915488426824005,-55.735496926989796,-60.595800589283456,-71.15853405332646,-80.34142698499448,-65.97881989124498,-21.804250470267842,23.61223317722851,41.315288474942776,35.647429495583694,28.215476436757857,29.202941895324187,36.19582306396307,42.099628939172696,41.04771375878853,36.09511725921879,33.59421738310567,34.05392984289319,35.077829647298714,34.60828349260965,31.32444245548483,25.699960926957647,19.518836666768944,13.78216533607535,10.136059893828653,10.044205833631086,9.766718902606986,3.482185724862208,-6.312272531090949,-12.96590881673828,-16.804925600683053,-22.35737071274996,-29.492226676495132,-35.32575456571385,-39.61301353629741,-45.16946036894367,-52.27584355902967,-55.70482249157088,-56.353706899768476,-63.9636208529845,-76.17564890510714,-69.60871505270518,-30.630801471506725,17.00326181128867,39.642727203961,34.56207225090067,26.614484609184363,33.75532661535298,48.576163873324965,55.77437922356604,50.7037758139181,40.34551024984314,35.102141930436616,37.95240925453595,43.31153360389153,43.905298209312505,39.64634379001439,34.75279015919387,29.71857978314082,24.95082044361667,21.324557418719767,17.005563507166187,10.718574872369185,6.292050441758658,6.184019851247861,3.986471119254654,-4.547441014636451,-14.11916796776544,-21.448501347822578,-28.80965723208751,-36.30488192444238,-41.98019301641339,-47.34574688380922,-53.91465476076412,-61.33858015910073,-67.78660214588085,-71.95926916429741,-78.39890985381456,-89.22512871758751,-89.83024931723476,-60.896527638835884,-12.332988961721195,22.619606468009486,30.574639350225702,26.142351165047884,26.60638281856436,35.55482990357062,47.113559252342085,54.407216084503396,52.783208189203485,45.58016248423535,42.439681337429576,46.35191559616618,49.49959751009436,45.48844870837243,39.17526189994315,36.3872177376323,34.71140026479686,31.295818592918312,26.30672932505414,20.52397523121598,15.653706997407863,13.499985802558625,12.385242974805697,8.050644032993521,0.7363422228576993,-6.257871207850715,-12.38474985015232,-18.123511956453523,-22.97767112120357,-28.207730604353596,-34.7191553502329,-40.11352891423014,-43.04561508015138,-46.27865666328514,-52.52767390125936,-59.964765336478905,-68.27484782207452,-77.63295421089042,-74.06432402738812,-41.56261154705974,4.41511499413448,31.706213633817235,32.74533006080569,24.805506698841942,24.38684485890593,33.73841926592155,41.78867066397379,39.00803483388406,30.331661952248627,26.862652504455333,29.861656845752094,32.8978985905728,33.32701704371092,31.761993069178985,27.427897458785857,20.093484496555465,14.414511197275615,13.619688381484869,12.215898353477318,5.973019944876437,-0.07955487335232342,-2.052867858435937,-4.447476800664781,-12.450193076039799,-22.970453315467267,-28.540224514052525,-29.845306991989865,-35.01622689714225,-44.29188281308481,-49.90960241197006,-52.57176525083768,-61.78309490605986,-73.63111178707406,-66.15547328961081,-31.10052921637667,7.980524290312234,25.876066489840017,24.300985615536536,21.579706610179002,29.63815829137761,43.82797110861972,51.45609994164303,46.75273039744219,38.31607695887265,37.34438950912971,41.66448072845974,42.23697297747493,38.313064596842636,35.0190740444162,32.51961963085121,28.942453697919007,24.136395068057517,19.577929293036046,16.87957883777227,13.533598071407214,7.610503233839579,1.6857003053588793,-2.6281442722659185,-7.850037729677885,-15.665363133534877,-23.90756525403905,-30.6318897993027,-37.478939900301896,-45.06459575242869,-50.176484579651984,-53.254352604041,-57.5155058879952,-63.03047289265106,-70.59964867164018,-81.63768473802138,-87.5550052009741,-69.87495415320396,-26.25244975027166,14.970411188456527,28.52982448344581,23.07325338185321,22.064580667560506,33.478355664523775,47.23166361675503,53.64068412059295,51.103952838078605,43.39296180468573,38.41264854498221,38.959049624340764,38.80077402066282,36.447456079057744,36.94103144048833,37.95824398656356,33.27561221414677,25.960069207334385,21.980421718398873,20.77485530889331,19.61376992312092,15.053933911684704,7.259822016192963,1.937784088732773,0.4936632712769863,-3.404097691448851,-11.54967186034515,-17.920067244747536,-20.92337436663171,-24.881444466655765,-31.150535699908673,-37.279921259665485,-43.778233739750725,-51.588708047180305,-57.97196905884238,-63.21183775977572,-71.34818042521117,-76.56391172897212,54.0,127.0,81.0
26.987596931060217,40.19201225511676,31.32649907696622,27.015844773734806,38.020861663719685,51.89506008605585,55.44739222197287,47.74504620824211,37.97981801306313,35.215327634593095,39.618965771152546,44.160504750231894,42.96323214290344,38.20032877347983,33.34232197832915,28.243562165943068,23.81164388001113,20.277827437797153,15.315047762633787,9.003358008005685,5.949507502729922,6.151296779000847,2.053662930014087,-7.49730618627475,-16.415015301790227,-23.464355180204294,-31.082731845224068,-38.128281709231416,-43.451474683196764,-49.111235180522705,-56.01865721039127,-63.42349269603213,-69.14675718974179,-73.28771983465133,-81.3540210087659,-91.50778812406121,-84.84351083821656,-47.47872225176336,0.4223430886575641,27.39682880212173,29.62117778099863,25.329055730412477,28.499924996899292,38.944806006520835,49.94116643751356,54.91054819416878,50.868990715068534,43.891593091846566,43.04163607969411,47.79882605673201,49.06079420883261,43.50657611018015,37.987209414903674,35.990089084377836,33.92680831593639,29.983921684616096,24.671276583891036,18.91537451415699,14.732721096152565,13.268682347616227,11.580025908933774,6.088132185723341,-1.4117976233058043,-8.070135948793613,-14.107651278579809,-19.607723236444325,-24.353012799391898,-30.01608305144115,-36.52363820041294,-41.16408470503246,-43.75715760698855,-47.785897782592066,-54.67096239730954,-62.15780167103377,-71.1328140280086,-78.93351160704503,-67.70831132702904,-28.1323128106043,15.227968607404106,34.18994177572913,30.440479543360954,23.504215531031324,26.397344205188737,36.824207856131466,42.169125369997595,36.56876297654518,28.47174599283887,27.32982736628044,30.96910863275308,33.271489446755616,33.070127638665774,30.869953500810837,25.504292232153617,18.001916331955535,13.77816943801686,13.632152246804303,10.825097601509496,3.8842298851294905,-1.0071145816296965,-2.378322631505326,-6.1313427352817715,-15.59042230944533,-25.2942989300408,-29.021414004034664,-30.66340387440994,-37.60415370251953,-46.53696609407527,-50.58705090974718,-54.2676263573547,-65.74836169906142,-74.41430207770878,-58.32684807835797,-18.73920586662695,15.796762513042344,26.714905113219206,22.81534773867391,22.709989666899162,33.64475972196948,47.21529030586084,51.23522488946336,44.06549356717392,37.06399526940062,38.48003427473943,42.47666296087817,41.32695969878256,37.16267079713892,34.33071456527251,31.625981770402504,27.658108533733714,22.67526986583449,18.63735459596157,16.1531944554802,12.032941751210481,5.748992551659413,0.32534590659150575,-3.8947986251283018,-9.879384219548834,-18.14638991105211,-25.993592447781566,-32.481858292339375,-39.708209955805735,-46.90750252743469,-51.1018136672151,-54.30728383141709,-59.00537779707839,-64.89114784388119,-73.51991845673315,-84.64439839189637,-85.57053699138035,-59.14636806843683,-12.480839179591257,22.00381781688831,27.81700489966498,21.528644360723867,24.320584015849168,37.80541295574747,50.02750051351319,53.76249522392744,49.09331979742636,41.34664600791421,38.17866434632583,39.27908647428619,38.11621868164014,36.19014115120834,37.52331529296669,37.27757586008589,31.071158364180516,24.388585911858804,21.459269360988554,20.579555154891306,18.771328563871574,12.934904190639156,5.220648803592476,1.3250992278565012,-0.09265378950476076,-5.531111731544459,-13.817884910217597,-18.981174236842485,-21.787766429325057,-26.554453037555174,-33.00135298459986,-39.01204432231878,-45.974627657449176,-53.7051531747212,-59.40360928751565,-65.21594138928272,-73.82317934838736,-75.08437290093785,-53.412155099401794,-14.977657784483487,12.961032189240642,17.27377771214036,13.774383924217794,20.526479676335306,36.392906243474044,50.06350355196273,53.3000086190256,45.83498966664492,36.99519783091191,36.16168401597966,41.47069060520549,43.28600038111733,38.12427716667904,31.730500286857783,27.29578603333418,22.50879691642413,17.531528321427697,12.832876016589218,5.771522890461738,-2.794532085386712,-7.475370880668769,-7.583209188160275,-8.557753416406406,-12.347861206863424,-16.900459129843743,-23.59050951748704,-33.35189972575771,-41.70199059330385,-45.29726285355651,-46.74775026817087,-50.9733549310892,-60.803306811297716,-73.32257107309952,-73.84341790131859,-48.50100084393539,-9.361579486063142,14.885805848312582,17.32386303119037,15.527312372539006,22.55221477778344,34.86181527655272,44.01922894662645,45.4625346461322,39.01811256360781,32.367668837884715,32.889469424740085,37.53691694475438,40.2136298889713,38.646746937096154,32.89199387830805,27.585950461893084,27.427737058597838,28.8130790631317,26.59573116076111,20.836349390463138,15.409447769345409,13.284217989702507,10.012623716150946,0.7816963640062589,-8.629903710029453,54.0,127.0,81.0
-3.4599057634785106,-9.83691994433306,-15.791319634441688,-21.007886547945844,-25.81919311914672,-31.920314878581088,-38.15012218375188,-42.013213953103026,-44.60452607345553,-49.56902748867664,-56.82816504489049,-64.48363646460555,-74.03454444520925,-78.60232894059274,-58.695130606492626,-14.364859937093081,23.75909096934073,34.65709678465877,27.93137068334008,23.127743927987144,29.119295076982002,39.43212931725377,41.521817133769225,33.914281783790535,27.292759169941238,28.21935364547635,31.91888928467296,33.42672781413089,32.66547723431264,29.69976238479798,23.359073752102535,16.21886104426124,13.55268996516532,13.374569110760996,9.021756643903041,2.0104940213183644,-1.5804711816667334,-2.923818375586896,-8.362427367231419,-18.76021404561683,-27.03550823312672,-29.293797511374134,-32.020778357686154,-40.388899718594786,-48.277908174023445,-51.18865252603595,-56.769952576468604,-69.58265675694307,-72.95158827818025,-48.309278711885774,-6.894752233341515,21.432313183955443,26.254469943470102,21.735602470528693,24.877596293560508,37.89707113659259,49.72821824728679,49.97617636864667,41.415894515434466,36.63350125200542,39.84079601324953,42.772546281075044,40.151942804732386,36.17897094244792,33.6427554561953,30.61883452160717,26.27380352946356,21.29988870593062,17.864889482833885,15.264241985738526,10.32093764299033,3.982485360362883,-0.9039614206346195,-5.3319387775040505,-12.125839421160398,-20.57757576935682,-27.93723811358671,-34.41833199690296,-41.96164148684095,-48.44877909686468,-51.94485469622488,-55.51428713348774,-60.57298383088948,-66.97996413761636,-76.74758396256605,-86.85521572493832,-81.12191277120198,-46.51152618412569,0.14114938392855006,26.380042629131808,26.077005603190386,20.896211069491052,27.571538415514492,41.97168615640424,52.06894112635717,53.15176973052289,46.79760664936146,39.74568300898903,38.362044846285784,39.32926665650016,37.34593631040969,36.28716868434968,37.97358067337916,36.00572293644201,28.84859649242228,23.178880002144066,21.107394072606446,20.317934687888695,17.550371306177812,10.623690557567262,3.5600917759493105,0.9674084947238037,-1.084036919177827,-7.9374764716983846,-15.761659345114305,-19.81891652204842,-22.8583225618672,-28.3838167728688,-34.77732767230446,-40.839877637079866,-48.264637156651915,-55.60524666664302,-60.82853433387903,-67.55761656478764,-75.74629401136997,-71.52097245132188,-42.9642372152311,-4.672664014997751,16.37149571478427,15.99091692742369,14.348872600583942,24.63885674682929,41.046347999827276,52.26880833327853,51.98435818174029,42.872991019994046,35.76298322111331,37.454197326107646,42.733757161032,42.355805999342564,36.10718994577339,30.318230247111025,26.028841960985826,21.000767954802306,16.239122963381682,11.12632516861438,3.2395267442671174,-4.749094405322703,-7.777543571425963,-7.551015210322539,-9.455399747607796,-13.61404529944131,-18.47579308993393,-26.21560539849623,-36.155593796581435,-43.222846425206804,-45.706330915014156,-47.50525957349457,-53.19431885053932,-64.56091435585286,-75.57793943266019,-69.27192360050967,-37.317585953303336,0.1404032128352799,17.286839290907754,16.345890828157625,16.542911752304935,25.983013521218005,38.106764905735574,45.3470717379171,44.22483957092067,36.6414020534095,31.721150541525994,34.134297150711895,38.674228290678926,40.24124886600699,37.31714191165364,30.998818900561563,27.0086300035991,27.977481772354505,28.634663581011477,25.178805076578968,19.012852432723516,14.496659790118684,12.806659430212363,7.907458252839466,-2.354807894230424,-10.264091570211235,-13.42022460608786,-18.803046010002998,-27.642442647552322,-34.19755387038182,-36.52114825489416,-38.046739376817996,-41.23593028157618,-44.94099531884415,-47.40146353853171,-50.08764215524838,-56.73707951190645,-66.9263005306169,-74.23608720221256,-66.27469623384492,-34.65700040828417,4.463958406011143,23.797273172741246,19.80715190839545,13.1853516597446,20.821381898674698,37.788860771577596,49.087175465872555,49.02013407274856,43.641747203632406,40.38434367688795,40.49046300045127,39.66440801430191,35.6051005219189,32.0822060396272,30.61147565985047,27.56559793680036,23.208772164353956,21.770245695588216,22.278737791020426,18.974969742886216,12.90097346167245,9.134416307233789,7.286778363674681,3.7844059793607165,-2.3900758648622404,-9.639303235002501,-15.640041049000486,-18.86413227017015,-20.311911980435656,-21.692793367126743,-23.89170269590104,-28.643202115768975,-36.08425176323867,-43.008116706576914,-47.27504123427442,-49.86571030317902,-55.245324741163124,-65.0169587930467,-68.79413141785183,-48.5074688621151,-7.253490955645383,23.720778865922885,27.811577746377658,20.047660709646095,20.10505592992017,32.03471832333413,44.53474420240864,54.0,127.0,81.0
38.885333639453805,35.3571251513545,32.895212577312584,29.497522936495322,24.81808232331455,20.077617228530325,17.18769635224668,14.140168033034549,8.477819222203857,2.369789040785936,-2.078703293955092,-6.997558245931218,-14.527700017130519,-22.891742900750174,-29.789262608441327,-36.48306152752303,-44.1275246146386,-49.69017326239569,-52.81752894706909,-56.858320618441795,-62.2281909178498,-69.3755823782791,-80.1149476678057,-87.7412091655672,-74.0257480444114,-32.735882435046,10.840663563461929,28.32736013935695,23.98429843489454,21.415162511462725,31.520444133912353,45.70820127211571,53.32577462275535,51.88141559777142,44.43830080714781,38.69970209370922,38.76343045517584,39.0406426317535,36.67635098212519,36.68852705348246,38.076712671376704,34.22395097718835,26.80380418378124,22.29504670038574,20.865852201846263,19.893003933052256,15.928340006370917,8.291251543769034,2.3473359113164167,0.6698147531741273,-2.560953053178334,-10.428440345854861,-17.3247059428693,-20.568604789968575,-24.184062557669755,-30.278632679181378,-36.49438468205636,-42.813872801756375,-50.55858761340446,-57.271356103311945,-62.39985303630939,-70.13766411123986,-76.63743926268256,-65.7089841382828,-31.603713678784068,4.012173016351927,17.796786610289686,14.676325400230539,16.066925326576822,29.2878504678033,45.22975153755961,53.455568806687445,49.86384667961379,40.11000713371882,35.35765435048029,39.07973009414199,43.448346267023055,40.88172209324957,34.1816897084363,29.057010911766326,24.661494737535197,19.533521658662735,14.938867391276418,9.144074080846215,0.6736947178990307,-6.229518511905306,-7.777549793096037,-7.746312923334249,-10.555088326555664,-14.897392702032006,-20.317151295381834,-29.06428229077231,-38.69012867161114,-44.316905343479775,-46.05834564182134,-48.604058739874375,-55.93339186273994,-68.3883042430807,-76.33736806243536,-62.32749934771484,-25.622533399848855,7.710532773338093,18.056092413050507,15.563384997173436,18.44123111260116,29.629738151665286,40.91438379431166,45.951210443116835,42.37921434007564,34.524173506654094,31.770045426744772,35.54359638183952,39.535876481120795,39.88647210753503,35.65935731608729,29.32179578754194,26.917084359658816,28.478493730226024,28.077654748382056,23.512685844534257,17.34574838598443,13.885889243777036,12.032639558335731,5.262376211777728,-5.246427993752505,-11.415634462887718,-14.475498546451261,-21.21950892819272,-30.00023074159484,-35.20294162049443,-36.86546584242187,-38.7934430346603,-42.356040055773036,-45.80022574221041,-47.98227501071796,-51.49474356307693,-59.497374115576214,-69.76835303001792,-74.15037780956085,-59.414647925461246,-22.7796872322857,12.874150304309703,24.385813099874056,17.08091540577727,13.72773174063542,25.442336555023086,42.16555778625937,50.120048856509285,47.60985954638277,42.28768459543361,40.196172014658316,40.57165028141285,38.73594805264402,34.32890149672144,31.572410236834575,30.026244337596705,26.250708107969754,22.373300704189862,21.97364149798276,21.87093255661048,17.237320790451435,11.464213703427395,8.565747170919757,6.562067124024219,2.2313944135224872,-4.470746145648072,-11.605286029858853,-16.86154795164282,-19.37296018249667,-20.673832287691628,-22.19104919725892,-24.918417012133354,-30.626570595266475,-38.283956016392125,-44.541533715346056,-48.0439035925696,-50.920973939380055,-57.78927740601328,-67.55191016754014,-65.95996463068518,-37.63556247317394,4.169316319311802,27.433649182585487,25.7384615796689,18.72120933107618,22.624630910320196,36.26861886032153,46.286915143464135,43.869653398731465,33.711299082433236,26.75577299203963,28.371955098532183,32.09134380357573,30.592769925626587,27.379929510532143,25.432362198739806,20.54464693116089,13.006136838374541,9.596491043674929,11.38662217864748,11.390059698782647,5.699197588048834,-1.7326164855985902,-6.634534841012407,-11.02710641793744,-16.817788404487857,-20.771269413929478,-23.465453744298774,-28.658721437799837,-34.355435194859986,-38.24765079986396,-43.06743260466219,-50.38368964538353,-57.84106847229921,-63.30575721706667,-62.21255567486872,-42.42023687275075,-3.193976200139665,29.070603924088022,33.75436333274788,25.365321206761877,27.22407912415704,40.142189929678366,51.19335297638273,52.53991308367927,44.85505643922806,35.51218940334164,32.667762024253015,35.52582319953256,36.77041703539558,32.08390697100746,24.53311600675818,18.259506198066955,12.96342109893267,8.082459354511354,4.7900633529330205,4.340945404621973,3.4209033252957584,-2.3530544850471062,-10.734954770004821,-16.52093979059811,-17.87446222752996,-17.740714090707513,-20.99654395647967,-27.262387658933616,-33.231551407549425,-39.46246658394412,-45.475022992488114,-48.60967480372812,-49.2190347045344,54.0,127.0,81.0
-76.00745535011306,-57.73208038321748,-20.105556525930222,10.648895693525764,17.68368148040434,13.865128403741515,18.893241074190406,34.158256976212726,48.72932231782227,53.58699754487209,47.180531996427455,37.825812434965464,35.74715095258339,40.75768853914039,43.49672671842387,39.04072899203952,32.45163326439148,27.855218810405812,23.201447829810576,18.144573405968384,13.538470385988967,6.888868079825186,-1.762035456805662,-7.195588019073193,-7.642900741407256,-8.232919136504343,-11.769923670558583,-16.24033588966453,-22.480923922589184,-32.00621930523109,-40.85039368370179,-45.051300383384586,-46.488708544465375,-50.11845536007405,-59.16820139957558,-71.91919636747741,-75.14607112928428,-53.2620936459926,-14.263260669879138,13.117846997291071,17.706228544483306,15.35749215975529,21.112701389106086,33.25489245863083,43.180491808100854,45.79255319034013,40.124788113991016,32.90208789118209,32.42531092938224,36.93866521656935,40.07871771590751,39.130935940945974,33.78568791495811,28.02444704093603,27.208268603380866,28.776005757791623,27.144591879541277,21.693939103558275,15.945205718457542,13.463118241922773,10.782119945862402,2.2387811760172567,-7.688439166625944,-12.260163748913314,-15.918164519574521,-23.83420798915204,-32.008557675007495,-35.886312056284375,-37.25323760398465,-39.70014502912746,-43.463152034275595,-46.52327773976783,-48.66520191594017,-53.3220509441042,-62.47837032072264,-72.16841891971463,-72.41186846374943,-50.50886538183751,-10.981147463330673,19.041244197533807,23.276622465695738,14.779429961748827,15.69284797605261,30.500456215451234,45.71289190761647,50.21238131080968,45.98315161550616,41.25232241026598,40.24649745574294,40.43216837200163,37.54980636656161,33.2352460625841,31.19250384725794,29.201279369468637,24.914934562231927,21.88470184503342,22.223990103510552,21.003371549419406,15.407684039571036,10.317765438916325,8.077748803457999,5.616156018854014,0.46910009173071365,-6.590799018534323,-13.405259739561249,-17.83281985071611,-19.784405252877146,-21.060672087575906,-22.776206041557963,-26.21779706800036,-32.79281112932851,-40.34755907672454,-45.824980551204575,-48.73431347502194,-52.34622690278992,-60.67478625404463,-69.17546680162407,-60.66865190409398,-25.468163280668467,13.818086369886615,28.871368559517826,23.26459923220434,18.431890780424766,26.048569565206577,40.16175033499987,46.89771121085871,41.25704952065053,30.938686084793186,26.411060869295152,29.721915015249284,32.21768343002036,29.550262295397243,26.79933183048956,24.507719940984437,18.367445748234363,11.345002408857036,9.810253953838297,11.903008594339159,10.27201586795303,3.454540897327328,-3.4379196292781766,-7.764995654966434,-12.64681317594383,-18.281255907089108,-21.46457364141205,-24.674348516140093,-30.448419914539834,-35.61346945292676,-39.38579697758574,-44.98458672328542,-52.6514035354163,-59.694662562843725,-64.09674926604475,-58.9476973184201,-32.332609167232455,8.310750800450828,33.2514760245438,31.402889595811047,24.31983374016557,30.34275512454215,44.05630488341063,52.687750576286,51.03569594733577,41.88020716191442,33.84689627643245,33.19222565774843,36.37097693558406,36.017850568509594,29.941533094049195,22.534973975119602,16.68966017254985,11.489268120949733,6.876350292758791,4.4025065895674595,4.389211825355738,2.2934083427956176,-4.7542443994433,-12.846885779082363,-17.323137684155018,-17.754736057676332,-18.199323441320885,-22.686632431256363,-29.05795466717394,-34.94571060108754,-41.34719665567498,-46.74620536752542,-48.9242703172066,-49.37916834677602,-51.79775943166762,-59.78184717251423,-70.34532232607143,-67.10328157947633,-36.34372150268177,7.023556916685479,31.076162896371006,28.97220534798308,23.12998171597523,31.500572153462695,47.89252390506111,56.67913762149588,53.12255973717373,43.02380602296022,34.204509593749975,31.870927743315494,34.6831827581869,36.94468938856067,36.17511673332019,34.0759457560274,31.6335934747012,26.946910743397492,20.14287821191712,15.109264125445367,13.203474996103237,11.201939010144006,7.817683373820517,3.9089229655509463,-2.1988426817486086,-10.07566497418563,-15.334465991934135,-17.243179605375033,-19.42965640717944,-24.44693619691141,-31.542507389998995,-37.65205050787761,-40.23614045271692,-40.95172469384628,-43.925871277496256,-47.974072469550656,-49.616499955563604,-51.9970755399505,-61.29581603894721,-72.07918868707458,-62.333145429339254,-22.419947627267835,21.409727708749887,39.84682132172909,35.82997276185367,29.89060100918487,34.90018526533568,47.92720204862464,56.31646866573625,51.72764384427237,39.6957251490623,31.932594560032086,31.60011430408832,32.982544891571095,31.58707568976808,27.954098362074458,23.18712742146158,18.136512644769805,54.0,127.0,81.0
-9.577951529148487,-13.027564698880653,-17.798190507125742,-26.469732097133384,-33.60372682180198,-36.35010915575377,-37.75998118859576,-40.731889353703174,-44.49988021277797,-47.138029833821875,-49.56729864620517,-55.570762655427984,-65.53725996757585,-73.82211449922828,-68.70451536408518,-39.93417951565202,-0.06869736400198173,22.82855618954012,21.040759395108218,13.405265291433972,18.954130088133603,35.56453664947673,48.26455534383694,49.53380990784441,44.34906252864383,40.57649552188639,40.41339281561117,39.98458289180301,36.22414092375242,32.387997211600236,30.817964061352637,28.12930710213424,23.696006607553283,21.73955138782773,22.32943570783856,19.69746876721766,13.64992114950323,9.452918090207637,7.5616918453884905,4.420549310141886,-1.4589008471137026,-8.692971244492472,-14.990800399803323,-18.581599975961236,-20.14857029852214,-21.483135119800306,-23.497125175954526,-27.811977941593923,-35.045093380505676,-42.219781938426955,-46.86677020523866,-49.471486857541166,-54.221338043867874,-63.680721451382055,-69.3478207354296,-52.878562560352094,-12.90844781986199,21.17230981451826,28.466431281203892,20.939770660946266,19.307325813438922,30.07570058793764,43.36624716413327,46.38162382219209,38.23691947146579,28.706896556590564,26.813961113176116,30.963316822865554,31.82754765602031,28.54900294186625,26.30554206077653,23.191204692096846,16.08797136940056,10.211270232098855,10.371975384986724,12.057536485714504,8.669482172817538,1.2241828067455713,-4.875173630809975,-8.971309607048177,-14.366688480667744,-19.480047936795625,-22.16145128055086,-26.153425382013317,-32.16125873874414,-36.719040579365085,-40.70574303133264,-47.09778541521537,-54.850730166989486,-61.35874821091199,-64.15861366995136,-53.74689137227061,-20.873057236260347,18.352046880352713,34.92790788377001,28.65863431782697,24.562350430131076,34.142118394467595,47.48039356694305,53.276947183947286,48.8593886301354,39.011849753722004,32.878074304136184,34.06150379819424,36.88281228306721,34.7318623120031,27.705786835925487,20.700938476937825,15.15974648179263,10.054464719647477,5.850919502845587,4.265932823189072,4.2517292807574405,0.6939733062089412,-7.243313241592827,-14.62545604114361,-17.756574899547683,-17.629166002817858,-19.05419154523139,-24.530363954576003,-30.777830409469843,-36.731845361768585,-43.154210117926176,-47.71697932155752,-49.08260799617674,-49.70047143318081,-53.434472385608274,-63.06518020734248,-71.74479998181594,-61.05609404381848,-23.646981904650218,17.009451856406102,32.479741954221794,26.479014629624036,23.92411347823925,36.152193171206626,51.71705122389418,56.76759987261871,50.52745414276478,40.02121476399745,32.78519823228643,32.384362874028085,35.61866319762973,36.997127701913215,35.6065146050896,33.450694919673296,30.60487682498543,25.053504693056382,18.342112686137796,14.331429045306434,12.78472093385838,10.31088277729737,6.765777864009944,2.4635580024098034,-4.468725444994624,-12.021309907685055,-16.104561725973095,-17.675096379030858,-20.561056164642725,-26.39158127434398,-33.56552598129505,-38.78998103004929,-40.433139711254306,-41.48573414528122,-45.197583779963,-48.71260939333024,-49.91204162693762,-53.84822467282371,-65.03001137949869,-72.4087783419461,-53.35529201251189,-8.43874430470028,29.86945443716464,40.13784381459406,33.466158579071156,30.046113015000827,38.32511820474833,51.40407212580603,56.357955618930426,48.45927573581491,36.641104023823196,31.231036293921896,32.13440370200194,32.90035302180243,30.7001563485416,26.664154407375385,21.704156404420193,16.80206272011987,13.000590529768216,10.298386002008979,7.659319878419571,3.3762120292663518,-2.373960513897007,-7.035767211363008,-9.534303303778957,-12.617252089188925,-16.990855858148795,-20.08892787121002,-23.546900310263975,-30.773989230770027,-39.09116945067303,-43.0745205638698,-43.83727069534517,-49.158106789463915,-62.03677860708497,-73.5304560533702,-65.50387393801735,-28.85819360226022,15.19256690479585,36.18994562786552,32.09523258161306,24.639853941184253,28.75398305494039,39.506573410276815,44.73145833261748,41.112889138800426,33.47903109524207,27.051127769871535,26.373812651178866,31.326096842614778,34.75437093224282,31.846883631427385,25.65924234128968,19.604633417706378,13.89380099168738,9.75600168635207,8.400205944418365,7.509507100143424,3.846124227439434,-2.5633245339499724,-8.808198409442312,-14.379259567793913,-21.274864073245073,-28.07869670493023,-31.774915831398346,-33.56379527921071,-35.50414948746569,-39.07974529458504,-44.865177202894046,-51.1761947411445,-58.747528130387295,-69.89839995793592,-73.91732825098244,-51.01941058916698,-5.059808096370183,31.354450705159145,36.887338854497415,25.25808566487026,21.82732435733035,33.29232877615413,54.0,127.0,81.0
45.61750690153009,44.857831881513704,35.10872255192442,27.18783773827442,27.794208160433083,31.84900043981791,31.040797738227067,27.704218825570536,25.75268873804395,21.463181204637337,13.9147899521638,9.660422039289385,11.07590014987601,11.724867820733445,6.694521907618121,-0.8537222589235248,-6.1070108053079935,-10.335743787905384,-16.07197001966853,-20.4128104830201,-23.000841046241042,-27.84016054769175,-33.70939778613938,-37.75998166623251,-42.263725237492935,-49.33417388279147,-56.931061395627374,-62.77133316713811,-63.14690783659924,-46.464241246822084,-8.761536356639745,26.26203393200139,34.49644197057548,26.22361618423983,26.110893390269975,38.24783085263174,50.20863215315392,52.96988499800472,46.19053013831764,36.496013147934896,32.59277914879627,35.07103236466259,36.92920869294538,32.99830737183679,25.5075309674499,19.00598569492885,13.651935595028178,8.683319627465302,5.062469094559013,4.300804785623511,3.7811219931914817,-1.317000829432385,-9.672508182425865,-16.01645893890622,-17.8885523629016,-17.646220724503603,-20.30410500765643,-26.40910859568978,-32.456605419793625,-38.590559319229946,-44.795685079679615,-48.39022623376983,-49.17387168412037,-50.279052087342215,-55.62804905039617,-66.37183786531209,-71.46043502494963,-52.52722165787602,-10.631519856027737,24.628196782802153,31.934798579248323,24.388274074738554,26.12951463080165,41.09100197546107,54.553845581361976,55.86867482328962,47.57461747563034,37.317066999271645,31.98665290791803,33.22157227031163,36.35655355667861,36.79957876369936,34.98937416976798,32.79074633360436,29.31692709231196,23.044516340540998,16.79902904161543,13.789594913512003,12.253069957194922,9.327543529417946,5.679778131239065,0.7611652743519284,-6.810789287247156,-13.631690151170595,-16.64530262302517,-18.235629399240516,-21.960287921895993,-28.460974757913167,-35.416077241927574,-39.59243755818003,-40.57244365725864,-42.30019980943065,-46.445860136934066,-49.197299523219954,-50.43092880539277,-56.41780781545317,-68.56229330050911,-70.35831378406847,-41.94785924396893,4.888736468294963,35.72926088867522,38.97071448056712,31.462138696425612,31.288365444149,42.19352824114655,54.14381280798107,55.21781845740293,44.85705855853992,34.20541272119652,31.10371499080718,32.62083482937572,32.54179262490355,29.66815048823917,25.295084225864784,20.223994390074402,15.5691105908401,12.130216287752571,9.608828075811958,6.639661213582303,1.781353417865918,-3.957885471056576,-7.906606595623169,-10.22835088687581,-13.860591046455273,-18.072047872422417,-20.837694281038523,-25.233317463224722,-33.33134882238149,-40.82944150733166,-43.32833144403951,-44.57862901108095,-52.261354759382904,-66.19802222933681,-74.0494466177787,-57.5261181654531,-15.313341228531502,24.425305712344386,36.80566626221973,29.273558349158613,24.509915356048662,31.765299043388772,41.964732065999264,44.450393479204514,39.06740927923933,31.28087136136913,26.119009043054337,27.45208869086747,32.840105820559444,34.5413601099267,30.174749155140574,23.852312363822534,17.91827031415999,12.430088102952856,9.116237848335324,8.262600483695515,6.82226956694253,2.1619440979763653,-4.493507918751624,-10.397625283019705,-16.19519890551442,-23.429305110278083,-29.493387716509616,-32.36935521315526,-34.048750273586485,-36.299109403875164,-40.57459423091534,-46.70365459567411,-53.063026685160295,-61.70597542921281,-72.72914902808114,-70.62308307671958,-38.96087067273409,7.995230422835603,36.13078860142626,34.04731322630465,22.644782155473248,23.918073405589265,37.92481233129293,51.342876285350904,53.607616686851564,45.094719585801045,35.712740932530934,33.17797949712764,34.76735951004734,34.74873721129427,32.266436489354255,27.352483545329683,21.5591406982475,18.66652953367984,17.42318807733099,14.077551755162466,8.578242448662454,2.6439862166540102,-2.333968130454083,-5.3736868973232115,-7.861228041468188,-13.90533740551054,-23.642076492646357,-31.191233202700502,-32.71807893206493,-32.78088065350901,-37.35731701251148,-44.87816045491887,-49.838176591786436,-53.580073756144685,-64.43380812964469,-79.96504081650137,-79.61556875479933,-48.98026508786949,-2.945608729077333,28.984465313052517,35.63274361880112,31.267748864683053,32.60874415648048,41.2496058527019,49.615045747252324,50.92115976827067,44.56441730780715,36.82540659922295,34.061059436751904,35.99906566048508,36.536674200458435,31.965788116237796,24.95335452874627,19.22338758011199,14.921286447000503,11.279102880791298,9.078304858795802,9.066458670029347,9.106730048782607,4.942725321984899,-3.122649589475417,-9.855603484940545,-14.897200083972486,-22.37810782639849,-30.818911170113882,-35.097942854800095,-35.63346305796552,-37.50246305788957,-42.44147280806045,54.0,127.0,81.0
-49.29095080095316,-51.21653135529173,-58.365072780396886,-69.27835961202753,-69.03509048933917,-41.84059449452819,1.7629954890683146,29.63720367122889,30.075162971350622,23.238509247371844,29.577604933385484,45.86344900710534,56.271387968646074,54.14468050165352,44.4601391596821,35.06151111858239,31.78369431105215,34.21722589265635,36.825946068299274,36.40567036088453,34.36305974729363,32.03495393714227,27.753297733611706,21.03595948139905,15.567946494089826,13.379866377104145,11.56903109274145,8.298389547988496,4.503018103739376,-1.2097568052662881,-9.08666803493943,-14.877767700244023,-17.06209272822995,-18.9970525252339,-23.610949329579206,-30.57607329433913,-37.01588287856388,-40.09027466705577,-40.79048649406627,-43.369499052153905,-47.54432471825763,-49.501650113423494,-51.37164410575349,-59.643097524827915,-71.28381854455239,-65.53379266852737,-28.81034272246037,16.680704676888464,39.071677297152625,36.91882156151484,30.17296486643254,33.5547047231317,46.16256644160932,55.892571613279,53.02771417882414,41.263385132427835,32.4829809253329,31.38532633209478,32.926172657957906,31.93697608953508,28.518464526244458,23.862886440987143,18.780623702507558,14.4468108242679,11.342613760398066,8.885632110317179,5.442667316731449,0.09742779503681173,-5.369653684278376,-8.613673959619014,-11.067620820243663,-15.166589817361544,-18.98194469471216,-21.732084403485334,-27.28127218285957,-35.84329383168795,-42.08295147209399,-43.444789662538746,-45.917572007671545,-55.969581208524616,-69.90899475509016,-72.42311417757388,-47.15669667177956,-2.0025438846796213,31.11318621387809,35.65644262114284,26.792550098024982,25.523976769953528,35.024688003865506,43.693145483345575,43.47686841997861,36.83386727194304,29.2991842788352,25.77605837811824,28.915660206355884,34.000230798506394,33.76919046589733,28.36152146037013,22.098575880405182,16.245987735880888,11.161864144354753,8.708600201691887,8.072558555911023,5.835543913844179,0.29755323345665335,-6.330325280360173,-11.967733407334094,-18.171386660407574,-25.480752584745694,-30.6035974402117,-32.87591951918416,-34.57879559880943,-37.27425527853523,-42.24136469820591,-48.52799932857336,-55.13654093787711,-64.99555002498158,-74.49573742836668,-64.61395227292816,-25.463888655380426,19.29576731560015,38.134617404957744,30.43376030640089,21.26648484954001,27.158666281929133,42.48224075391832,53.36684342689656,51.92564493296897,41.967337554256815,34.20530222492805,33.52825289612896,35.0506597756948,34.257227917310075,31.108380893774292,25.585063798575113,20.34419740941808,18.340537091743315,16.75168928539835,12.633962770670612,6.839715194425234,1.0518532232410711,-3.423586415215595,-5.9824263779659255,-9.092687794876445,-16.531708411781896,-26.344072045071012,-32.209733219783416,-32.528447031407495,-33.55169656883087,-39.480794885799185,-46.73025410331315,-50.70135396958228,-55.7073165521054,-69.10669183407661,-82.55483715847124,-73.8100429763619,-35.9293328574159,8.789332722853668,33.221560913429904,34.56351009461076,30.692166499834407,34.630352734075,44.062065300870614,50.90105107951996,49.68356792775549,42.11968855774023,35.365474504969384,34.358116689884,36.57994653349789,35.7264677711881,29.975691437228843,23.094793353054737,17.887699038369227,13.796616934494603,10.433821353374668,8.870997285344584,9.263174758903212,8.47122045163045,2.801199301426589,-5.386779192476085,-11.294956467734766,-16.711181671700565,-24.972401003030637,-32.610223021989796,-35.44222539232141,-35.82001729175277,-38.749478018998076,-43.80488990355456,-47.17911789110573,-53.98306403028528,-65.2219028462509,-61.04717220515762,-28.81766658876563,10.715881503458936,29.84438396759304,27.3006380315786,20.862401849316413,24.401288868907645,36.045679996391925,43.665230819720705,38.80051438057461,27.152049333639763,22.667421692129647,27.406145702543572,31.355130544120115,29.787956394494664,25.6718707948385,21.242110941740844,15.748386940425588,9.496467139142364,4.577150152969025,0.8629542828748901,-2.463562767630429,-5.946234586157149,-9.912863945712552,-14.147353084217503,-17.879153280662823,-21.39219999472173,-26.208717389728555,-33.095929894295985,-40.290830592737215,-45.58737505514405,-49.92157529499316,-58.06476839659122,-68.84794181750705,-64.04731381380113,-29.882518972035896,13.592250452586375,35.205158492667614,31.586146853072385,24.81829257489301,31.42914559454763,46.30047152287571,54.29241741295713,48.81072919580459,37.21491593684548,32.616664800979514,37.495693690404046,42.30160014017419,40.29483985646331,34.194447780004474,27.171807596310526,18.85254402156458,9.869780266340872,3.123872407532769,-0.5501066183580471,-2.6525765586987946,-4.76265125811895,-7.613021094966722,-10.354903511307906,54.0,127.0,81.0
17.405685833213525,13.433373249317862,10.618663886064109,8.075711429155344,4.066270284007842,-1.6050904484743216,-6.563040734525757,-9.242725133792801,-12.088169903193679,-16.439631391577034,-19.755040422421615,-22.89539618536611,-29.624555070796433,-38.143859961112724,-42.857367526359226,-43.649039591210474,-47.965018764965905,-60.08150641774225,-72.69708795524795,-68.2983854776664,-34.92261305387367,10.175463253248868,35.16540521643209,33.360598210599484,25.084455245930993,27.548441240857773,38.17740484866015,44.59634831116757,41.95565689333563,34.53210443494542,27.65878514759358,26.049130962251468,30.56529643688649,34.65096255877191,32.53558533064902,26.50808003280834,20.386033513098774,14.616228151195244,10.138606383981012,8.473157037280755,7.736465073250591,4.540436816519853,-1.6569881121246857,-8.050985421602505,-13.592615695425929,-20.27854714860331,-27.322500836835125,-31.452593001329085,-33.347470220902046,-35.186780963049856,-38.45967513079142,-44.02283149321986,-50.33635919874747,-57.519253046169226,-68.39462482097606,-74.59228540944834,-55.88523204716304,-11.43555921820619,28.184239110675158,37.730319441178224,26.776895058563642,21.316629248996726,31.23307630983964,46.62435537620121,54.27842176150814,49.47892101161763,39.069108013607185,33.36938538282955,34.051339085723455,35.09885029568316,33.58414112774377,29.726585700204204,23.831820207437154,19.455179497684,18.04446002261463,15.836614834466374,11.049425540327187,5.105120512362586,-0.43014436604335926,-4.330216043015204,-6.619984916099072,-10.733280866001017,-19.391176195432447,-28.682681172379382,-32.69729870752923,-32.418774595594996,-34.79153891418154,-41.72807292609515,-48.23390252615177,-51.61450104130487,-58.65725560720753,-73.90545479573642,-83.17737940067342,-65.34354090613436,-22.272925776172052,18.639856737678894,35.376859048488896,33.10823009622524,30.888803843130166,37.13996057586187,46.64031461284522,51.46262238354828,47.87532258200425,39.75861132361935,34.44248973652544,34.95352638834988,36.86821292574134,34.46258752999269,27.902944893507893,21.404596656658146,16.64046378027352,12.719364610549155,9.745044832929896,8.85207188533437,9.371503389353638,7.377399435748735,0.4255701876687596,-7.399699337124636,-12.679139537528968,-18.825203453728033,-27.51899844168006,-33.94562641048345,-35.56173463185035,-36.26103766156252,-40.216497572283735,-44.93725188635098,-48.39724865703832,-57.32369463935053,-66.6899788994821,-54.30729028387842,-16.631877098624344,18.9824837888161,30.697264554362764,24.98719932318715,20.627518973895324,27.39171590774769,39.22224440776182,43.602518773301654,35.501161724147345,24.667977498347334,23.45503219687637,29.050389447781505,31.405900557526916,28.693870835365836,24.420200872421063,19.816639063216837,13.91702098854804,7.894542733868505,3.427539237723211,-0.11475928877182906,-3.430125531923341,-7.040528503322122,-11.138000808153532,-15.301859293731555,-18.858998024600936,-22.578780451514703,-28.016445042715507,-35.26673467686731,-42.05983029058487,-46.773921768445874,-51.67106097435165,-61.402301089941055,-70.12787040109545,-56.98756580339329,-16.67860476415658,22.92994626870656,36.01904075479759,28.85733698010945,25.183266540375968,35.54770210666129,49.873167185443485,54.016279162428404,45.47528951053469,34.745021870214416,33.35204992821508,39.37788559260781,42.436370093544525,38.72785707983928,32.24237207669952,24.930467418166458,16.215483890115436,7.57654574373031,1.801072353164264,-1.247137363539026,-3.1969246353797773,-5.529690887917253,-8.450854881264043,-11.16184511873954,-15.790387691224796,-25.058970849774585,-35.980544644076645,-42.55736920143452,-43.99144729872236,-45.29320812855374,-48.79648036164068,-52.654197373173254,-58.21855735452636,-68.9058883169354,-79.5564015006841,-71.58914241170169,-34.02765888755918,11.014343229432617,31.325056008759777,27.298136498250024,22.83457149143097,31.751969602267117,48.65080526364865,58.90034551153954,54.53899428819232,43.28868255181564,37.49015156156595,38.70079102554483,40.27395995297805,37.799973717117275,32.880188450046525,29.68121844457259,28.515143372965507,26.093722998801354,21.361761336583807,16.66432016429093,12.858144125500713,8.50044487103264,3.4455036121341798,-0.7700444960532417,-4.733362220895238,-10.47380656423234,-17.908681881741316,-25.399243286754334,-31.805434860318364,-37.29339476498018,-41.45862412654479,-45.12112825388273,-50.642505203034396,-58.44930733320407,-66.84619355757621,-74.72299884653312,-73.75326882696596,-48.59821680012073,-4.211398547997985,28.812238521745293,32.01109764963927,22.369707111331056,23.565981545663227,36.70495808812958,47.93697933229047,46.981884980044576,37.46750739280173,30.820845126995668,31.633056094791634,35.09251193336504,54.0,127.0,81.0
35.77641653196629,50.060892662846925,54.06521987142212,46.53600664641414,36.63358820999322,33.12794049691164,34.56956785812254,34.90957319776074,32.727777164286266,28.138774415995844,22.221462083247072,18.862379822405583,17.658282840911045,14.682340256108112,9.371304490315135,3.406625276787197,-1.7710244511198963,-5.073094001129456,-7.410385294786878,-12.809520818817047,-22.319214506107116,-30.528485333869263,-32.77323222917451,-32.577830706798416,-36.464300293273844,-43.92648810000976,-49.394478518288615,-52.83838900073382,-62.4434920149742,-78.27214763954599,-81.3596373071351,-54.57048042182017,-8.842296119140663,26.260404339356306,35.84643387332916,31.751398357096196,31.892267054677344,39.929142513777876,48.802410679422984,51.263380430117955,45.66530156148,37.661258296236205,34.065135799562135,35.67469923805893,36.7485107710707,32.820438041462005,25.860432780529568,19.878439698313386,15.453402314289656,11.711473470437486,9.242328425505132,8.978564636207299,9.263677308587944,5.811364081741333,-2.018385445973558,-9.136668459825474,-14.15214790732098,-21.211133356650166,-29.85359755026035,-34.828414556800446,-35.60095236322371,-37.03119852555374,-41.75398133023166,-45.86561938276111,-50.162421671052684,-60.86564538035392,-66.19476489024997,-45.1994297852667,-4.675709396833411,25.03103771533071,30.018909880755338,22.856253715644012,21.43890066088042,30.84766501492628,41.726510205946674,42.38312014646883,31.945722277165036,23.11804280790782,24.86444940760953,30.34630204393362,30.998435796774846,27.492628471551168,23.16040520645287,18.26061622997202,12.070694858766121,6.44591659036867,2.350098804708362,-1.0727638111820732,-4.424490551424271,-8.178196847762027,-12.374265769694313,-16.391501250531096,-19.84760521234092,-23.91781028922829,-29.99590033005499,-37.39445464302624,-43.628746915419406,-47.94644663884158,-53.89277122882601,-64.79786340638984,-69.47280048527067,-47.38091240100881,-3.5587212950017593,29.80211848004467,35.01452984847604,26.531879886659695,26.8746019036051,40.020110584886964,52.50661462781652,52.58782194628577,41.94348404353487,33.164551340868115,34.77047621773738,40.95424793843578,41.94249540151923,36.957363433475635,30.240511302425553,22.553509377615605,13.569555046311438,5.552662745613726,0.7117594044830832,-1.8529971188438943,-3.781921482446423,-6.358228736498841,-9.245098074253578,-12.118735059993346,-17.997637439568596,-28.322741574475575,-38.51820348316114,-43.33040948715772,-44.151445079238734,-46.14657980429445,-49.919110526365486,-53.90431556538137,-60.73698315223146,-72.61389741313906,-80.10828699346666,-63.47441416832607,-20.08430902649458,20.196641713798133,31.711381464038947,25.059246956945486,23.95662652111278,36.41573601648578,52.912899213957616,59.08201472037427,51.36262493435489,40.72116202269628,37.36434367313861,39.415777623923795,40.01789987109069,36.43016250844287,31.657491708244052,29.25662427738225,28.0834859590313,24.883614391228186,19.90309593364384,15.51533017510115,11.720475913555807,7.042569212973452,2.101927490517631,-1.8354168554842687,-6.167629759474713,-12.501634630649574,-20.153581747944262,-27.357673894245078,-33.49325328442672,-38.64304836284827,-42.47140661067798,-46.437056072508234,-52.73591620838545,-60.86335118838142,-69.28948609349993,-76.07004346902534,-69.38726160301246,-36.66401958611706,7.942966914106924,32.643351312023356,29.22841624311763,21.076162262104106,26.63611925208698,40.80795072972471,49.03268576279302,44.624963798635974,34.82001884992063,30.389839956217138,32.67049865713048,35.64288064135438,34.22564383140115,28.122186104778162,20.115543993414196,13.757211250982888,11.170425743872153,11.648608836951409,10.782073048572746,6.0740471477283595,1.1863060488079076,-3.03300918913375,-10.81763407678575,-20.747324810838172,-28.318257266523787,-32.714563850593,-34.5856683426628,-36.08768004464915,-40.82653059888952,-49.16331549827418,-59.163276153483245,-68.46228750208509,-66.13246666709333,-38.0699847825784,4.329757169816005,29.799107656116053,29.694359516244326,25.252910511978516,32.330714459878735,43.807725199489894,48.12141930414329,44.19983940065483,37.5328863547846,34.02180804711823,35.464477679496085,37.26320658143101,33.82594387386401,26.231517088323514,20.04216815188665,16.936605612793304,13.076597575765208,5.773982888633394,-1.4945218987523052,-4.801852557363112,-6.5836746595514555,-10.334138275511549,-15.160888439324765,-19.677791952780293,-24.8206168904303,-30.804895532235676,-38.066611630874554,-46.92890738371251,-54.58853768066994,-59.298747609089894,-64.6433808291963,-73.92628886980151,-76.22795951999572,-51.256534584796796,-4.312437387853766,31.242713803488247,38.71786896980348,32.324592736610754,30.992584288864858,38.650646887805024,54.0,127.0,81.0
-43.20232524775335,-46.73493940127219,-52.619289545500294,-64.05391008958269,-63.27618836713267,-34.26671722933795,6.229713496121863,28.81795060401616,28.300242391977555,21.301624926490355,23.260376957234815,34.43920418188848,43.30276023284348,40.12649566278098,28.55217369344951,22.585090521140813,26.590456454282457,31.158493257768516,30.231660070640896,26.24892502283912,21.86373256366974,16.56803422744419,10.283292723219509,5.139140288550743,1.3234113746560305,-2.023621861713737,-5.45637179678751,-9.357069167287008,-13.596339094432798,-17.420240424715377,-20.885396555250395,-25.440430311541718,-32.1005664953267,-39.412549965491685,-45.0062245398227,-49.24093722184309,-56.63737743951744,-67.7771305589784,-66.38012937416502,-35.73458410977717,8.561512328508918,34.07761636624686,32.81478920169746,25.091127447460245,29.764369383011932,44.41451189033578,54.00866743536367,50.17982694267994,38.596728514063315,32.56707922192844,36.59871677357073,42.018828314776954,40.913160269240166,35.080011580900994,28.16348451914507,20.04552334768192,11.001763521479157,3.8234751158202784,-0.18762211830254802,-2.405257598698954,-4.434916126276816,-7.217164829595708,-10.004584910206471,-13.338572108551286,-20.62427081824841,-31.584085875220445,-40.55198430051632,-43.73894259514814,-44.45275513348589,-47.16623028430943,-51.01944872349346,-55.38831577796507,-63.76010746818869,-76.05309065337636,-78.53103300095358,-52.85423497052324,-6.431180188507826,26.676351190610546,30.501854699648973,23.41316193112177,26.332657785957185,41.450676771351766,56.23455857214909,57.988609969104644,47.95184207591075,38.86153177197005,37.71997875581555,39.977117065980174,39.36821615060312,34.95749597004641,30.67210043617349,28.951099992314273,27.45181263648027,23.50820041880076,18.51489470691474,14.429527272829079,10.488278958116938,5.556998611210467,0.8660074747774131,-2.932808013080688,-7.78757015531026,-14.647909487605862,-22.350363875900943,-29.2207354908937,-35.107641175396054,-39.865781952035086,-43.48737206158819,-47.97189990709071,-54.98976179537451,-63.287136550355825,-71.67828897271544,-76.32735721007529,-62.633068397211865,-23.587980567979198,18.248736314397036,33.87243211347919,26.10922949402852,21.111903299290713,30.482853710589172,44.35583069971054,48.9674462648457,41.79042700840065,32.701624217526366,30.56864667588949,33.75646974743316,35.788291463526434,32.855813226195075,25.84047833649398,17.976650628239188,12.583483451237504,11.131690351327572,11.765905971010838,9.736749966613036,4.483209562645423,0.08227164649702097,-4.8152080591709066,-13.702587260713281,-23.287265383903957,-29.883037238428148,-33.47693746569997,-34.886446096711154,-37.01658932904909,-42.9578149234882,-51.93838401943525,-62.15964971102399,-69.76723906728435,-60.8585565917596,-25.929202916850606,14.54410645769912,31.790831368000468,27.721759300116904,26.071193647246847,35.84184334613828,46.04582806397151,47.64946215347037,42.26252743539967,35.99943056194865,34.02156502716433,36.2622611083194,36.91615373390981,31.82364465942463,24.09477668635945,18.929828902318658,16.11390982716416,11.279667355492425,3.4104942114258896,-2.8700358464274496,-5.2541894766139805,-7.426385939245054,-11.727984547643576,-16.478679905100737,-21.059838215817617,-26.4741873802163,-32.7175882314182,-40.52910111477064,-49.42822081866239,-56.19304029627676,-60.51811389375378,-67.02401146168506,-76.27430746449859,-72.36110712093105,-38.68331116882179,8.55364644748998,36.0799725776032,37.28562287458003,30.91386629635821,32.50874821535233,41.53976578161027,49.35173654091387,49.39405072315955,41.81688558973724,34.088207299494165,33.30652190728798,37.24046769620613,38.5967985009565,34.28629842104644,28.654467444426075,24.780101171900085,20.921920835963185,15.51432507679457,9.1917224374805,4.19494862538623,0.8750544657704108,-2.9020689239950133,-7.045562542498568,-9.288107554772028,-12.182108176936259,-20.05200555676018,-29.28699902381299,-34.93360353711348,-39.91256805736245,-47.30157180321816,-54.43312936618788,-59.27728782217261,-62.99299053367457,-70.03384023941793,-81.10118620066758,-78.11266345947162,-42.98570149450862,6.165213706219653,35.064456178064525,37.02705540575348,30.3758649559496,32.26519178061584,44.48830475524611,55.9703031572622,57.2530832353817,50.41924725538937,43.6014841645976,42.209524871305284,44.0201600820708,42.56809775635968,37.24090809355778,31.90392244242727,27.046211707322072,22.568592108832295,20.612032511505657,18.390530082859755,12.094043941728161,5.184410384676495,1.528703480668511,-1.4871785469259287,-7.724148248723402,-14.989254014561023,-20.973096573745156,-28.35206141595686,-37.9712640513089,-45.49075778352203,-48.12780970082686,-49.29185180913886,54.0,127.0,81.0
-10.777834997013214,-14.920382041042764,-23.60029893683091,-34.666135724800924,-42.04526259276121,-43.93124869071225,-44.97294806694593,-48.27519921292958,-52.124680254771526,-57.22444226063197,-67.215275463852,-78.73188736132288,-74.41029698303706,-40.27296732272019,5.958300874529182,30.435963270575293,28.387608260259206,22.745038040200633,29.828048397432255,46.460676483882445,58.36299974613828,55.82002247544475,44.670335797960426,37.757232328239986,38.36258264640339,40.26091111039013,38.362421366437474,33.50850582971096,29.939936626394015,28.66708580311334,26.578638587961976,22.044624863890096,17.224575895082918,13.360188743673195,9.149809881849423,4.096761006642682,-0.2703342969497886,-4.131262421039419,-9.587856528121884,-16.87128576204949,-24.460954338135963,-31.005350240379016,-36.62925044159345,-40.97589393111844,-44.57559491592864,-49.746123717387235,-57.34461671304776,-65.72008833412343,-73.85911639103298,-75.01360852278997,-53.519946142517256,-10.219340975424686,26.108563744423193,32.96655246412212,23.357011437125117,22.503329990536695,34.72624996884973,47.0466481666853,47.82369431841399,38.8053522658672,31.250706397748488,31.219542224783993,34.725677995017946,35.48300411687113,31.13285688557014,23.48671876617754,16.056837536270983,11.759155973546296,11.295913312597492,11.627221814077046,8.376754305645045,3.0166169285185163,-1.040476098277411,-6.99838796683606,-16.640830088676477,-25.544395611640738,-31.202088314454986,-34.03702449908468,-35.24331481125865,-38.29856641982598,-45.34519482802995,-54.81657964330497,-65.02681665715423,-69.68945708833651,-53.15899307829909,-13.254646986123193,22.567829321948093,31.83366321488227,26.084681396455938,27.99865997851339,39.35717980606809,47.48324586332675,46.569792339961715,40.25851442381963,34.858903792244185,34.41970025904825,36.91533197377015,36.0313009395307,29.585074677827155,22.216550106835598,18.046861699221,15.096541581112106,9.180496247473181,1.1990546176670536,-3.867091366542125,-5.705068746165456,-8.481463378599765,-13.146019355221624,-17.76694468419401,-22.527122275658588,-28.185025163515437,-34.76824297212093,-43.111303406165455,-51.72471293899975,-57.553611647023615,-61.935929425240104,-69.76753900037717,-77.55931536499202,-65.7395449276429,-24.832888105880908,19.541968540455873,38.53682775196829,35.260303951893775,30.292272389623744,34.69594528611238,44.30800404544483,50.30391952557561,47.77420762727456,39.16459570179598,33.05631839556976,34.26868503125453,38.1859178790935,37.84355733211781,32.53946915204847,27.385314579809073,23.765435209291557,19.53960010211498,13.689722602594713,7.528620296869517,3.141100590413382,-0.08781817737734553,-4.179634025552199,-7.908844082469429,-9.794024177546204,-13.926661821473978,-22.91046404026623,-31.300132647780263,-36.192218855088626,-41.84295863706676,-49.54972907873784,-56.06511312427884,-60.339752188746964,-64.43200515537438,-73.20881364109384,-82.8858006249037,-71.26694835131018,-28.537886065404116,17.600946112179685,37.823287563553066,35.02216251167264,29.63299163790466,35.077303093435205,48.476543424310115,57.51616947833064,55.77747933379985,48.09892521076139,42.57786139550753,42.697822055302055,44.1359126044566,41.24870466803217,35.593011522506266,30.51177453035205,25.61895424291931,21.719315229237143,20.273546273804893,16.95897988342253,9.906274056758075,3.7738338996024794,0.8433521875923208,-2.9435127323691335,-9.909481717325477,-16.802003810917846,-22.808379458707446,-31.03192185159663,-40.58241898882832,-46.71860446318697,-48.352043047429866,-50.097093881834226,-54.75703492174545,-60.025872334909884,-65.23188294076937,-75.38074906265666,-89.55455042720533,-86.79822913790431,-48.708025474597434,5.461769344701422,39.31869654427413,43.07642280962222,36.194830399318676,37.59217896004944,48.49517994159788,57.5754857593213,55.74421534435385,47.69525815492905,43.06021067270106,43.35919505376,44.465245846070324,43.59710951989916,39.542907119249165,32.18343779289762,24.984659478091142,20.926325808054195,18.963179867314622,17.357885643343987,15.497571260774915,13.817046949862611,10.830259719271476,4.0909546069437415,-4.029301139349164,-8.919871142927828,-10.777709814079522,-14.32978860334758,-19.976064569720617,-24.949260699864865,-30.920631134883855,-40.285945412747076,-50.532941343848364,-57.387494749192314,-61.33161414884912,-66.22926580042652,-73.66885854711315,-83.19736555827126,-89.87760838560543,-75.4802543219482,-27.925890031481792,26.606608613841065,50.694061607321835,45.01215844350253,37.02442442945734,39.803988236645424,47.015166087727025,51.431528921127544,51.29589527436247,48.171541605683025,44.68864847557208,43.82281476093774,44.71616967113421,42.57170259004054,37.1874683957432,32.17785885858254,54.0,127.0,81.0
35.435014423156495,34.72270785642251,29.123545169525666,21.156756609728017,14.411405413217977,11.28149482028368,11.54429228306198,11.137940604192222,6.819236231935635,1.7264327026381683,-2.3370367169191395,-9.546529553051384,-19.49311632884235,-27.50810167402217,-32.289337709539126,-34.43674111129335,-35.76446314622923,-39.94809969475532,-47.92426704082759,-57.77895025785613,-67.52659536408261,-67.75814807568949,-43.25023428204888,-0.9632593138129344,28.097708255941097,30.543742294957354,25.26814683827529,30.81898208456595,42.53354256495341,48.10054532470921,45.02518769271045,38.344839001644125,34.17602380712779,35.09918362967817,37.252608759729675,34.62759831333069,27.27559903475452,20.65377121578819,17.283760132406506,13.79085566099173,6.872185735831792,-0.7277746662186517,-4.55674549840068,-6.265898450631787,-9.718221482249925,-14.536607443008474,-19.06465752470713,-24.079553988525298,-29.959482535815948,-36.98543618019585,-45.73380282095427,-53.75256049717329,-58.76009973368871,-63.69253301936358,-72.65106748951035,-77.15024669411923,-56.39327045975234,-10.67045061611682,28.14604784461006,39.01747737548557,33.1779454543952,30.566211958174588,37.34161002070186,46.745055795872204,50.49601843542955,45.59579772335297,36.749111374230345,32.711666018169566,35.47084083089108,38.72912606356208,36.624002230244166,30.845395301850537,26.268466824939576,22.689438128587657,18.004794921574103,11.830781235861796,6.0361229417779345,2.1978160661684645,-1.1517828072642362,-5.434313247977715,-8.566424807654329,-10.494360840425802,-16.153357337205687,-25.693374763871592,-32.95609486685129,-37.547022064936584,-43.98389129660479,-51.67204523234759,-57.49671411027701,-61.35531605861439,-66.30835210928267,-76.6302573033974,-82.81282465890831,-61.50642577136149,-13.803635474009802,26.60983877287771,38.54776648117393,32.86005274699016,29.913025821802513,38.62342426444463,52.05196968564614,58.07545552183967,53.78935487862125,45.98998489295177,42.08492882660887,43.31022004477167,43.82463534437707,39.68875133987828,34.030193525692646,29.121845431804932,24.257479908188106,21.136596719864144,19.754647928699615,15.158702553196372,7.815866621744252,2.687303790828378,0.0691057949298003,-4.716441264000963,-12.064202264052875,-18.502640793518985,-24.866264156439247,-33.85506882734231,-42.87951028338092,-47.52211548363069,-48.60270659535926,-51.19001695329182,-56.347510636351714,-61.40026994916438,-67.400386218154,-79.60475849696387,-91.77322974134312,-79.3750984512632,-32.97349595047875,18.50227727943283,42.96741550466218,41.07875613339744,35.3418671330498,40.13721527098592,51.89821809646763,58.236214032448316,53.560744032613755,45.7499142496342,42.7908437133416,43.77843024001605,44.47039712159586,42.8102378390686,37.66712112423069,29.883710917443487,23.473922832780644,20.24039563242416,18.512771617204297,16.83605101538666,14.989496889978309,13.238427132974383,9.276365417402452,1.6579479295299915,-5.902290689089272,-9.578297104115569,-11.466348013888789,-15.900067539708708,-21.506991745353815,-26.407109434777375,-33.28293052791144,-43.38200212510305,-52.95840414656582,-58.66457364803022,-62.50548830197163,-68.1292467788693,-76.24814079314098,-85.95900093341182,-88.9099157888126,-64.78597650508478,-10.893556871194374,37.57723676992018,50.99833066818315,41.85510540689218,36.80062303561538,41.85648973236908,48.74568387730382,51.83204716218772,50.59141353150027,47.06831849994488,44.0786996489122,44.10751229178475,44.56108220411224,41.18435696317659,35.59948890458534,30.94115915788102,26.795625879811993,23.05466427246718,19.74173932428944,14.570972274986776,7.264476045664287,1.4115847883056818,-0.9075798787628734,-3.150925748680954,-9.790348793818042,-19.725840094949618,-28.09139182818254,-32.40679524559112,-35.634979746410316,-41.16824390306146,-47.28019719087943,-52.79384889016408,-59.56308141071421,-66.0981711781626,-69.24981047090543,-74.536523442679,-86.5447612769402,-86.29655565249597,-49.063212814600746,8.72010849177963,44.035375544807046,44.18314560626484,32.63686045868026,32.39932627173974,45.786411907772674,59.7401701428416,60.22052746245608,48.674394373248944,40.635030647994746,43.84340988995638,50.10389530526096,50.20190825267061,45.363507953244046,41.63692461186814,38.50686045677767,32.99016112724957,27.19019772211894,23.21303762172962,18.806874822039376,13.073141915930774,8.196278786578707,3.95721117195356,-0.9359488990027418,-8.227085732903229,-17.74262887295226,-24.846892148595106,-28.413011450543063,-32.74616477796599,-38.862199995933864,-45.400057742649466,-52.41695676332401,-58.64129306769893,-63.10153132422596,-67.07786942838172,-70.6808975971918,-77.29784630557604,-90.90787409558001,-98.53115455443839,54.0,127.0,81.0
40.20910326710666,48.673433087381504,49.91373089820086,43.050161975028274,34.790783454614434,32.996416965525206,36.71116220567127,38.76463811704477,35.07015730999288,29.302270887909046,25.24190306138277,21.50967132039518,16.3277245715848,10.004277194295636,4.733499079985412,1.2963063547699656,-2.3282854579020613,-6.577200260587526,-9.074596918651645,-11.545708920754485,-18.763935005882,-28.231403322331023,-34.3450881734413,-39.107766017889624,-46.24692638616566,-53.609768515168625,-58.75029503001938,-62.434640368912525,-68.7288166764179,-79.85055033262638,-80.25418531524248,-49.265897593228765,0.20263888275166728,32.99276904859586,37.75109536125273,31.013124962559086,31.281014838572784,42.602649706400996,54.93321248407175,57.70344905596078,51.50861611233834,44.24840941041633,42.07763438250298,43.84860068992942,43.06114351557969,38.017417481617144,32.55840477240627,27.706720616913223,23.050073829430367,20.755047631683663,18.912236710691943,13.095182438057838,5.946670639641777,1.85739845702648,-0.9272548154100164,-6.7377179701046686,-14.101941224572325,-20.178602469133693,-27.191159817127534,-36.695302358295564,-44.77057090776873,-47.98968641326663,-49.01759100063309,-52.52711182017378,-57.90210353159039,-62.8066828467334,-70.16336162741494,-83.9933210196216,-91.83839160784927,-68.79427052948951,-16.801756154389448,29.027629563115344,44.25924741030868,38.83719756744517,35.49847952025364,43.32441726643308,54.80121491583277,57.864067790141874,51.12402367656363,44.28220332026847,42.87018436154236,44.14976864236619,44.27858643629489,41.72109627580025,35.540575542990204,27.71885396181928,22.257298296662352,19.67253838767359,18.06083956565168,16.290461730906728,14.515139484580958,12.471242121810574,7.372369550316604,-0.7706546506711794,-7.404184019329914,-10.064531519815564,-12.423641047463795,-17.569957165146928,-22.93485666843727,-28.043510593354462,-35.95662687351184,-46.431187561387205,-55.01619236443966,-59.77396052216468,-63.85750166506337,-70.23822160997474,-79.00010274330509,-88.27770770923526,-85.56835320687446,-51.281700368030286,5.639621244464974,45.275920125584705,49.327451184763184,39.22149618989097,37.51656816044292,44.02662793634344,50.12498751088018,51.8540632121381,49.696392889702494,46.00136242332413,43.76568153463138,44.444458586957225,44.03226786887098,39.602690401645866,34.125418218634636,29.736829063904832,25.634676342762578,22.12209146144615,18.54562300709268,12.558478771482482,5.2505950009394935,0.4224384901283744,-1.3024146932267369,-4.543549263144813,-12.51722140576234,-22.508011076797626,-29.72167323661301,-33.223752269988175,-36.990506027340864,-43.00830512554666,-48.86805238668951,-54.57056959104744,-61.68128261781437,-67.32217294536558,-70.10589560604413,-77.61122803147245,-89.16647657459814,-79.63610471250286,-32.54365508411064,22.711547206331883,47.05650913156807,40.71480383571769,30.900492694756995,35.25334484268876,50.51957538751707,61.59180757018686,57.54972235845138,45.30256657521308,40.55626003073461,45.878962973396995,50.93317294226878,49.00714785291294,44.03292713397428,40.86359790218131,37.1605794623473,31.171781359888424,25.8901378283383,22.119651910414216,17.19308558315894,11.522438395456566,6.971441777958328,2.667592238285318,-2.712058077074245,-10.901891439096342,-20.248380563467176,-26.079113213899234,-29.427065343768334,-34.4115940833106,-40.7175094569776,-47.38862169470496,-54.395794378873354,-60.06236340522897,-64.27351869311624,-68.13146605232923,-71.98505738259449,-80.62548529889108,-94.89517900489467,-95.5718612498647,-59.319396196999655,0.07865516442970477,42.10993953465932,52.23063423380607,47.48728342889174,46.469750657271035,53.00314482701539,59.626840464848335,58.09584197426848,49.44212639527629,43.061083152882986,44.096381710925336,49.33657120499127,51.870500878370535,47.87497907837728,40.70406811390472,34.4883419075115,29.52111424535591,24.800222039451313,19.835181564026122,15.518133562379385,12.479357762289542,10.064300216452903,6.615221557170986,0.01714206582469434,-9.579075160842024,-17.551372115996745,-20.41130359084345,-22.7353861504572,-30.21833580541647,-40.01318630779852,-46.40148678556623,-51.31236581299834,-59.649873155866594,-67.3429485981046,-69.53544435197507,-73.82931516656807,-87.80090369955593,-97.388948844627,-73.64785569961033,-15.594146121480952,36.02971121141871,50.079943799282105,38.55505990772552,30.136019220133733,36.303171080928,47.683445014465946,51.557309188432804,46.63109085460448,41.7108602547702,43.3804368869786,48.8610872423605,50.85916601302935,47.76829150536945,42.500012164039916,36.50828391411789,31.278829790123726,27.984051579340377,23.71228290104855,17.440612510453384,11.989357192860528,8.244056281541582,54.0,127.0,81.0
-49.6892222017461,-54.031615373815924,-59.37556717612682,-64.39171606780346,-73.59002807850811,-88.01240172092575,-89.11461252843048,-55.52491999593709,-1.2409818666161088,36.73014173830895,43.745623641801764,36.882743244391335,36.703876975423114,46.84972495030743,56.92012878370307,56.5818064868421,48.72253577529298,43.33128778116912,43.17617631339805,44.40201181800801,43.8680876804359,40.305702372809414,33.25707659684775,25.78282298942969,21.297474905728322,19.177163550171624,17.58716760151512,15.74331409265661,14.046849754390784,11.42523412597865,5.1755818010467465,-3.0571139236977474,-8.522602644354581,-10.529147717411286,-13.669114862557791,-19.23381816346913,-24.309982117676547,-29.94159565646273,-38.88076839614919,-49.30123126569558,-56.713235258580696,-60.83081789234666,-65.42813578372757,-72.54254515495356,-81.86902898432217,-89.68933478873771,-79.37379251631212,-35.61783115012786,20.546267172566914,49.68527747961329,46.491284632786254,37.47873965809743,38.962023244826696,46.11883850937402,51.11243291723499,51.539328843151836,48.67126963836555,45.0574899046948,43.74722537242034,44.68119336696989,43.11472274327481,37.94635780987668,32.7698498430903,28.538697504025443,24.531140039843983,21.204002170062754,17.117134933689435,10.414863997268306,3.4654861830738257,-0.2618783454045703,-1.8372432197265305,-6.377278816724592,-15.427711976478642,-25.02946969100572,-31.001024105843282,-34.08005059663209,-38.57520911766847,-44.80890280299741,-50.425297232606106,-56.508035110388136,-63.67378864410807,-68.21914448297257,-71.40311372797419,-81.23866566916995,-89.98886488339431,-69.45143379786379,-15.272023871952259,33.7978333668437,47.32565484669324,37.0486429709723,30.496651902118046,39.097772007264346,54.87849053615098,62.04320590073488,54.12027738630972,42.67032473980438,41.41424582979465,47.85925037267859,51.09290509383972,47.552731803625726,42.920516878073,40.03575858478073,35.57899383821892,29.434265027094135,24.749072234079872,20.89790661409265,15.504964353306411,10.094584418163462,5.760688718379741,1.2998844280230057,-4.748406286772259,-13.706593318771429,-22.407742251966337,-27.07825544590468,-30.62392882394744,-36.184601924977756,-42.59199467918634,-49.4254231359644,-56.24781021238119,-61.34901023807341,-65.43611505561913,-69.13833354631765,-73.7011677061924,-84.58333084152427,-97.8134213131044,-89.23300223276996,-42.76781166943239,15.462772611594154,47.909954399340414,51.35736420537892,46.336420852912106,47.784427588068425,55.352418829344245,60.21703736326755,55.971165768736846,46.96160390610448,42.61212323901501,45.46348010724711,50.64152999530506,51.35777192156515,45.87758937691244,38.73858493845841,32.967358166329404,28.174808845915297,23.375105499404626,18.46521993831826,14.521265356553759,11.766848786376547,9.276609475365657,5.097628924016424,-2.5689715623764213,-12.323449039891745,-18.849265292761444,-20.792558754558026,-24.30557067353624,-33.13235572077592,-42.307113622345334,-47.679100656247016,-53.34408537504617,-62.31847000304083,-68.44612128485397,-70.00145294174867,-76.9700868754124,-92.29916417857751,-94.93869482633013,-59.11191373103502,2.089102282534438,44.18155670559758,48.04353266772823,34.809342745106974,30.555179016944052,39.72920786421672,49.90858270046371,50.744579932382635,44.770622245190474,41.456787664042366,44.90619304083079,50.03059755452443,50.36850396454347,46.36717536038261,40.80892800679172,34.81266799791333,30.189998037564138,27.007318503695945,22.001897419764944,15.671084097058163,10.780184785503574,7.280312910728409,3.5398636337748624,-1.963629532043447,-9.956109380351823,-18.833682474084853,-26.04558912213168,-31.599478038598892,-36.32335490067774,-40.55981348675826,-44.335201783276766,-48.82173324714708,-56.407897256676506,-64.53950769328812,-69.17431994007192,-76.28533395491786,-91.01438542343601,-96.51434879653056,-65.80009758732174,-5.900875736594912,40.34146237239104,48.59010635258655,36.26530913702032,31.00416945172683,39.670930320616854,51.63097390104648,56.47805068189274,53.42728015537248,47.53879180243872,43.19273881207958,41.618809770030296,41.365297506082655,41.018773820281474,40.01350559454942,37.85324901835866,33.469099290005,26.337304247400887,20.021233942498515,16.8050164651773,13.3334603866675,7.707613487773244,1.8164717165454238,-2.8900420176413215,-7.7320241222887045,-13.78714642204028,-20.989659035659322,-28.28388678591309,-34.5592252154793,-39.73121753247919,-45.06296132819191,-52.20281752073555,-59.355562691767275,-64.23709872915501,-71.40844195188218,-83.53044298344636,-85.04491238741925,-55.02605606068244,-3.060635399971649,34.311001459010484,39.49350166225093,28.862877471796843,24.883647167385067,33.28563438790086,43.52228983254894,54.0,127.0,81.0
31.50504558144013,27.342552973238867,23.503189111959728,20.23103833368296,15.43105046361014,8.243939014197842,1.9820408552760562,-0.7296668593629494,-2.6514695631666316,-8.629077539676928,-18.385024180458693,-27.211747905472663,-32.00548020717845,-35.09308531248336,-40.32761688254871,-46.52260008514165,-52.023371694024675,-58.581348252652525,-65.41063043971025,-68.92682758702497,-73.36974996408885,-84.96958443237239,-88.19151348787219,-56.09212842027245,1.4917421372551036,41.57898596780776,45.51018927937848,33.829122999676784,31.48904448649629,43.59862273580141,58.4533670349106,61.09258793783502,50.37628107479621,41.027922272897705,42.971428669071116,49.51202894495068,50.611052231437654,46.03623563130774,42.00962512526625,39.042188497936564,33.827926936328495,27.854169628986305,23.695055886380562,19.50577724907894,13.824740603645408,8.776538424247917,4.534153538845506,-0.19115270509079613,-7.06730887571385,-16.500840554759574,-24.167302465051268,-27.986140101967973,-32.03119210598943,-38.01157182507895,-44.502350926098835,-51.47880035775384,-57.92860016374243,-62.55705583075352,-66.57124092483468,-70.16630959377892,-76.00411077447623,-88.90920398317789,-98.87766832797921,-79.38011425245281,-25.144724498741997,28.402201383298202,51.128083874929224,49.83582695395874,45.83811570444036,49.66421821554948,57.46215721092411,59.9621968936938,53.40806507267976,44.930413563684006,42.81379577351243,47.039612622298215,51.53791321474518,50.27382434631547,43.76214041354278,36.91259236535666,31.5288601885962,26.822934807507288,21.929050588574796,17.185143473663267,13.629708834208248,11.085017526509871,8.348282816747247,3.26875945358714,-5.3667890838164,-14.76819503645714,-19.700864477622137,-21.322553677433298,-26.396806196709143,-36.06493815866926,-44.21259555058567,-48.98651251579933,-55.73993595087196,-64.7132661291476,-69.06242504507752,-70.96616658261118,-80.99605003821038,-95.80508168782268,-88.97179654828129,-42.1965445790364,17.961074274322257,48.8318218738783,44.565102666488634,31.982817762925666,32.21474312803633,43.21707606907715,51.25407545627879,49.31356780707608,43.175551918720664,41.83659174479504,46.58428522342608,50.73736175716369,49.50493004338495,44.854688745604506,39.07033594993081,33.239915951517226,29.259357544081112,25.83899853407264,20.16424353419048,14.048379253848987,9.695671730363397,6.295327600090793,2.188982225858575,-4.0303545454602,-12.569687844915613,-21.13752024917456,-27.777005655224293,-33.023707955459145,-37.596856668116885,-41.68709308799808,-45.4437841430176,-50.656660308902104,-58.986983646243004,-66.18533067602407,-70.51248524057732,-79.98758043656112,-94.90148651103443,-92.03414530855544,-49.886917391159685,10.757633252107352,46.51687200788475,45.72426938579944,33.228242695775506,32.37193595133132,43.38822943813437,53.98743608189387,56.22552106639971,51.77274176935719,46.008079185191484,42.480674504919776,41.50209783523598,41.299806842394226,40.82187971436751,39.53157110218202,36.88813272997616,31.614365810274094,24.208838140279568,18.86030057940676,15.996151577039274,11.898878109135604,5.9083319170111235,0.3640514870695723,-4.205233261943902,-9.335897896835325,-15.786325591610655,-23.143887998260453,-30.23303068951174,-36.13480284580687,-41.167848422914,-46.92123748625747,-54.45312872725494,-60.9334325095499,-65.75190102790644,-74.67645540845744,-86.20265566321552,-79.99544427899541,-40.813627242456306,10.746788413332158,38.87034146667163,36.880941290113455,26.380331451033705,26.296089960964693,36.700319761633054,45.00727071569237,43.999991331781025,39.35470586195427,38.45438050785726,41.365373924119474,43.256313631619804,40.47414632660592,34.45539956035874,27.693418763866667,20.438060384840075,14.301034212095617,11.11047112845472,9.073921809823917,4.594618894985438,-1.5492680697265342,-5.522763647782858,-7.456986774427387,-11.643431170096838,-21.433250457164252,-34.36769281502573,-44.32507107496152,-48.95553695784873,-51.064741662537045,-54.164853200764306,-61.25612795446874,-73.36851228886434,-80.95553117242883,-62.940397649065275,-16.5390119321767,27.089808307893392,40.25165119965582,31.55002371450779,27.424412223899093,36.793827834991525,47.9250457249582,49.76211187792562,45.18750710101,42.13570750966734,42.401391680204846,43.93103131105647,44.76582665678416,42.51858577131935,36.7471558581291,30.076180700617023,23.332057008540346,16.49531745780375,11.791813616784056,8.303370120521475,4.098081107623263,-0.5376363060742892,-5.940515291314414,-12.903073519546608,-21.092503445157117,-29.101738445386033,-34.69588097877586,-37.99368721175328,-42.91125439577878,-52.073792571344875,-62.743819722194175,-69.66333508547037,-73.38244214381717,-80.75867659469661,-90.06175668075305,54.0,127.0,81.0
-97.3342873527141,-66.2810581113787,-7.6379997066974905,38.47068665762805,52.25541062076983,48.179044164040015,46.09573649050341,51.9093818078898,59.09332413917393,58.86270899909769,50.6787845035449,43.497468304668296,43.58336530348308,48.64145790028398,51.9023650193112,48.71564077345866,41.65115090414775,35.22468387305212,30.146582595213946,25.44624997713467,20.488197814835896,16.016750997579898,12.825863498122386,10.396808957342772,7.218975271976124,1.1156784572393805,-8.257093373660473,-16.7858433179313,-20.2291997993671,-22.185663955848785,-28.935820865224336,-38.83312399893566,-45.770327301714644,-50.50371693085284,-58.391758309254406,-66.64234695388615,-69.39686959277641,-72.7105615410923,-85.6097946266665,-97.47085825047472,-79.30346241543397,-24.034735978869147,31.083425063894264,50.30966015236707,40.454805223770926,30.402377087972035,34.852295688141,46.402923845609465,51.667754531557584,47.51199676288492,42.04087015200808,42.78573857305651,48.1966502303705,50.93522352201799,48.36379422247644,43.2592092586077,37.31268041950475,31.849294998205306,28.393363692179665,24.436464708692977,18.291007554998703,12.599108968296587,8.691901826565827,5.251153253453219,0.6549697886302515,-6.312042178327292,-15.1831518054424,-23.257558490632046,-29.394988650130525,-34.39520835650541,-38.831887101774534,-42.77481618534474,-46.66381908169839,-52.81033962472734,-61.455662885278535,-67.49948455725121,-72.32813324124668,-84.33810910981889,-97.32028279228834,-83.9330319673117,-32.24475605633239,25.07502819614807,49.36411893157159,41.91466138343775,31.343263344874586,34.8126782329957,47.032421058957574,55.571682882723486,55.39386085334952,50.0246911250067,44.68553534848277,41.998619308495265,41.43908283425452,41.21134963245035,40.554023752886046,38.946013757564764,35.69433944429524,29.543151523743685,22.285954862728534,17.943041683064052,15.0548357391548,10.281577969944486,4.16422760804265,-0.9902377220380427,-5.576461290320079,-11.057394591188467,-17.865819810298174,-25.275304556883924,-32.07315363740273,-37.630091353743396,-42.661365749546675,-48.96755515473025,-56.59956271920154,-62.312244819970594,-67.65159454275204,-78.32419876357164,-87.3748688107087,-71.9051734174517,-25.44071143222828,22.35340515343975,40.708437556631274,33.59495757947833,24.907813741948804,28.67667814112194,39.89560727460374,45.610256927765015,42.61238204857752,38.55549743672731,39.075121841064764,42.255969949338464,42.96248085789832,38.91434089688926,32.54618631051347,25.62680312991275,18.430660247393355,13.06988697878175,10.585687620710367,8.112891208108842,2.8157406065725716,-3.031744444115601,-6.141716378672682,-8.217923818292007,-13.873914466664548,-25.111609267160517,-37.78075953714797,-46.143674257800406,-49.656175139674424,-51.72039835509355,-55.68000130177349,-64.35687723207784,-76.88008684862648,-79.19558102630111,-51.55544048388641,-1.905596797679023,34.37030179534631,38.785674260661224,28.97571587409244,29.023322192591735,40.53173609378825,49.54187850530378,48.70264950578124,43.9253622253234,41.95130515615681,42.800273776370176,44.34129473755217,44.52746555102617,41.12653170161047,34.79752670997067,28.18641623568916,21.273502190340686,14.866911984975415,10.787634769567696,7.172624503341537,2.78745411382633,-1.974231964324672,-7.780022090632255,-15.188073573516915,-23.51614288498161,-31.050215146927744,-35.75170142466823,-39.05789940882564,-45.12862830422773,-55.25571653418778,-65.27859247459706,-70.80450282372222,-74.8817438207665,-83.82997284634347,-90.59629345655593,-74.61357286837449,-32.01287306983535,11.5646577946027,31.238374723595783,28.44555148040064,24.78691113058459,35.21443270295296,53.40615510548198,64.801487389013,61.41867341867612,48.416584032540754,39.16685960070432,40.71805107656445,48.3207261110095,51.19817203751964,43.41504777252774,31.99668517076185,27.324862870282974,28.058982603357297,26.56166992138089,22.250235950143058,17.230735142512632,12.474157967441553,9.647931519966397,6.010086011997249,-1.7967546610440819,-10.43454465671152,-16.554296417873616,-22.319796687086,-30.183508808423174,-38.717941016870995,-45.514798158758985,-50.70033935826982,-56.0709047091555,-60.71568573801229,-63.186552284077884,-68.58426004247801,-80.59326171068322,-85.95399471233493,-63.95811996232583,-17.628200095856077,21.618696474944148,32.289184946753224,27.786535014299748,30.65179824355417,43.09577471108466,53.758959923057326,55.09568049544467,47.72205337060607,39.18898607078623,37.2678756716225,40.28489196922225,40.866273232844755,37.083798510091235,32.520289976121184,28.924830313623644,24.481804711387532,17.261175191385703,10.255702212548698,7.025315932896673,4.878040814751893,0.5744373113975009,54.0,127.0,81.0
7.724968212671271,4.109516835446916,-1.0864457468966218,-8.775170915024079,-17.713546138925565,-25.202014660070127,-30.921458676801546,-35.72374639359222,-40.02489838070853,-43.84127444248086,-48.08013181657106,-55.232373822619834,-63.65035242479107,-68.64116888482576,-74.84913993773107,-88.95417187697237,-97.44074932955334,-72.2646078573785,-14.091095290582265,36.31394380247684,49.362142967317574,37.95294351390498,30.798090535278746,38.024893256908015,50.30937480653607,56.365792215400084,54.12177493476945,48.29967438244638,43.60521721385588,41.705302951623146,41.38998509398443,41.08985551754979,40.20427266112662,38.233836016833706,34.23537074523113,27.35235632594009,20.660254243356924,17.157181208559145,13.925003578737186,8.535778372103954,2.5277712597943487,-2.2928479425739945,-7.029400896520352,-12.899314992591593,-19.99747452548182,-27.352515716946044,-33.799882024071636,-39.073433104883456,-44.26885881289494,-51.162810671868215,-58.543583884989395,-63.61491306574678,-70.08647169534925,-81.98329453230512,-86.38479815811253,-60.93151509817985,-9.949192575826451,31.218904429216476,40.285291105892334,30.263279436914452,24.613392720734105,31.739916395560922,42.548894114284195,45.402946278645025,41.15822928727985,38.19716602738298,39.93830438528982,42.91965301162524,42.23146557686318,37.171082818190165,30.607615132856065,23.5147236119296,16.58489563198965,12.110494533424106,10.06454363858554,6.872296898563828,0.9810924982083161,-4.24172728404222,-6.655649081228373,-9.293696103349966,-16.61974953824347,-28.922139177571303,-40.79118666297971,-47.53018652133533,-50.24094669506425,-52.53641110022168,-57.60218629871333,-67.8754011984219,-79.61609195787256,-74.71937209787411,-38.10484916446331,11.472189388578823,38.70691570157535,36.09566282617512,27.408151486516196,31.690565443843603,44.00280121810221,50.230055880128845,47.31630998134141,42.95558065984187,42.00988554682461,43.25382764675974,44.646132035578106,43.965216525243235,39.47070485275112,32.85524623936863,26.260560626615536,19.241444045316523,13.47279944576076,9.81076686403538,5.962533347889559,1.4586169037296153,-3.4999427452298244,-9.763816516773545,-17.553846418444977,-25.882013521503666,-32.733741859839014,-36.66898049831513,-40.37345866295103,-47.72838059414881,-58.433299879352916,-67.37967964894996,-71.7877092917216,-76.88700579751205,-86.84407623398039,-89.10894279590389,-64.31118020695034,-18.074144610754242,20.20912860476609,31.970803561755517,26.44436151435542,26.265724931898703,40.33271633115522,57.951477104523796,65.38635245117848,58.091603521540605,44.821241384979324,38.51360010442566,42.73443880429233,50.0997017724797,49.98367927912874,39.92093168225366,29.73737085450272,27.355405209568932,28.050633501432852,25.466929770549648,20.849282564505778,15.736095130043822,11.464721131479548,8.91914791014646,4.157814925225625,-4.456576025241078,-12.447396088119568,-18.09185969240346,-24.367425707476457,-32.71243594277366,-40.914886012986265,-47.09807050965838,-52.19009967590004,-57.61999012061868,-61.5694251922023,-64.09018356932037,-71.57593321227075,-83.8548433856156,-82.96296239661734,-52.00463968210116,-4.0126308767268215,27.650930902456402,31.35022586532919,27.296396241585196,33.70112626761078,46.84830205210138,55.22583615919003,53.6333727151925,44.93844396420396,37.80497205742353,37.96590848204125,40.94886802079735,40.10226785569442,35.688126873170575,31.40799127318153,27.86646790217883,22.654912478550038,14.978432582066068,8.930616353394358,6.523219434362834,3.852142698325317,-0.8388438458467687,-4.522930742959615,-7.093018342219529,-12.739940387664632,-20.45203491356819,-25.6320113867997,-27.742125005148683,-28.945747379656634,-33.06772622110245,-40.32402203113985,-46.40578641410837,-50.61094346305856,-56.547740055038645,-66.28301684612762,-74.13422699663835,-63.69096694249374,-26.171892726000646,16.101022205610896,33.71189676556299,27.999962509024666,21.885542127454848,28.15981476185189,40.803740162985044,47.78811061613181,45.25314002826501,40.23913192514913,39.45382907821723,41.663214447291104,41.65221673048397,36.83796560897199,30.36689498176183,27.096661775250407,25.90952439918373,22.463032567268016,17.505049295884252,14.940324257448328,13.883904787132392,9.564598351381477,2.6877346066904972,-3.1547094893274963,-6.90082870254329,-9.625733973435647,-14.406230622140411,-21.80200229340632,-29.197913613783832,-35.5437821774429,-42.08517843259238,-48.41649691691291,-51.64148910086567,-52.7862709646954,-55.98608803076189,-63.65061199872235,-75.86734933209046,-85.05876240958965,-73.91188454145365,-33.95888918439531,13.171565323412429,37.110772630868176,35.92035374824299,29.507702427761526,31.57993350905628,41.085295667961994,50.46091421427224,54.0,127.0,81.0
44.43232091556074,44.55016582005794,39.855665454652055,38.28043741845483,40.91525181292533,43.24372321203476,41.10576715065225,35.32506791377696,28.62602459243809,21.398437229352027,14.96193615858375,11.385208841138942,9.43149679075234,5.364619640897756,-0.7875888880427846,-5.175026406608213,-7.1785831862670335,-10.790030057637807,-19.826941028913915,-32.691152246946686,-43.32473965640617,-48.56808614668332,-50.79622066219438,-53.584082236581885,-59.98952550890834,-71.63483444578085,-80.9702189249395,-67.31958845559959,-23.437022856659297,22.76041518086078,40.30873537147309,32.95219071229307,27.111493218073228,35.090349251560085,46.87229270908072,50.07306148071921,45.840545242337676,42.31911470011344,42.24769974679323,43.72193247514743,44.780601384476306,43.054385688019686,37.631883645734895,30.94692041132978,24.270647784237312,17.320939178569088,12.285973585585447,8.795830403103178,4.694902740434524,0.10244477436711957,-5.140151621713273,-11.884250396423942,-19.970668987213685,-28.126537710400985,-34.13720560452101,-37.559214658603814,-42.022902252680844,-50.64833591843789,-61.44849699788988,-69.03524377478092,-72.82486824631634,-79.43081448217032,-89.28978164712098,-85.16470634038532,-52.02927116537205,-4.892671425300048,26.433615424546957,31.159898386744135,25.000786648167573,29.084057009900093,45.75434274738139,61.58645083970572,64.64175684179561,54.233211201890974,41.881556880538014,38.81630204664556,45.03775362895105,51.19861061649388,47.836235600548044,36.43343313828735,28.236387663071955,27.651573860596727,27.694548303671382,24.216916386247163,19.40648988199824,14.304998075240144,10.647782010439276,7.986409111817575,1.9271973775461855,-7.034987167339191,-14.22738371483404,-19.696038252920278,-26.619034266398824,-35.22414347377293,-42.921458326025544,-48.582562455889416,-53.741119399986594,-59.03519906827257,-62.241565406029,-65.44949206317612,-75.11475885363105,-86.0244517694893,-77.23041278152567,-38.459349032620715,8.064000550728139,31.09466888888434,29.79778574290062,27.858148493104483,37.35554099335412,50.148877995057035,55.81003345706775,51.53314800936395,42.3016687150067,37.11574555347647,38.91189249630436,41.2356388864868,39.01505565879882,34.33300075320118,30.37810592953143,26.66037574872163,20.577006822923934,12.848054673549111,7.964246864562494,5.975893105325246,2.6157748568250785,-2.143198189645106,-5.2035029626627205,-8.288874363935237,-14.992206604026268,-22.314263535062256,-26.500886048124517,-28.024395754498357,-29.69737794864431,-35.010191643539265,-42.35899613447644,-47.68654024372226,-51.97957573260131,-59.013144057479366,-69.30512122769295,-73.82432139335482,-55.2593983858263,-12.837193539114887,24.373415714764082,33.556190867563146,25.31216600479893,22.40890281624426,31.71724920558171,43.8202346464072,47.86448549243184,43.63916875781336,39.48317923034498,40.00401566807583,42.09855812526527,40.723130838717786,34.88093501876145,28.990867535184478,26.762882451745753,25.240544863683862,21.00478944615222,16.408909108101007,14.708607100814763,13.083000320345459,7.656847889772829,0.797578150904616,-4.448374630061145,-7.674437701337248,-10.678109663919425,-16.37046484448734,-24.0452391294498,-31.10786541775748,-37.35429536934953,-44.06401991339081,-49.741128176943,-52.001037681726835,-53.35284029997758,-57.67585112176643,-66.83334178979828,-79.47557623634604,-84.73644329975059,-64.97128219977269,-19.48931569001474,23.240296262730734,38.61647874267122,33.69704402215757,29.05601240371931,33.847128012689296,44.183872321620434,51.99848193625312,51.190056402298495,43.430572791116695,36.89148913285578,35.62133780262977,36.54024619081208,37.037944560108585,36.919640893607095,35.5291304659454,32.006959027992934,26.805047730279483,21.697493292374325,17.584737165189644,13.43831331957634,8.933582355595863,5.781976393107451,4.151381178508889,2.0753022041787554,-1.405265771195445,-4.933085096706492,-8.49634875675589,-13.918426731482553,-20.27444361622736,-25.439492758736847,-30.296115045052282,-36.752546231976716,-43.75371359383264,-49.36057082840956,-54.15039532165148,-58.61483008782617,-62.47779957746279,-70.5560250874018,-82.87876991802982,-78.7687114773928,-40.711312641020385,10.485879426969474,38.363075371860674,37.492062854232884,30.327171971189433,32.80171417167962,41.94857333414337,47.86429832535583,45.27275717257989,39.200203697621504,38.12373123261595,41.90951801036852,44.361123278214265,42.35793141443018,37.072356517266314,31.69173464832692,27.927685941479506,24.06142454794194,18.32763032413162,13.163435574509267,11.549500808222218,11.434451446818093,8.848886265654325,3.8440574546752235,-1.7641833656682928,-6.815590189000039,-9.994992943571463,-14.381072373175714,-22.243366962059373,54.0,127.0,81.0
-90.56852874137483,-78.55239726666768,-38.46944757471759,6.818209016248502,30.242143854175517,29.399774133064245,24.564991005019525,33.06638731563114,51.083525593559386,64.08061546549094,62.677986377747914,50.21779252872803,39.80205016817207,39.95835201570034,47.340638770826814,51.422707581553425,44.93404196796634,33.27153528610658,27.467376071400512,27.9668883855385,26.988932682227897,22.88254646965199,17.923199157475285,13.009342084735461,9.955850514059271,6.724893944598504,-0.5833761381874529,-9.419067165109734,-15.841418483074426,-21.44736209495448,-29.0333950693481,-37.6471127802834,-44.73674673547489,-50.029494387104144,-55.335558851482176,-60.24173506572081,-62.86454398468669,-67.43389292792111,-78.89343114525758,-86.47847820130303,-68.73822810081191,-24.18817315063657,17.93198888566811,32.317785938552426,28.30144391527238,29.532349891049243,41.283705042216006,52.79748175493411,55.51447744714564,48.98524153688452,40.04631326798211,37.08871383888565,39.88437434810663,41.08430089420096,37.71889013792775,33.06775551770592,29.38650718562277,25.230635302436614,18.325606216755904,10.993611250895395,7.279407272657413,5.273393052850109,1.2339836838323792,-3.2617452202157198,-5.8650338053071955,-9.85021767510753,-17.29723101544712,-23.878728247723114,-27.137798160721356,-28.30523233055773,-30.796389863235955,-37.145065521793136,-44.17886850636103,-48.86267416030296,-53.59693882577766,-61.8136877497644,-71.92735206532026,-71.47758276125744,-44.58096574826491,0.008197535624610529,30.037556941967324,31.86464792306402,23.204624551506576,24.066784219062754,35.514857400405376,46.08179299119462,47.18382935060858,42.065989574635665,39.17654936171464,40.69625505106607,42.21510235471733,39.37913673450614,32.9220134284132,27.97939662168202,26.48970523348897,24.29572799275718,19.508011523809483,15.607049139650163,14.495082766981293,11.905771066485485,5.631747867142384,-0.9372084887856823,-5.562685131564233,-8.413281279359468,-11.988139963457948,-18.514954158506633,-26.215590086296345,-32.93565816442719,-39.22823517912851,-45.969596596004784,-50.73446898587134,-52.27825166762857,-54.18559160754812,-59.78017457558466,-70.37464304763617,-82.53633408848536,-82.2110921343699,-53.6411103863378,-5.280684042829066,30.767428725392094,38.341616186639044,31.59639130589661,29.482962417834912,36.597869295368135,47.06203631765078,52.7607330286356,49.34882360675088,41.06801369910719,36.039096061869955,35.845635758841475,36.75345415399025,37.072917035417625,36.70002119903321,34.7434967357797,30.610993479037276,25.240671778868418,20.425150524292754,16.453928836358727,12.110999182446115,7.821283049158919,5.219820150039667,3.6911551717873814,1.179590567992753,-2.4843217328938594,-5.873710892237704,-9.834707278878932,-15.784824397544561,-21.91378883425538,-26.766959422703763,-31.972764967807557,-38.83841664578748,-45.53783640021139,-50.764199583961094,-55.51648351787329,-59.705498350977635,-64.0721749370403,-74.20826186592475,-84.63115904714886,-71.15587674344383,-25.457412000972507,21.981729636498127,40.305361483350836,34.98698307864471,29.890987803200048,35.191207538780766,44.38503660165875,47.966122976391986,43.43970682480255,38.16338042103726,38.97995409464946,42.989601614456404,44.25373661689911,41.03957610532404,35.390936851340435,30.455665713731094,26.95120823442489,22.575890426197894,16.584139340464013,12.317074885486289,11.568846514851924,11.033626348696751,7.549906303777718,2.2463250882924997,-3.367104060499285,-7.896625610930345,-10.911260100287658,-16.401895609574797,-24.58118485497044,-30.421850823860304,-33.61418223302159,-39.076182410234445,-47.423985909614906,-54.232329153693925,-57.80097609064216,-60.417908331498886,-66.30024042777454,-76.02071536168174,-79.31788945645462,-58.9826256482436,-13.611912936140032,29.613602828936926,44.0346415381491,33.2812846007113,23.892753461647416,31.38717325216331,46.14325542327935,51.7767076593368,46.549400473338046,40.83384323035846,39.84572408719122,40.56820884075088,40.506852185927215,39.85956801458155,37.308322006709474,30.763544696694503,23.015258053041343,19.13862235901211,18.479664928145706,16.901970010021245,12.83931081459012,7.748084956591441,3.8764986835454054,1.5054886113324797,-1.5610328618760212,-6.486581743373851,-11.58765282106471,-14.314741829535551,-16.416435285616213,-21.573212669068244,-29.169584907290588,-34.49162307234228,-36.21285515800071,-38.684042009250376,-45.360390116844584,-53.62976872341495,-58.69285692367678,-61.00305543937472,-67.75269474809406,-79.53144699262938,-77.27000220248938,-40.63723331652146,13.903725300532152,46.50656047018611,45.476330386335135,33.15699100792797,31.189118337308358,40.37499995964913,49.26567164761311,49.96213647750742,44.04778564245056,54.0,127.0,81.0
-0.19478946021609322,-4.1684335965297725,-6.6507734577350845,-11.76217431213589,-19.50305631573952,-25.14401376755929,-27.584615034475412,-28.69640984244169,-32.269598306277246,-39.33434873801813,-45.755448411211134,-50.03867435925267,-55.534246954960835,-64.85074680790714,-73.72144681368367,-66.73493387767729,-32.22133837454939,11.478836162423908,33.10347011040718,29.29582082152911,22.0426834470794,26.692423723497434,39.21692049605727,47.460266653424924,45.945514046224154,40.73258251920428,39.28580234094975,41.38575774871702,41.93099998742976,37.696511744974934,31.113621445475296,27.3108943721853,26.134373458241413,23.090171809299722,18.095797215578617,15.09557450190094,14.13730501081881,10.372221480392756,3.6006716224220385,-2.4967945568144705,-6.511163683348154,-9.211046721163754,-13.580320004978612,-20.75784974301595,-28.282462638974035,-34.72130815696554,-41.17244172818125,-47.70215095841209,-51.41526915321882,-52.59539443008316,-55.33661166921632,-62.3261300123012,-74.12770764105602,-84.58999980678762,-77.1473387089656,-40.45652279518489,7.7640712728831724,35.68056558063624,36.85298206365718,30.00022291166272,30.745717886186053,39.64053070047156,49.51950636068123,52.69871487887382,47.06715851091223,39.03329357998347,35.63157981150042,36.13685961334464,36.907004086896585,37.06028901981216,36.34480416936945,33.76545647912704,29.10341450179542,23.73488153868195,19.23669440033564,15.27812823957893,10.776233372568923,6.869494940277775,4.759577548827008,3.1329818710072552,0.17198553795736019,-3.5184810738113637,-6.855019636476978,-11.370666141667403,-17.66108590250611,-23.421017867272656,-28.125149860941075,-33.81783710514913,-40.90326692211668,-47.177739480136076,-52.14102928390305,-56.839375109439715,-60.750857473974634,-66.22392387482124,-78.056692864519,-84.279714460069,-60.528488569008296,-10.061429891109036,30.75130008749877,40.146451490845514,32.6234610528402,30.4423231686815,37.91663490324902,46.307017286430025,47.31138290056012,41.54747087056257,37.718778694492435,40.11842626603099,43.80542856753251,43.7481183468279,39.50927444347012,33.78731504263997,29.36434402948787,25.890790112918552,20.918485395159653,14.997903020144546,11.806515906111535,11.604679060270016,10.347528128399352,6.1036201074868845,0.6239168495683636,-4.882747716005204,-8.802550237154309,-12.069278052418413,-18.694536678381446,-26.6815820634312,-31.42455762789068,-34.77606127449302,-41.36723035849952,-49.71540077169793,-55.556239559830374,-58.48010502448154,-61.61126015161339,-68.93015631879759,-78.38539710775929,-76.49227204736081,-47.67062516526913,0.6455883047718569,37.261436128262126,42.50650732380938,29.258862484143517,24.34126542870467,35.743316139713365,49.1543950687328,51.00113480756939,44.50543361750037,40.11055048132208,40.06419112853178,40.63976224763593,40.380024115120094,39.445114815432895,35.83055610883123,28.379928092465086,21.390167142138356,18.79979786594887,18.26533047436473,15.954682195681752,11.373027871880621,6.423955843165727,3.1179286430587636,0.7848275646757401,-2.8053037463661257,-8.090986883179495,-12.643745595671797,-14.798835661096515,-17.49944749085972,-23.703734943628245,-31.123522277089197,-35.24400758262657,-36.600803675078915,-40.1864002069111,-47.81772849714862,-55.56479597895236,-59.39274521546196,-62.17727428124383,-71.09448473999694,-81.56148004132473,-70.38568076192163,-24.92453565544161,26.948397445651583,49.06382973350224,41.80266643677896,31.085453069775063,33.12697501290046,43.49119903555771,50.41349360221508,48.65220480675293,42.13668167804001,38.29508323503502,40.410706778956154,45.09834231511825,46.80658017867212,43.33244714927307,35.7127126225006,26.932121041249474,20.56498634383976,17.24110111980675,14.455345431756127,10.885028664163084,7.029387024783332,2.5011316814257682,-4.045648247042805,-11.97851008595772,-16.992685249943495,-18.984574646200365,-21.994842364463384,-27.138412243693228,-32.783359766558625,-36.28941965757412,-39.19421222815694,-45.703573964509204,-54.64531365342121,-60.426191594914016,-62.19110743513085,-66.33512097162613,-76.60412696626285,-80.38100432316033,-54.73284756177752,-5.159146315097288,32.28714992373427,40.51279452377924,34.44594223602219,32.86639460812667,40.57077689810867,48.66373202322087,48.60885733680637,43.10750705473635,39.64990343137731,41.021347852516456,45.620074795962886,48.27348168791376,45.51378561814966,40.553747867470115,36.02446858317521,30.309684211856087,22.89678280660997,17.93703487868523,17.70607536232239,17.930154891366204,14.011201899315385,8.106489755721528,4.452651910159584,1.2358098877629216,-4.54448328298441,-11.19065428967324,-15.803337803635012,-18.741916512322167,-25.35621182604837,-37.20538856274517,-47.798921967210966,54.0,127.0,81.0
51.380536348944915,51.83451916488295,44.57962635494047,37.451664899160775,35.56798975006549,36.42254510559887,37.007296460998255,36.9836651863606,35.82766894788022,32.60133644601218,27.534363142469452,22.317302850944913,18.10128170582663,14.034551299501524,9.492380072163401,6.087823387853666,4.344697248117915,2.442246950206367,-0.9021571211425244,-4.496579086577237,-7.942668497158988,-13.083371262872125,-19.474543403137638,-24.81933471193771,-29.578917245806295,-35.80411728670756,-42.88278046449291,-48.693554568462254,-53.51597265575488,-58.07889878713528,-61.879061709698185,-69.0395859862625,-81.56346006956639,-81.21201961995506,-47.3932523971891,4.3991373460087395,36.61233809584959,38.53364159294502,30.85635428412467,31.88569724097086,40.70983768225132,47.549660099411405,46.025134128310164,39.85286328913683,37.87210984539891,41.35482790184501,44.27490739319603,42.872686774432864,37.853423770056935,32.316438464504046,28.371029717033924,24.6811837268917,19.1523711897515,13.669355943853716,11.58125150462081,11.533031930380398,9.379679674075389,4.569301492290305,-1.0118427490226003,-6.2492640724224415,-9.61631273735986,-13.566154096998424,-21.122675857873546,-28.454725139332382,-32.28681390049605,-36.26311841148665,-43.82471189599761,-51.76399770661192,-56.61455762593089,-59.16603250735526,-63.19283200812144,-71.82305696895662,-79.83878330949467,-71.2486948526369,-34.53437385396636,13.833083509604888,42.04288484412923,39.328782624502956,26.086866561444463,26.320433893670934,40.254316309574236,51.064940297289375,49.47610857182117,42.712475206377476,39.793191314563586,40.307963434930436,40.628222413879186,40.21904126078957,38.805028894717864,33.98396390180557,26.036562301971966,20.186236838582484,18.640597775208718,17.874245041568084,14.8035165186281,9.873031617251046,5.259377225074392,2.4519563548917707,-0.05418075416574478,-4.213846924076476,-9.631531034648425,-13.45868320537874,-15.329276489539412,-18.916102078908697,-25.956138234933984,-32.76089931825108,-35.72878504591192,-37.20138107888659,-42.071341868811025,-50.28717465560811,-57.12043821605528,-59.96253766952571,-63.943219187514686,-74.72392390504275,-81.73009538843581,-60.30194179481444,-8.611265394580887,37.20803822286993,48.98625712988925,37.931417139560565,30.234465234318552,35.8044768102511,46.26577237736284,50.772153170127496,46.920291998723876,40.48096088599887,38.32893776518564,41.77135425302792,46.07731675074767,46.33268508359114,41.45813125709198,33.12299944879061,24.7323421430245,19.37411216124883,16.49915927432977,13.484196936195847,9.795234220057406,5.834650545375425,0.877881071391651,-6.361057238954177,-13.881139091236397,-17.697887405652914,-19.625710418241407,-23.292824760788555,-28.84848615430465,-34.068999558074566,-36.97906968601534,-40.60805487442446,-48.273305203894445,-56.841669485078526,-61.15631160891729,-62.80503982637451,-68.82154065960036,-79.44606881825159,-76.62266940434645,-41.47647638934709,8.408071768662142,37.4074490869725,39.22916553157064,32.997149359890585,34.34916364778393,43.41051568235827,49.5838063544452,47.223233582936686,41.65790008656507,39.56078242730945,42.181636625775326,46.86169078910485,47.98672824233708,44.10056265179312,39.216290577903735,34.603377495197925,28.226970806794892,20.99108322101496,17.467983674729076,18.00866334835324,17.27261306594611,12.259402152800131,6.772758069583422,3.6792693981577473,-0.16205635333049584,-6.529800197087577,-12.809054727761177,-16.660883585646765,-20.01671513933817,-28.44327070682143,-40.71918856161797,-49.844148157384154,-54.416781562401646,-59.79664800053915,-68.46798059232529,-77.3948740268185,-85.82896479925398,-96.7694416182254,-102.95086744797827,-83.34675154396022,-33.888136295335585,16.091407428186603,38.64991907288692,35.35979729197162,27.92697354985268,33.86916152499188,49.734248781351525,59.929958371641995,57.31106510469665,49.02678973204496,43.93528229516514,44.63395217471865,50.42215379393213,56.061864132482626,54.11287335308574,45.136432492808055,36.831896058949,32.137536298808854,28.614376929424274,26.351435212335918,25.29541288219916,22.309000175017456,16.732506666884166,11.751534219856998,7.19869776155352,0.48145484152442297,-7.154412315299615,-12.219157141565098,-15.49706907005576,-20.500779257686997,-27.41024485103863,-33.721391067247474,-39.3188473151219,-46.384811358900905,-55.73158973840462,-64.82172233330454,-70.55092570851347,-73.01545145433253,-76.114844295788,-85.0071699657479,-96.10083999458638,-89.28977394098179,-48.87521859917246,5.646767030950664,39.40099244356031,44.13759405513535,36.66488950687161,34.14448992777301,41.01635245927821,51.0617922554464,55.68851300585586,52.750083562332016,49.12742922853358,50.32118718969348,54.0,127.0,81.0
-23.525347956890187,-29.875654118549587,-33.16280459438418,-38.11051594897172,-46.3078776729234,-53.52313614886383,-57.46153859831261,-59.97260300562871,-65.21755337006654,-74.74781253893347,-79.8959435086533,-63.434030165740815,-20.304037426550014,25.176801782444528,44.003083786309006,35.250088149890324,24.22928458854915,29.569178834989422,44.43964304051851,51.80878367561614,47.513164688359964,41.3209215927084,39.78150569082255,40.504668526978634,40.554944017788365,39.99671910758072,37.86207696252663,31.829931571636944,23.896002340913558,19.38753513230257,18.538997126041416,17.26256159632879,13.48796428764365,8.400570562570127,4.273462668911712,1.811108776066108,-1.0462824818149146,-5.751096348056782,-11.019040711595412,-14.075368187127285,-16.018217695167486,-20.666337830741345,-28.187541723547227,-34.031103636515354,-36.066592004804185,-38.12746610982771,-44.269748103979104,-52.629045826505674,-58.27958394999784,-60.61273807194032,-66.39545961934144,-78.17139724688839,-79.36236350041739,-47.3708001086794,7.137750436531853,44.311283529792156,46.90689903346443,34.47638751990183,30.623240366485703,38.89951828701303,48.47834286226979,50.37494300526674,44.966221175520815,39.22404408377877,38.87635082036317,43.20220655263071,46.687380696155444,45.41502711105476,39.28293268517034,30.52716411761293,22.815455044208786,18.407058073727622,15.72463077806172,12.45148053452921,8.691309259748623,4.565825396340236,-0.9613532329036621,-8.724915963225243,-15.419471620573702,-18.234243014380002,-20.44336820366814,-24.760348727075634,-30.536820416013857,-35.11589525242666,-37.725075669541546,-42.412932721096325,-50.9357232510671,-58.62964463792529,-61.61862675741534,-63.82469761100983,-71.83463562121626,-81.20855125396555,-69.86291092969596,-26.838535747390885,19.975689306381778,40.078150872687736,37.31833562058701,32.29138193523592,36.55908720744431,45.965225190837856,49.70413722728053,45.56630694542676,40.5444588525701,39.88189727678235,43.54579224482752,47.773060132666664,47.232880641549194,42.633159755205085,37.929034892078654,33.01109199393254,26.03662660805436,19.431644841654805,17.384249658101524,18.186806819427826,16.199655864651977,10.476420174806213,5.694074851721322,2.826813249832203,-1.8074036558215214,-8.501864702860296,-14.199388821460289,-17.434227698693864,-21.77677735070825,-31.89830349907697,-43.92355948877265,-51.45219035206658,-55.64602360628989,-62.04047410274744,-71.17228743283769,-79.74926512490471,-88.70168966901488,-99.86438061525011,-100.78794520707552,-71.3068550260683,-17.835595033955578,25.95003687295161,39.57654589905545,32.573637114743725,27.984249019075303,38.09200186931539,53.8720850915653,60.386850319202296,54.99732395430414,47.01645128131475,43.52402942689303,45.90121714634802,52.4377055061432,56.47612354508927,51.93552169196519,42.36565666640208,35.194797241372946,31.06894047701258,27.76636963829755,26.029739375802194,24.768302600373296,20.84049501112454,15.128424791073803,10.526993078551595,5.5272501049386005,-1.806174152559571,-8.959467236315673,-13.185461227648943,-16.66295949216595,-22.407920317152243,-29.374597982306884,-35.328565517750754,-41.11547497568672,-48.906104008239325,-58.551575075876386,-66.89713079750776,-71.49072657044798,-73.59445608193849,-77.95576307624407,-88.59392177531308,-97.0966505041485,-80.96553800126183,-32.868109535013105,18.589824309420646,43.25944542002662,42.300558201787005,34.96093150710909,35.30670007329359,44.0003932599955,53.24748318672845,55.430965632935376,51.388481880541676,48.95391992341002,51.40143373396808,56.002752601606225,58.80078901185172,54.63566258773071,44.64485978630212,37.41379403364409,36.45329516549058,35.06458161376843,27.693819828268687,17.659543028363178,10.874499022082617,8.308508317774786,5.415243765651262,-1.500209818450155,-11.04182930597846,-18.3146223209407,-22.447523259243347,-28.002840008503487,-34.262411484184206,-39.17363398867133,-45.394576495848476,-53.20808926424916,-60.54099139475005,-67.0898008500825,-72.18129063807592,-78.33444535425338,-90.69403326594335,-102.88106287176358,-92.7640775212652,-48.29762226312067,6.516409948614503,36.233192484206086,35.12671181598169,24.864221166139245,25.177813165589445,37.417833517478705,50.148383293515295,53.46044480024669,49.48095465487066,47.81758942370491,51.69460080855882,55.45371887789472,55.933465153127045,55.17840184828195,53.12936461362776,47.04215765409168,37.69534460676044,30.663452329431916,28.27235038527136,26.796221132287666,25.218698295629462,24.965028385713364,23.203676492802813,16.68402185501783,7.015139515064053,-1.8287923530293746,-8.080206085363063,-14.089439899864495,-20.958502932091243,-27.439034290726752,-33.71695729636775,-39.261789349108554,-43.43561836783207,54.0,127.0,81.0
