3.128087611232526,-680.3248393369207,-952.7384019014721,-872.9659752435442,-748.1733186193907,-695.6161434319251,-657.5981370254191,-596.9190046537944,-528.3874519636433,-464.68143734915225,-404.7874450918578,-346.5960254467824,-290.4089973525863,-240.5012851142916,-200.53651193429778,-165.05667336856126,-127.89886233473801,-92.98661626150422,-66.59563548880263,-46.645866242358444,-26.66337194239899,-4.7416792222468045,15.980817651442427,39.43676572644855,74.43149259887103,115.51640630018565,146.73949497355525,162.15846889856124,168.84330383052455,172.689949234907,172.703850165185,168.99760832903465,164.3634266510631,160.96780255186133,158.80370639917928,156.69020764258826,153.0241749310358,144.45468537731384,129.83305006595194,113.32472190097074,98.61401304286643,82.5895062313945,60.85389655788042,36.96463703812542,19.5907279068205,13.285785706051122,16.586664997729375,22.434535781592924,25.09359661757577,25.590896604171316,24.922478282099842,19.97580347289013,9.80492023176905,-1.715876797131849,-9.816320227966173,-12.81184643711517,-13.842936278422782,-18.024401056633124,-26.29063757928655,-34.884370235430076,-42.79792348070073,-50.609819291069456,-58.12546414174974,-66.51129362559871,-76.01934942313392,-83.26089808836767,-87.63431290080496,-93.09769387422043,-97.5775524614601,-91.4153758590001,-70.61736223097401,-43.69886630253671,-22.24435256525142,-9.748385989665216,-4.25367280412389,-1.0910468307874068,4.062654357961864,9.605832918155372,13.53756947830877,18.217402383096747,23.62814970115414,25.530330492723717,22.652877481368588,17.538281448789895,12.91492696793728,9.087097480045504,5.448622082470346,1.3104178106662758,-5.103151699448968,-14.554914240260544,-26.730169271158196,-36.37593118978837,-33.852251119157046,-16.519107650856835,6.79354296004264,24.794362178844434,33.74462222155065,36.11260255062351,35.88980496959971,34.995059389634406,33.73224705335708,33.453154699008934,35.112301268234084,36.666180273205725,36.27503922947864,34.15609928304319,29.109525946080428,20.184169406210533,9.972392029935834,0.8868274670952789,-8.302450412550687,-18.52352061401481,-29.292623144936716,-41.654179669367466,-51.85839796300896,-51.85780468359982,-40.276397457680076,-22.28729254220018,-2.4948639949737816,13.746597154487745,21.604432501535513,20.777038338027282,15.65209650166891,13.530792955660665,16.891336898346857,21.767798106691256,25.066115668821936,25.834735403248285,23.569202524174585,17.120728361020774,8.487401290331926,2.6490123725270345,-0.649366453475608,-6.932593470649105,-16.595405354674654,-25.867297979804313,-35.560193471234314,-47.75868004178465,-55.96382812223688,-49.3137462273678,-28.25518983103314,-7.520947781562196,1.5686255790673083,3.245349565431842,6.306052996591442,10.987012765014255,14.699638861285655,17.447465472268146,19.098625156343974,20.34893551429135,22.039181303855564,22.074377328731533,18.081545589094752,11.629504397916868,6.27984449185991,1.8455467833192365,-3.5846452360352656,-9.918337940782653,-15.378282827639032,-19.999442504931892,-26.337462790854097,-34.32563624942034,-36.4711290631715,-25.727488174038726,-7.052083036313754,8.887877926060789,18.275712869859774,23.593163938341416,26.050190680836483,25.77620983366313,23.238346205695983,22.25162880637752,26.150702324482932,30.346937166711683,27.856205331949436,18.056588386546885,8.954236732052632,6.402484983631405,5.889527715805588,-0.34643826593836435,-12.26725210757004,-23.631940539221524,-29.78795412538596,-31.404137160616802,-34.492145082162864,-42.59385840804515,-48.58513753469113,-41.50086581420145,-22.396488768935836,-2.7996755788783103,8.421241891458585,12.22617093888461,15.676929326159893,21.645171423302216,25.305478416990645,24.50175184317832,24.34721477809805,26.930269906173873,29.64645026516649,29.435305454365558,24.57247809959001,17.610821086255118,11.605158344921692,6.858010320174018,1.7036506660914101,-6.947943848789278,-18.406530668475586,-28.57931146430377,-36.7859768011718,-44.876370702294,-50.52134825737806,-46.52497422841708,-30.381555031815942,-8.362716621926657,9.286103596052033,17.307233521916043,19.01854550467828,19.115793334436244,18.93432476723686,19.383618090472627,21.604750331216827,24.018321739273656,23.741801878444928,21.46268087417335,19.01478267477816,15.099248045998229,10.517374202880132,5.441533622445674,-2.850391479458112,-12.244853226212813,-18.825114166062416,-23.177560035755707,-27.743146401709623,-34.87254646847262,-43.10487686065937,-45.209352785311836,-35.49551331418896,-16.966638469692334,1.2038571260358713,13.59414091877649,21.05395634127434,24.7686815199499,25.14700929409797,23.79520968202345,21.96195885529669,21.726964999662364,24.50226721059137,26.6364762016827,25.050836231726286,21.37109632027631,74.0,117.0,89.0
-60.383820360986235,-69.24288934366443,-78.50480697514482,-84.66062290619679,-88.98291853269562,-94.86527581923275,-97.29768443310309,-86.7454135635485,-62.874736618558934,-36.608308233127524,-17.752042371712133,-7.590487132829448,-3.367343638410698,0.1500469242155445,5.795041332307623,10.858663123078225,14.693081864401984,19.86940346042515,24.702080965227925,25.111349393312267,21.26509495408022,16.07817937624981,11.772938471972079,8.02048117142994,4.379253631346757,-0.24832718005857723,-7.510418078503862,-17.875774930182487,-30.204231841539766,-37.241089340636364,-30.159760778208547,-9.823090797781415,12.8770408467841,28.272909806140355,34.918570687706605,36.17533992559877,35.68218770958597,34.639506138524474,33.462852263859126,33.7723599397856,35.703011911829876,36.755785411674154,35.84794356760351,33.09215104515643,26.878354456472373,17.199857820433753,7.223370839334263,-1.6553102421248402,-11.191906645757342,-21.539180514960826,-32.706647649637475,-45.19057265207463,-53.16785713895511,-49.51242287668582,-35.5055538885898,-16.558534330320626,2.8347976575455403,16.989365525313293,22.147530113988637,19.429743815477828,14.449528329674601,14.059596138853593,18.336562986614247,22.953417305323317,25.557459466602204,25.544388720266927,22.15090768173044,14.626487068968066,6.3595505234714125,1.6631225585114777,-1.973729376836964,-9.558600192607269,-19.401670574401567,-28.454672465663705,-38.90912558642712,-51.06343889861313,-55.886649725723295,-44.227347813773946,-21.47974504890004,-3.6002108557038306,2.3350975895688104,3.80020734567242,7.653245084230814,12.18948019708791,15.58125837446557,18.04691816772407,19.42506118833129,20.829209405598988,22.364230764757668,21.359665983351547,16.28846586155137,9.889364805516674,5.003953643296031,0.4273678427088935,-5.395175989680515,-11.646093167398037,-16.711102246175862,-21.543176895718023,-28.667175312332663,-36.00494677240586,-34.72717690831191,-20.64573778880346,-1.8083123102811738,12.204734555494634,20.121094309643627,24.596862458405457,26.2441074938372,25.203077815924594,22.532042920140437,22.933171065976993,27.679663361850984,30.526269419452305,25.537816438895767,14.927144140427243,7.555085927161059,6.442653795706505,4.8733947462057285,-3.446160238315972,-15.887995490592884,-26.03714368086746,-30.523612961891217,-31.842513897857895,-36.40776135660571,-45.10918353663143,-48.144471944721545,-36.79054760778479,-16.241644501160717,1.456715743889865,10.005166447472725,12.965383741803356,17.259268432845534,23.203363255571865,25.37715687305958,24.15812557928331,24.892718554767647,27.838811429073214,30.01758981008153,28.479127696766586,22.59050252264828,15.722965048967902,10.134618549906236,5.550045618500015,-0.348133544154694,-10.1498303131478,-21.611282036357693,-31.06131626283319,-39.106499657440935,-47.0443641179963,-50.64266182642958,-42.97756777658422,-24.177038046896243,-2.410568273133983,12.576849445900145,18.184672159306086,19.102395201399467,19.074743457448157,18.92785922840585,19.84594640328575,22.428448971259474,24.280910930000857,23.153953468299015,20.79786746513237,18.076264068094442,13.744160152147344,9.231930156696304,3.4133293931962054,-5.680242906101823,-14.493564966585796,-20.20706489510493,-24.359808712860715,-29.479092468118814,-37.38225908296287,-44.70934650715927,-43.67424242209722,-30.680587595090397,-11.290899193203375,5.413034594732112,16.16470400994985,22.50874815351407,25.165638071996263,24.8628368636386,23.2637192673707,21.596185515675042,22.288860077678617,25.41671242205661,26.551593066414295,24.08116625140717,20.25148779646742,16.42765889518766,11.792053118211934,4.97871922432821,-3.411530930142551,-10.654662451941169,-15.832326029525849,-22.293089217966294,-32.40797075757037,-42.63682633789607,-45.329750102180526,-36.36592218387341,-20.700054158327042,-5.620360841854429,5.354476950302521,11.836476051785445,14.672970316153666,15.130758492627207,15.313397189043483,15.640778547757009,14.534461408342226,12.566811006082624,12.349804855452673,13.496230135685428,13.562159705106499,11.897226628912023,9.013006881627568,4.292844376517074,-1.7846988107012822,-7.646129279599858,-13.423612679517454,-20.967792335397196,-30.318150706882072,-37.14776737069821,-35.27684066634272,-22.83353989798674,-5.743067065722906,7.26725331521368,13.01757449946303,15.891474428445914,19.98565401349267,22.179750113182067,19.67128670552035,16.6830578779689,16.728034747903887,18.491308187934976,18.6129024842849,15.949614803838985,11.629274921805044,7.5196212427708735,3.9773525433690478,0.16559100951128503,-4.740074667221487,-12.092643508632806,-22.65195479765657,-35.253570084522465,-46.521510520433424,-49.97787689444982,-39.79035825648567,-20.341552538072428,-3.090195870646783,8.076274552709187,16.197523955866473,74.0,117.0,89.0
19.78820043879675,23.960630554267908,25.831240345427414,24.979261633083816,20.351919490185516,12.057694301209251,4.5870810878291515,0.7901040328358292,-3.691379741823721,-12.38141102458985,-22.092682862354376,-31.16941277572799,-42.47905425254948,-53.76410635995878,-54.32038632901693,-38.12945259936097,-15.18281547749155,-0.7944210815067888,2.7422179586468878,4.6309137843480945,9.045039528002361,13.27887965901638,16.39670770403775,18.539567176174035,19.76174524591429,21.344458788588806,22.469399990229306,20.270308280447075,14.382579429759035,8.313636793980443,3.751527692646589,-1.1125948515217774,-7.249124072344505,-13.254546566744024,-18.008094805683882,-23.30880287628661,-31.075962730382177,-36.932040192448476,-31.813145103935643,-15.161069074463173,2.964661599923986,14.985868810879177,21.70427989350917,25.36027166130003,26.217778973981833,24.452509471301596,22.10963854073773,24.03950431351454,29.045927373004222,29.993282676581043,22.69185813767566,12.116820924632744,6.75482336462631,6.441808576220433,3.218208944369545,-6.911566945974496,-19.294735609555293,-27.930343358878726,-30.9593021155774,-32.59056653714971,-38.75591019631405,-47.148364308702156,-46.38764045525317,-31.267555393149056,-10.369224036950722,4.876117945079961,11.096779556750771,13.868750507666045,19.03056580573636,24.394713746804175,25.120007926780456,24.030445294774985,25.639443508660854,28.68203512441168,30.06755754763174,27.12154146585064,20.54228961489247,13.958687614906113,8.75972248412617,4.141904437751313,-2.769198638966458,-13.501731076195975,-24.6082911884257,-33.42071222091871,-41.4611702611934,-48.87881011110964,-49.764490489067356,-38.44578371407101,-17.710109240243504,2.920924835505995,15.027148326513082,18.686716543514642,19.131052927355434,19.015768548131213,19.01150599070938,20.473562896591538,23.192894105008204,24.256033520362948,22.474042684511293,20.128294638804018,16.966490612123177,12.402158299752982,7.85097347760038,1.0570275810457122,-8.476507093101715,-16.445939153072477,-21.459401172691482,-25.61985249699708,-31.487205436571365,-39.881439648777764,-45.584565773061136,-41.071557806726595,-25.30368482841164,-5.890177592469774,9.090554203079115,18.381944211386333,23.6548604159254,25.30472195971472,24.4805848440131,22.70981774349432,21.443277263417652,23.09795131030147,26.134922487059622,26.13642111683626,23.008584231015558,19.148027848646645,15.24504032295067,10.072447602639452,2.621366282990162,-5.748326391606577,-12.274410488262511,-17.379403123360515,-24.872574342615803,-35.66004628257803,-44.52037346439017,-43.880770384757305,-32.152985430183996,-16.056500038096974,-1.9607846576816603,7.652526467551642,12.99401437244671,14.960384384885058,15.136138570250266,15.45164196640399,15.520517017895198,13.930078417225406,12.260108831122498,12.650841180272478,13.708037346712533,13.224527178847683,11.201745230691673,7.859326034059116,2.604440513068938,-3.5473266254894655,-9.251223602616436,-15.349931146836843,-23.59152032675725,-32.834802165206725,-37.72176224975384,-32.645196091505184,-17.96101919381595,-1.2625931954149108,9.58723670507707,13.862497062328012,16.946828407780696,21.076837885360803,21.83734669498956,18.621767253491505,16.350542893959556,17.22041563107454,18.80302257971284,18.111039267250952,14.784122228624259,10.361716335500766,6.47280650562501,2.9359690340003293,-1.0899560973708182,-6.549908494493703,-14.826189240876433,-26.18593320938253,-38.86676193188362,-48.67756787457769,-48.49289243909901,-34.62070725598626,-14.728701341640512,0.6565559969030831,10.621432250060986,18.142718825284323,22.066100773776146,19.91788201850634,15.949727696393781,17.347765692463785,22.412431922818833,24.19820043473964,22.63598561973721,21.884897115329547,19.724923657392733,13.828558940388538,6.91820935813232,-0.059252136458069746,-8.453013068162523,-16.950812238801355,-23.096465634797838,-28.61910127884861,-37.44834047712469,-45.76124757206029,-43.79961973227149,-26.56236347031945,-1.4172812806437718,17.049076669450912,23.718470191433926,24.662153179593965,23.77674290450102,20.239215211136223,16.671303971296265,17.228927662876274,20.73184800355015,22.299566706265978,21.749195172581043,20.368701212208805,16.86721221699413,11.156602010922553,4.841312020854601,-1.2856799977110622,-9.465765326516898,-19.072779124057863,-26.11314960216975,-31.16479377159154,-39.52163463460994,-50.230411774408125,-53.550692106003275,-43.42776398302655,-24.11171801386437,-5.286676319375497,6.737213758926087,13.09631423898344,17.238696844844256,20.043267293591196,22.242014463575043,23.985540368198798,24.547483188172592,26.244065932369857,29.246367292391124,29.52783892759698,25.474710539563613,19.831088545629825,13.943043124393554,6.8694162299315815,0.5560349955151075,-3.6949156306576083,74.0,117.0,89.0
-43.32231596042079,-25.24767625311264,-5.029156578810048,7.475857387587437,11.897639671106258,15.038066130749959,20.84371083528219,25.127701101326757,24.700167702474662,24.181532402700366,26.509628096168907,29.387746926981627,29.73188526733337,25.433973283498865,18.518029399627384,12.320186592886909,7.451572040101125,2.5363706424919696,-5.55497614104459,-16.876355474362303,-27.375813004084847,-35.725340004096964,-43.815003545170924,-50.169250418859605,-47.801216226584444,-33.08101347744673,-11.257224535394217,7.474469659107066,16.73335683991326,18.948982764843752,19.12671938853365,18.95514967924067,19.228964210126488,21.229676879690047,23.807761512544865,23.95728432133221,21.777195831888342,19.393703772397693,15.711040095735774,11.10444570992212,6.266608223465847,-1.5734120363024686,-11.111411360276895,-18.127341251304806,-22.640885767832824,-27.026468794141387,-33.75567882490385,-42.17580845121854,-45.559285013467665,-37.46287649225628,-19.619092617547757,-0.9179554374832063,12.27570401574842,20.2810063750234,24.488165634510757,25.235039717554795,24.025109231021585,22.179750994521417,21.567386567552305,24.051422063303708,26.557107543908703,25.444159044226755,21.890396368025865,18.05433808403996,13.956198676880645,8.1444711496892,0.17257487778675587,-7.905062454383311,-13.746070999538052,-19.148730845341568,-27.772417361533293,-38.771331343097074,-45.56890851949523,-41.43625345460727,-27.589159456048844,-11.605624804217827,1.3046652114344657,9.59330958209741,13.86506149157061,15.091605826522818,15.17279300908323,15.580817629120817,15.234098909818817,13.312766159428346,12.157348525381545,13.011873959448879,13.771280738250118,12.757721277789967,10.40762997574779,6.529372977042615,0.8376801480270892,-5.253521238475032,-10.88148225795092,-17.475496568609017,-26.331479703459195,-34.9918534079155,-37.42155604055375,-29.156063746012073,-12.919185666559235,2.6771344930861627,11.309429813090723,14.63218650665355,18.15189611473365,21.848647721008238,21.117910508318687,17.676462560606616,16.316534040688687,17.774007903602097,18.902967536483903,17.378127919078267,13.524669327121991,9.154909029287278,5.4576847187139235,1.8532324761923453,-2.459218532792668,-8.603781304967697,-17.83078029699661,-29.843435392524523,-42.26640767128352,-49.98259820830669,-45.77349828620008,-28.92166807120346,-9.580233592808044,3.927988943350517,13.000084018923568,19.80292408392967,22.055925237106702,18.57133687641206,15.660634622542254,18.759252304880643,23.46674789352864,23.8600723322994,22.294766130608867,21.619620312354005,18.335582602105728,11.806886665333668,4.9751703210330085,-2.3249114135373317,-11.033189868751261,-19.00660889436553,-24.536932158709366,-30.795488847177772,-40.31332985506138,-46.64825205119452,-40.32907123475452,-19.45900061114774,5.121736540515437,20.0346231962922,24.252351254750884,24.627210990559714,23.006695706980157,18.994108819539807,16.315078620492976,18.169779650825177,21.512745565693862,22.247241270234156,21.471771138512235,19.623280147758177,15.397809913631868,9.300292920904893,3.118048822213959,-3.3491658670841167,-12.27231930517415,-21.49055183107716,-27.55981176703078,-33.061998559393494,-42.72004061912729,-52.39981230100523,-52.002329376217524,-38.3935262912775,-18.20555114170932,-1.0403444985724222,8.978967009231436,14.432540138120363,18.183544321750894,20.683062777483823,22.85826783773672,24.215752954364017,24.806000354027454,27.120521945724175,29.77987904645701,28.73195533739529,23.864225414650786,18.206624729337875,12.004547530582741,4.826392642709335,-0.8138043193863486,-4.868783132097488,-9.89853154619703,-17.128564063886873,-27.28355707113844,-39.18138668662365,-47.15808338069206,-43.71456315260095,-28.10025122143794,-7.6697109006331345,8.68101064820759,17.01275458799939,20.696567112355336,22.42037378026696,21.134572445064958,18.357012100893005,18.674768369986808,22.428547659828595,23.859474536667342,19.78209164633688,14.42934494534283,11.871601310501388,9.543956796486617,3.3196905373733796,-5.6899193583108945,-13.102218047338388,-17.484970114621365,-22.182904383566626,-30.80493746305418,-42.01917886483561,-47.43823176450748,-40.49871028595289,-25.174047549583786,-8.109297779230497,7.398714821936643,18.092290112004868,22.792709925001894,23.202138286588944,20.81428305392118,17.749520245882852,17.25337749246063,20.494504807574558,24.6966220257618,24.997027895878432,19.82580888831439,12.134104775747957,5.645231052896779,0.7022366866407725,-5.711696098661548,-13.283401519212063,-17.29636593642527,-19.337742988342878,-27.306246680853402,-40.46782151697817,-47.16307487941662,-38.77292243976495,-19.585317587003594,-0.12894483906108206,11.979788656849529,15.748293848848924,16.951307719482354,19.731861910221536,21.4791356056001,20.599468458130392,74.0,117.0,89.0
20.765894883536227,16.949479378527336,12.51682374673896,6.018257509330581,-2.2928288613699004,-9.839593179526378,-15.164784884266316,-21.221711135990812,-30.912680587033726,-41.53688192330437,-45.64475117154039,-38.12932295134375,-22.87596506908329,-7.432533236430236,4.167621146893666,11.201378443589391,14.472686097415233,15.128425437914576,15.258407124903112,15.646957905355626,14.785874471031432,12.770187852420321,12.250787985379318,13.359456211727048,13.666635689429066,12.1889059634009,9.487802266273567,5.032335985747633,-0.9590439045183755,-6.901211757799443,-12.592207795494282,-19.81755518953829,-29.082630597785034,-36.62013884472646,-36.17560298179202,-24.956090109587176,-7.9486150004525085,5.974896391777907,12.5581840261799,15.462255569607974,19.419020207419678,22.18495187886324,20.15527598682277,16.935851876236672,16.548910492120704,18.290408486352163,18.76185402279035,16.440687432255196,12.226511737518253,8.020020285048172,4.4476942390862275,0.7143770473744455,-3.9782344933041793,-10.92705116484784,-21.08113849820511,-33.55131129592614,-45.29788756754717,-50.24740702013568,-41.90859816684245,-23.031364282273856,-5.002620842670867,6.831975127489146,15.22771392399632,21.08052903092023,21.49917856967671,17.277630628486655,15.957212409001212,20.316810610904284,24.085453309341073,23.35593732756109,22.092804072355943,21.103015815883627,16.644009644815704,9.79268670453433,2.9993136052905913,-4.737591385632521,-13.550081187256508,-20.817146917856988,-26.035242149423947,-33.32168735297341,-42.93243267982695,-46.427804865684216,-35.54695697191047,-12.02074340123654,10.750442212532562,22.06714984512176,24.51976135979771,24.441140751261138,21.99763568998954,17.86209489770612,16.390689176795206,19.244737205418932,22.023496746794535,22.083066351448796,21.12090745039568,18.660989762754927,13.762497226510838,7.451182838867153,1.3951865278548459,-5.65960691132985,-15.115596080561525,-23.595085479205146,-28.935521830469277,-35.37907544609978,-45.9702997199317,-53.67022902830853,-49.28083754851145,-32.78897715585208,-12.594381409860778,2.5585149018892688,10.841547025368564,15.651166341251196,19.01004274088701,21.312087899493108,23.40504410863144,24.351941226700397,25.244192869445918,28.04981148571675,29.96981713033724,27.588895663781987,22.21715139662804,16.543992497214475,9.951374623150151,2.9365174845790887,-2.0301154444408005,-6.141008635314794,-11.726300699916273,-19.749594139830705,-30.695969008691236,-42.253927330522245,-47.56038306702682,-40.23422288734839,-22.269241082509804,-2.203011565736162,11.863282776843675,18.339573334642317,21.414778300599075,22.391186645410947,20.288952413451153,17.97127221669008,19.59268192394935,23.363204923276925,23.173308227664688,18.08539477087996,13.395482911516282,11.409397448701323,8.216946164483929,0.8155924936178348,-8.16101616639624,-14.598382269847962,-18.606122900524028,-24.1944655387142,-34.03933741250592,-44.633595059431066,-46.71578011675501,-36.57858496586527,-20.235327042803537,-3.3412484504164923,11.118043822191785,20.01124895152698,23.270372469607025,22.74199741573675,19.853334961026558,17.225403838002386,17.84844978599816,21.83032687129485,25.35407641989557,23.999182374010058,17.66944244543162,10.03261130596758,4.162989214632363,-0.8792958346470479,-7.978267700059714,-14.949669673146179,-17.74363940811019,-20.786071650289045,-30.975554764042247,-43.644152802495434,-46.34891951386653,-33.877220555814546,-13.563108396758023,4.32140716437201,13.75927564797426,16.044138088561375,17.618242899571115,20.510426146233506,21.42764592179448,20.212197502615417,20.248399491999464,23.225346494596913,25.84635770159132,23.34439955337421,16.44592643057264,11.777336380451514,12.752583863459972,11.735659341810385,1.041996649963948,-13.298808004449612,-21.768153021967706,-27.44506268707951,-37.63140488067881,-48.357808993645904,-50.01168791867494,-41.16020349517563,-26.10307919981998,-8.139401333068129,7.330065457334451,14.957512179547557,16.869980420054787,19.594651140188695,23.918490485074493,25.665910411737183,24.841845923656518,24.61300371748052,24.317258157849434,22.28220160435139,19.982508024405256,18.357268091763277,15.174438116306746,8.650694128002923,0.9686187337830936,-5.5858560111178965,-12.768325353947981,-22.176553704452466,-31.77022693945027,-39.736280074038895,-45.84903914948187,-46.734947893868,-38.15454216209954,-22.367238509410043,-6.793205146343698,4.609168125310311,12.41261913386712,16.39383181642255,18.860997086242193,24.128950853984364,29.315612888727983,28.329647744085865,23.90529279895623,22.934483392515432,24.107627691519664,22.575592753443352,20.218896507048665,18.381246697400233,12.853715037172037,3.099821305322,-5.0911038449415145,-9.776262155681458,-17.304697947681458,-30.76637583777284,74.0,117.0,89.0
17.275903781175273,21.879606977237607,20.490433294269124,16.2670549732319,16.80353313186909,21.804824679772654,24.254433102466102,22.842025071500515,21.957844232357207,20.245460138155938,14.74509082592121,7.817042454847927,0.9351856618264719,-7.26511921776789,-15.923576561564207,-22.412613458703945,-27.734841118882606,-36.114399516107305,-45.03747654380967,-44.93968188418679,-29.61434119583318,-4.667457736905224,15.315531446215315,23.333122974018522,24.640986465450403,24.043895168169218,20.81539659686234,16.970402741455388,16.8821456286627,20.29523815129497,22.26566073521005,21.86268784597383,20.644819590070707,17.48094438428044,11.999086103943029,5.650835306846877,-0.4053488654752098,-8.216861884862181,-17.867828922180568,-25.38209693783418,-30.407503576220154,-38.128545790567,-48.99426945602161,-53.85903027183922,-45.49055684912167,-26.872058930608127,-7.458917218757676,5.545592186488887,12.430813575294874,16.76328248785459,19.734522112894588,21.94845357259601,23.834577327198897,24.472037867321887,25.88545380796078,28.909239667800684,29.76211973710366,26.183412810168786,20.579809665052483,14.791976666195751,7.8398708275172035,1.2557654132606422,-3.1713183168835903,-7.54995363742502,-13.75461184281883,-22.63357983770681,-34.19502380110301,-44.80742874343965,-46.841653217163184,-35.82023009706048,-16.26745302583051,2.717803031140831,14.361351939674671,19.41433383208338,21.978958050798457,22.069151991095932,19.411503373175155,17.962049885150723,20.72757457679931,23.92405199056396,22.026712562624667,16.448590451453278,12.63823218595283,10.838115459693325,6.4918370343626774,-1.8300611135458893,-10.387052890772878,-15.86161932419956,-19.869760198767594,-26.602073802467093,-37.38849464393641,-46.49491194122292,-44.89104642187343,-32.156332611147995,-15.273913708221208,1.2372389684589244,14.342706353647277,21.44852424766767,23.440246188321037,22.073197352844232,18.90893303445268,16.993787648013633,18.752796866471513,23.134482834751903,25.569671708300262,22.558911856965647,15.40862176830236,8.10802233400696,2.7713923201402775,-2.677573508543336,-10.256621508284987,-16.193083808152185,-18.185161823754193,-22.927418007775245,-34.911089017432836,-45.933918170693126,-44.16792541577646,-28.317517335939808,-7.771579455702229,8.016005656637885,14.898173100040703,16.318750850202562,18.44225807755109,21.091554442370466,21.17142374157957,19.941940670372816,20.85458890188417,24.269509430737077,25.76416350196179,21.575556320842335,14.54496835581636,11.615555262986454,13.181899632291,9.653640705711524,-3.2827048609744174,-16.48423690332681,-23.273101286375834,-29.836332352326682,-41.14400153341101,-50.04394666629935,-48.35065336229195,-37.29060497218695,-21.040331358539273,-3.1053835656588995,10.42448110140994,15.793944844168916,17.373897598785014,20.849270462697348,24.82516557757247,25.530402536286225,24.651647683987438,24.656035527969614,23.892254016031213,21.54589701348838,19.492925508653823,17.735200723533406,13.61054247909406,6.3851905806780875,-1.0296706159253206,-7.465904000341296,-15.28874580416296,-25.064038974402717,-34.24138504210152,-41.7522804356997,-46.88899930503562,-45.28517073450777,-34.04043190256768,-17.532372926089664,-3.0747061580805735,7.223027505612448,13.954246986371421,17.02984108561718,20.03461208008781,25.974048069142654,29.758111821906688,27.043731700125264,23.12594638543473,23.332708683874955,23.996318804162282,21.788273036621945,19.774809287053504,17.336934363360275,10.283632257133375,0.2989605847434366,-6.617147560756028,-11.343421191424852,-20.71441045976518,-35.01212007435737,-46.57850245071737,-49.23810807866617,-41.5375856324559,-26.537482177458042,-11.908446752039968,-1.2118644258330802,8.338528286264648,17.58867114749557,22.85514024042493,22.80744450577124,21.163660663295087,20.30428109660816,19.180495851685347,17.996639365190564,18.860560008841745,21.574685427246752,22.013788093690586,17.561532702055086,9.142887694285188,-0.41115760224662595,-7.821986450188626,-12.720860295297609,-18.023687697581035,-26.730201393347013,-39.320653230093924,-49.888087185231335,-49.140546968868044,-35.29423257509014,-16.661994332826342,-2.5969798364244254,5.793886042417675,13.550211697319261,20.179200629936002,20.812156079448222,16.21934375580531,13.638107547244225,16.581801730782622,21.39449894650436,25.739910749324295,27.313087285094355,22.451562208567594,14.278058567372726,8.966750107110931,4.9341196131830936,-2.5516967571458387,-10.785949989919994,-17.357584264938414,-25.44632094857988,-35.030680891220065,-42.07762074386486,-41.1252051259614,-29.983609828644518,-12.5489264190167,3.7175958340571524,13.630449383254737,19.32627696026868,23.83080868582153,25.429414265415936,22.70635963498126,18.43861225791333,17.837079494203817,23.10339521361251,74.0,117.0,89.0
-4.318443196934254,-9.11789117811406,-16.00750949875314,-25.765990244574496,-37.64960777569286,-46.624163026005114,-44.96304187713587,-30.665278705709405,-10.326993070082176,6.967209688908049,16.283118557498387,20.32211870920414,22.338570828054404,21.47917635522408,18.639776358356126,18.360367693677237,21.914535049328194,24.001284274416225,20.53955492142735,15.005136158403896,12.086807726172362,10.027466108255075,4.3940226512518965,-4.491604204622458,-12.316334275087886,-16.984141624892633,-21.37981884497413,-29.39922975335509,-40.63133699216201,-47.39045396398551,-42.079137963089686,-27.42036524526663,-10.35123505446641,5.537221666954895,17.033150462503986,22.457068516016697,23.335655160729964,21.238610446256917,18.07349062739994,17.09239392141829,19.904908910797893,24.26806165986786,25.29362225760471,20.753962944411715,13.149409660117845,6.379388551982697,1.3756803720497341,-4.708169508533759,-12.390551923299691,-17.02518368286993,-18.872055446940955,-25.77768220694476,-38.79275015659832,-47.075064636543566,-40.728928687868525,-22.377318646499425,-2.409542494772347,10.911263302593902,15.555541980855967,16.70958717157436,19.331664590977418,21.41863102999416,20.790552840324025,19.872771467173656,21.70860928148554,25.149254411027552,25.157335691303402,19.534503617316464,13.031862741436562,11.918311934362169,13.14377959814244,6.671058924403921,-7.606652491581557,-19.02339828523171,-24.770667178333653,-32.728293518863204,-44.45998219438691,-50.76327419481198,-45.89597138459264,-33.00195144018959,-15.80863902619163,1.5491157868395131,12.76924852783852,16.303764296383214,18.096870349302698,22.166003580557767,25.405889272647883,25.25928744772678,24.574175262557112,24.624364135651383,23.310475478733693,20.850766728309548,19.050963994824283,16.90043355660736,11.755390413214107,4.119543796884211,-2.915229154168485,-9.47766226782634,-18.000755718627293,-27.88370915081132,-36.566709624029926,-43.605846005768214,-47.35739385915143,-42.97289575226953,-29.461575352116338,-12.917898939223502,0.2795376740844017,9.555882422526109,15.155451718754838,17.656691329400353,21.527402078591678,27.634574525554804,29.573837487076446,25.65730788249324,22.771674739131807,23.763526391314645,23.58031815970288,21.05761554694174,19.32826399336458,15.857493502815181,7.427886948572222,-2.18630899129046,-7.908269430630356,-13.354589948771341,-24.598569672216417,-39.010577734014205,-48.394563432768585,-48.05289298482401,-37.655460907425535,-21.95166790530176,-8.476148811820154,1.518755279859492,11.16005636981319,19.69018920053094,23.28466901874664,22.300685027527535,20.854991550856063,20.052680605714325,18.764021663055367,17.9551848170529,19.59253190196166,22.133359723892198,21.233681873166724,15.445491185878016,6.334053415403855,-2.8676175504516332,-9.406335628046639,-14.05364888069652,-20.096041210157583,-30.07736911285921,-43.02348915385189,-51.131946235454265,-46.26311819585636,-29.905231866424135,-11.877405226051224,0.20215244946284922,7.945817867561759,15.81215385991556,21.106871969477147,19.770996743425147,14.931418865130919,14.018783776994125,17.955855750070885,22.7353828587394,26.679222496323824,26.60729711813108,20.09796706667224,12.33027414854812,7.948016319162119,3.165572038655015,-5.105777345982136,-12.743691894308862,-19.43574911573643,-28.18465301167813,-37.571517373220225,-42.83065516037348,-38.889149060214166,-25.294644040414692,-7.3861436044180815,7.27054839709974,15.49828906492703,20.74907228553885,24.725528900188742,25.03784219877062,21.423323176388756,17.65802800081105,18.881792382017366,24.937021196358522,27.61137301130153,22.53235271674258,14.176295217383345,6.936945212398641,2.7197293533527835,0.3020226681376647,-4.062939478593422,-11.324403012890333,-18.432869485115177,-24.42859324888675,-33.12272094913852,-44.44039875896979,-51.85096728819647,-48.43935807806876,-33.61995987565917,-14.55717502563651,1.0574617699628917,11.563644201001065,19.511908384406702,25.210210095442008,27.457086934594727,27.80521772009659,28.34909154340956,27.314857292645257,24.71952984581652,24.815059279688374,26.509519122547836,23.43460283706105,15.605464721734924,9.182036902787098,3.474814097850129,-4.548055339913758,-11.90251032384379,-17.256051992187775,-25.23181976579941,-38.610965073406824,-51.49773023939112,-55.55885706628517,-47.532455802983364,-30.099332216468383,-11.949153276913643,-0.9560714551489078,4.9322469682375285,12.236636537149765,19.630251083210407,21.672376696739082,19.47281474946106,19.749680311830804,25.39644123086787,29.740069137168177,27.055278052649957,22.678889969958405,20.736008474857982,16.329104937926665,8.540431956515688,1.9562538084822967,-2.612696951716205,-7.451409620370042,-13.742079695894233,-21.815839587758145,-30.92229511510675,-36.59457204424393,74.0,117.0,89.0
20.3819455800508,20.064034831150796,22.72992219044021,25.720899676459013,24.027084105611774,17.403273524716813,12.040385846713436,12.48114565361822,12.380983541416722,2.9424463149450846,-11.619904360788956,-20.9988316053868,-26.508646816544186,-36.02612710616201,-47.28915789644669,-50.474424486201194,-42.78317869050801,-28.35227511501856,-10.53869690637364,5.657578653814882,14.408898684735348,16.68592853550153,19.069915260519043,23.408141784923313,25.652372888525054,24.962254800445702,24.589407966868414,24.453637195604756,22.620004000779446,20.23537877489022,18.594305443236543,15.789935534947544,9.667894183194088,1.9346775735231905,-4.742499326872856,-11.679801677741441,-20.8437518249914,-30.578531838159694,-38.763691222701915,-45.218301596756575,-47.11582499147777,-39.844300139748015,-24.624664059384894,-8.637927018725712,3.3105034075253514,11.586316446695411,16.056514156688213,18.42438622964096,23.27485579038292,28.90633319122072,28.825808843280996,24.393899903676775,22.81178401603898,24.05605225956515,22.92602748360025,20.452920243598502,18.740179361388048,13.90655213137339,4.456142117141375,-4.2690842652906555,-9.156057195147612,-15.922083875870513,-28.789414740658458,-42.55339639823632,-49.375006681141606,-45.995035617158806,-33.299110775527055,-17.608571578378946,-5.368058093535644,4.255371321710573,13.915990825456158,21.343689651025358,23.299162651917396,21.786019902391427,20.617123997214517,19.740769720132427,18.376811076933915,18.146295433498153,20.425085049932715,22.376317042175906,20.028355635294993,13.039595701452576,3.519409927280468,-5.074905003837857,-10.813828536126948,-15.511172897470644,-22.51383011480145,-33.72921716477506,-46.327690003796626,-51.21958032024994,-42.362948053063555,-24.395647152877835,-7.661257889297137,2.613913756691779,10.175187103337446,17.86866552436075,21.424690732150445,18.396546620448156,14.030842680117603,14.842808076437256,19.366972340406562,24.02567139011168,27.288076656678264,25.293779725370783,17.643083269239447,10.740620726326238,6.88999273353304,1.0318161601584153,-7.561980808297709,-14.594142808604476,-21.726677379672566,-30.995978008933278,-39.77366559351057,-42.78107028434798,-35.806104481878656,-20.229302309266735,-2.523796581493864,10.228241330061795,17.13830529060211,22.10214067374265,25.292668458715433,24.29042081285776,20.114514843202976,17.32844570624033,20.401430321835214,26.455723516775716,26.839650800132542,20.200966731246012,11.846700905823942,5.385730336905123,1.9910979794283508,-0.61921255684107,-5.953732318657882,-13.548011354136436,-20.151706291695675,-26.513769255820154,-36.330461823525546,-47.34324022327404,-52.17026754257651,-45.12407782597157,-28.13444503478644,-9.484846061193888,4.526969631803659,14.02932313672988,21.46520580032685,26.20899723725779,27.61699578042885,27.945603710286473,28.33509667965804,26.548430429739255,24.34608875109636,25.406829414257047,26.328574073482283,21.379822413092676,13.447644327602314,7.68260975731962,1.3554798194623465,-6.924739781008467,-13.53367170984369,-19.029454921859553,-28.647407455284355,-42.80182807447638,-53.83724209243413,-54.48098525552443,-43.17351550208097,-24.46286416311062,-7.9098583186638365,0.9336842188241865,6.757587572267057,14.642770490381816,20.892288489966766,21.214044749738346,19.00564353492094,20.961614531267177,27.218608826044807,29.631445857747984,25.59080508569737,21.98490548487137,19.95077538553343,14.224343006518549,6.373880412202573,0.5138750135252043,-3.887322731187758,-9.115216653264623,-15.864939671309328,-24.481438838555224,-33.13871354502613,-37.024041858922516,-33.84967256843802,-22.966547015624837,-6.077591977432419,8.791022785145312,16.262653252301902,20.127603001333735,23.076694172000018,22.970434035033087,20.403765670421784,19.012217902931308,20.326438569924196,22.414523786670678,21.83590779483885,15.735446331379999,5.2049511516264,-1.8725420475924373,-3.047675254034527,-5.505275499319476,-12.365614776588798,-19.72228119361347,-26.033817661272057,-34.52635497082463,-45.32935331660484,-51.439399766201824,-44.42518471481843,-25.771257749484228,-4.9658976053207535,10.101316554990166,16.82998045115513,17.79939049174088,17.516577730413292,17.916732003883283,18.640398696868125,20.493505420103006,22.554487601111365,21.906406443027574,19.649068636195732,18.411152415560995,16.436755675859633,11.490164095334656,5.048288408765822,0.722683325152603,-2.981361037454053,-11.12068441234619,-22.337177210001848,-32.923697491820185,-41.887537974682274,-45.20738281571298,-35.90508027222171,-17.57323186445403,-2.364786708533327,6.260250220129168,14.166659240126494,22.06811550326542,26.038051522004924,26.417204007073614,25.28224607207663,23.88624648448978,24.4799833381473,26.82695629194036,25.918633082371972,21.261685684401577,74.0,117.0,89.0
-33.071631879097886,-45.47483450851009,-49.485435858668424,-43.11582796965075,-28.686934840358152,-13.61752379601317,-2.490545680697097,7.039613328133335,16.49400405342059,22.495626647413125,23.00873021202238,21.33793075531041,20.405771964593022,19.367713232903824,18.082444441200415,18.582868831398617,21.240464495654265,22.226672712493905,18.42491790007891,10.409268061271206,0.7929130497827751,-7.014827332489854,-12.124318522571627,-17.17131760473969,-25.310409795959742,-37.55274593074313,-48.96511202308145,-50.078669925594845,-37.65997968498948,-19.02707055457811,-4.059052472265795,4.809257939199505,12.48055326882249,19.56089613901507,21.134612701506775,16.89320442998656,13.63691285806738,15.985176755963462,20.762589879344045,25.231221062647673,27.433350103127623,23.445631939848262,15.285810917195853,9.472407360664295,5.6241100125576,-1.3830836272425864,-9.820019041744075,-16.459986018044674,-24.229968511176185,-33.78429815570228,-41.490036502951384,-41.8556565767695,-31.970211528787104,-14.977609529003747,1.8765150911415625,12.657788304657375,18.65241119710532,23.3294912353308,25.478416450312615,23.255499110398766,18.914972187017696,17.5432010035492,22.224274412947484,27.43442866012525,25.431209654052402,17.750660498962336,9.68561283537909,4.1165359042015375,1.3408586692171636,-1.8015647026553732,-8.057018802163158,-15.655962303681722,-21.818968553075514,-28.940778865871966,-39.67348227152758,-49.71940088818317,-51.44298915523545,-40.92926203329482,-22.528508914979206,-4.848294091558697,7.601326518831333,16.35468993262613,23.192123799791112,26.90334077641707,27.692617605002447,28.130513905351652,28.099199145956586,25.725054582999483,24.30798361523617,26.0108919352956,25.580180650932427,19.05504590273517,11.54995851741731,6.117642270291707,-0.9762544930512405,-9.121337786496305,-15.03186512884715,-21.184724643469686,-32.50665864762824,-46.72505703581229,-55.266655491863744,-52.36920086500995,-38.153731335050246,-19.032858853431737,-4.599822801709195,2.568752985630823,8.833942663996227,16.913582527816285,21.5960371416335,20.519849476698514,18.93326230273812,22.606148206668028,28.673395777968718,28.8979186929102,24.21877552754379,21.483053451013,18.785199162326546,11.927835658101099,4.414526714311309,-0.7954817467080476,-5.248612570076159,-10.902385825335369,-18.157165713561866,-27.181638127070475,-34.92771785510565,-36.8570854488572,-31.523438519535095,-18.452821105471735,-1.1560146857662434,11.667769531669196,17.501676041288533,21.13566491709562,23.43888689427857,22.327322252913998,19.743631991513478,19.142944213338282,20.998394043398513,22.667238371415017,20.726133761219135,12.88363711463506,2.4496429814180662,-2.5834869951162776,-3.303072472303563,-7.143354689856771,-14.632744386469025,-21.54752491012625,-28.13095798729756,-37.588865276856964,-48.02843363162597,-50.94531705903047,-39.865640763235675,-19.54652552848222,0.19943595978011674,12.8734004304951,17.49306770715714,17.687096820027396,17.57134177522889,18.085708019561704,19.021007771482072,21.210351402698606,22.708878501005113,21.2490706090983,19.182890844058825,18.064240822233547,15.328000380385664,9.616147922209194,3.4854909870593422,-0.1457842565526021,-4.7878665919753995,-14.25369398650296,-25.53783907842177,-35.72759410436738,-43.782258628389165,-43.95300324249627,-31.012299958236795,-12.424728790075285,0.5962341214080568,8.396561660909493,16.645458650932518,23.701719307033464,26.406624361728802,26.188083033602318,24.830552625971798,23.75002939747514,25.163975323282312,27.084460504373403,24.782986903107982,19.83463387172012,15.811351176865921,12.208904855845704,7.743004701168107,1.437511333463253,-8.795560500168019,-21.420915155434614,-31.866751264120563,-40.8196955342641,-50.33475188661353,-54.361998044041094,-45.02486968080172,-25.70871599944647,-7.541161362160515,3.175235338281735,8.888825977267008,12.780570819309384,14.579350235832157,16.347514720428403,19.291748225447538,20.236861034220233,19.259781074525527,20.783639554389953,24.763941742698997,25.75685881552086,21.092722651872947,14.40672322895712,7.927721032270964,0.16394944413300183,-8.60808223622987,-16.275472133039496,-22.671613941181654,-29.79534434565841,-37.60910021617364,-43.19861820638992,-42.862266313113494,-32.650201541636974,-14.519220541352501,2.1834138807994563,11.841204253011073,17.994585025802635,23.68520615253799,26.432477498274203,24.822395926397682,22.741449539291445,23.38389833512692,24.378023631616575,22.474493859152197,19.07333695943225,17.045733491233435,15.583157046112255,11.44053677922071,4.314972888733832,-2.3775624724912165,-8.271014617868568,-17.405158883838837,-30.36334996800749,-42.42672397430226,-47.809249224689616,-42.29984511393918,-27.656507965433335,-11.52455761445079,0.41469100575529333,74.0,117.0,89.0
24.11523196972857,27.725670098774778,23.529820362288657,15.290251147724131,7.7454598786363515,3.109313869550739,0.6583020839507708,-3.2810367694169518,-10.284182954399055,-17.596175946780725,-23.56207485470343,-31.727751323220723,-42.98080237087031,-51.37645844753647,-49.63254376523272,-36.043608949289556,-17.016480854745325,-0.6945191783299458,10.36758498522341,18.54967753241769,24.643572411760758,27.33202971097915,27.76056579879589,28.30031789571218,27.614557555927817,24.989919119978392,24.594422550778066,26.431412645271827,24.23724827068912,16.671321268155236,9.891357114321725,4.365780064484829,-3.4194419163801966,-11.080835345397317,-16.525681414571324,-23.831644253230746,-36.656120004251186,-50.14657049750842,-55.70414073982697,-49.269979027139996,-32.69435314694676,-14.04643522766723,-1.9721434008585474,4.161586663349492,11.131192816672574,18.8731575907701,21.75839972802,19.777391200817597,19.36651264226367,24.5026824741318,29.558061340899208,27.70173211210338,23.094461819902772,21.003326563105695,17.195137742394785,9.592392422879684,2.6823736835968073,-2.0406556611566713,-6.7269973649955555,-12.814785331160907,-20.62474660766965,-29.790301312118338,-36.19870535500058,-36.08713356922929,-28.526748097359217,-13.533201872032182,3.338692262324119,13.897586913230374,18.60067541436824,22.057378787502742,23.476306735673717,21.55236807890817,19.27227241685576,19.500570131163197,21.658608166946717,22.614400528487206,19.08785052400705,9.761663922207578,0.22795397979739096,-2.8820932664349237,-3.8839905212037587,-9.12279926828096,-16.81061843594584,-23.31866706943041,-30.50891764704666,-40.784563325321436,-50.09141107741341,-49.18862485048635,-34.504904083108606,-13.397326749251388,4.737829783912445,14.94009583276512,17.784131910462193,17.574983317155127,17.688504615457376,18.270939682770535,19.535027645068805,21.875527036272857,22.57132097158373,20.550702369856133,18.832923144679572,17.568859616720022,13.942441592692077,7.696905846819533,2.1903121317564955,-1.0948485391220486,-7.061309693825107,-17.52845713719427,-28.624361631277576,-38.39631412876386,-45.028530505032435,-41.49565287208014,-25.61629677204545,-7.84121816134755,3.0794463442563766,10.642931420438808,19.031212742103765,24.929431477010066,26.53558517034818,25.869823571352185,24.386862102603967,23.854854044468453,25.922355832599237,26.927133467158857,23.414964103447737,18.523229537999146,14.815368690506997,11.024900751403171,6.201165018715604,-1.0609971789430226,-12.423011304483257,-24.76818497496979,-34.434236907211975,-43.59493535032818,-52.52136198000616,-53.150089530330405,-40.00884707094029,-19.884705210501114,-3.6567019528725324,5.118158079467228,10.190308917166485,13.499416756694316,14.942690187518696,17.175870959438218,19.902470351318566,19.9689261421843,19.297390725391363,21.874810618546032,25.606791474441085,24.911626840210932,19.164554899913938,12.557395484219576,5.870180305173441,-2.3582045904492577,-11.008297037972744,-18.175842118538046,-24.585030464041616,-32.080320556185484,-39.60145620815233,-43.907068626671396,-41.01856479024012,-27.894278563769223,-9.103434691561622,5.658044927045468,13.740862952923427,19.71475034603393,24.945040149381555,26.32196111567707,24.038307581472367,22.654034864187647,23.83336456762478,24.161422497197094,21.483718111864004,18.29648906465884,16.702565680929016,14.776937096623168,9.56407720234437,2.198742321931299,-4.011706926454969,-10.42097498607382,-20.904725107647117,-34.198939271234714,-44.91532228441679,-47.40892507041004,-38.72889614043727,-22.789780283865525,-7.550712714317587,3.0084376559148702,10.663203458517442,17.831913439604985,22.573242561522985,21.99686484771264,18.02450156039044,15.462891358662432,16.24486423720346,18.753515995542937,20.47219317714186,18.826332069933876,13.406277550872161,9.333378743902692,7.753347482362371,2.201017045666945,-6.936590104963098,-13.433435122991503,-18.70280507455807,-28.22640369389649,-39.70622157730528,-42.759790531803446,-32.61200911772779,-17.511532474597747,-5.2847172520675,6.047960335312531,17.257764397948478,22.729093794421022,20.142579199043574,15.93246928692836,15.758758294307219,17.04620270650424,17.717597901277244,18.759329535905266,18.015599113851824,12.781306515001004,5.4018000058961055,-0.5948716384805534,-5.599370538884561,-10.784230541896235,-15.992869225705295,-22.358660149449044,-31.055620151771333,-40.69793391171201,-47.22156133911141,-45.32039951388896,-32.81964838678758,-13.41538791596477,5.558153947972012,17.824485931688052,23.2081163857356,24.832386887275657,24.757271404648826,24.94160373321368,26.971027690774008,30.495653040638565,33.671482269960215,34.04306739462816,31.14287475183605,27.35149526469585,22.164283526419638,13.721345178626178,2.189636511121041,-9.149149991505041,74.0,117.0,89.0
-36.89967738100507,-34.70165808330793,-24.865370290380334,-8.425578259554706,7.228972487868795,15.60600386009004,19.65053310358931,22.81018318504774,23.19470597787771,20.752563544722253,19.036012395133746,20.0369777950834,22.216323086771503,22.182410082158267,16.90991830610432,6.60235147765008,-1.3568568934687564,-2.9932993455595134,-4.890325669495685,-11.318712282211907,-18.83956122255122,-25.143289851624395,-33.19224359418945,-43.94423568586083,-51.261720540077995,-46.19259340641671,-28.6020737688298,-7.528877224583008,8.577008444317318,16.36441964326325,17.829029193134897,17.51737753205021,17.841168092002388,18.504383925870442,20.17133141398077,22.391350479606746,22.16528286215809,19.908118108424212,18.54500211360916,16.85390028117186,12.310033717676585,5.847079438322632,1.1443629152973895,-2.299617930567206,-9.759502941261282,-20.83034277949454,-31.592958365344828,-40.857820147110836,-45.39312641538744,-37.89907791702984,-20.077930428433945,-3.9353902962065517,5.282980987399617,13.03048357837409,21.185035134923897,25.76861862371429,26.4862896648212,25.480340349600297,24.013911464712454,24.225780870395358,26.593334855994737,26.33054458582028,21.942809557009227,17.345482567202573,13.800372140966358,9.760017148637012,4.465280577393827,-3.944790764055194,-16.13989876698409,-27.83585095228314,-36.97273796698522,-46.42559608356284,-53.99666505841716,-50.689287029683214,-34.38267847631009,-14.443580167003184,-0.4531695521183968,6.775342200538368,11.366327067173577,14.02623113647284,15.400681063827971,18.0748284989011,20.243835151467092,19.61982809997449,19.658795679722694,23.090331428609158,26.039955471711732,23.601027191888022,17.201493817937962,10.718438289051427,3.658723636949706,-4.921755862440713,-13.262867605972158,-20.00201180000425,-26.61372585267409,-34.38289165988392,-41.325786202766245,-44.020164207984365,-38.26023461619249,-22.619633851470045,-4.084953521866863,8.517882734546438,15.495287986888012,21.41341480649348,25.852491071351363,25.868542610555554,23.354231992120464,22.822819534834714,24.200581213055692,23.653222900786034,20.456002257014482,17.685016606624714,16.341563309274786,13.661498293382252,7.48786966730148,0.2198201168077115,-5.639354868532739,-12.95632908392716,-24.66628295795167,-37.81852253987427,-46.70416010857712,-46.02475091127834,-34.51821432707481,-18.016263347139013,-4.0087781146054695,5.352876518055442,12.78821566398354,19.61831842736517,22.989497710428658,20.973743956088008,16.974298748295436,15.368908657198368,16.90699452608288,19.43826268234126,20.45499524017972,17.50239437248272,11.838759052130976,8.85936137241642,6.785577766784973,-0.38256792610230084,-9.217115746961923,-14.802827745759908,-20.89915300057277,-31.732164776884282,-41.913350113212154,-41.01592081936697,-28.2383159047889,-13.623056321241952,-2.106040305251852,9.484289577950884,19.692733121800494,22.66449720617388,18.694746288697715,15.462039603230664,16.174008027406447,17.259279500165267,17.98817510042886,18.909165473530326,16.965986663237516,10.659292269434864,3.475003585575523,-2.0613540650591884,-7.0786399196723275,-12.277280895253874,-17.625495789531584,-24.640893636282232,-33.87408048230501,-43.1439832496394,-47.733955178715014,-42.74453799911097,-27.63222522271752,-7.538720931555468,9.930142099583124,19.949981624951292,23.948980080010504,24.91149562084626,24.68515257370913,25.317696072302887,27.893874981641822,31.559077591527178,34.158659234186054,33.45189339282835,30.069347812773497,26.109706084990368,20.08850687305176,10.645510462635947,-1.3681094223153027,-11.492813286951497,-14.991386258777279,-16.752170086336744,-26.332573878803775,-41.33589897813211,-50.49142518090663,-49.010369769319276,-39.5078767209904,-26.239933569864238,-11.712148344525659,2.6921839029077947,13.984754935204789,19.504980195232452,20.28637480000821,18.920267732355274,16.872606809461832,15.779573234531915,18.463102501539247,23.532584352908803,24.87674994240102,19.649419799621104,12.317124278274257,8.09564907956938,4.690130738214978,-2.8205802732699423,-11.715768472020844,-16.958971386352708,-20.774759587553138,-27.576260582497408,-36.23345779878412,-42.118677307106225,-42.09146143810571,-35.36215797605874,-22.25915545353857,-4.252793188438086,12.857951891986767,21.74505296306091,23.73409586367308,25.112848212485904,26.859900866850694,27.678457511015893,27.94822326609666,28.79616902433598,30.88630632833959,32.34111012632087,30.048647910178875,23.833351680648068,16.84177886040626,10.231537217193488,1.8183014833330031,-8.200046331073878,-16.61923609010291,-23.150235094990123,-31.71062554005517,-42.91916346644701,-51.034325819480564,-49.668691816676876,-38.40356061829781,-22.42087388779739,-8.179685205081718,0.9199044075806966,7.898347518628596,14.25481020809999,74.0,117.0,89.0
20.48096725463543,16.278835824696518,12.728136470958649,8.404885814273817,2.4665740467039616,-7.194056486241565,-19.794136915122508,-30.64212128330564,-39.579060700300936,-49.16338837658726,-54.507060758812784,-47.05241795988924,-28.45655845045423,-9.56713296731337,2.1469320406335415,8.25136884179742,12.37911668201983,14.418970781532492,16.01102177838129,18.937929258419864,20.29824052786743,19.33277125584044,20.358368116931324,24.27457358175517,25.970044102291485,21.93913304238123,15.27510312823641,8.830818648929645,1.2963726332163366,-7.462021098653428,-15.359117329141617,-21.819047696183784,-28.766259934719308,-36.62204985180805,-42.70371684867696,-43.4149125608076,-34.60944335448536,-17.082585318989132,0.3568757887449697,10.879639251673714,17.205169459135305,23.01134351110329,26.34777631283663,25.181180455090534,22.874996963055874,23.181588240055714,24.38038959382509,22.891359137289342,19.48310619705381,17.221947356379594,15.866848645604847,12.214440266258444,5.317042686715478,-1.5925366022490337,-7.387975904894073,-15.908715054442334,-28.561446092485646,-41.08143262129281,-47.6695401405047,-43.68145566959633,-29.87816852359302,-13.493338845857851,-0.8915065711156573,7.549166436077792,14.897432481700623,21.111051744135345,22.909165807684367,19.782661567079625,16.150413226952452,15.558595587943026,17.650404984392438,20.000747091457605,20.083588855134035,15.905008471713131,10.560194118551857,8.505260954457132,5.299444524776363,-3.113919056158374,-11.149000997444167,-16.211041857602684,-23.56735590950419,-35.22742466114495,-43.121588175370164,-38.1879268603393,-23.75956431896931,-10.067225848892177,1.1295777371416196,12.84189008586033,21.4748360011746,21.956531673466152,17.348702468203378,15.380955962833525,16.584385607474143,17.43105500803249,18.312607694517197,18.80647503616521,15.508477398284477,8.475639953141613,1.7162793076953,-3.4919463960622057,-8.581935566881887,-13.764707518782508,-19.40694366360516,-27.12641184882015,-36.71340576056088,-45.203910308492105,-47.41564282631867,-39.28114734916406,-22.014370284595454,-1.8961984157093745,13.62785918551322,21.567422358935918,24.448217642502872,24.885828375659088,24.69190574438752,25.869873962848057,28.915985969406407,32.53623786247921,34.34975568497508,32.61773563394566,28.987728797863326,24.686648698249563,17.715711542964602,7.328356054040975,-4.7819907363389635,-13.203978674514872,-15.189899877852527,-18.503531126011183,-30.59641374708708,-44.9928496099741,-51.12338399097369,-46.89237615799876,-35.90197543491287,-22.119421519136797,-7.445028272999541,6.442001585688647,16.20194197433916,20.09191773984055,20.02567008141606,18.355959732469568,16.33140004449665,16.093105994637913,19.92118353787835,24.563205440373956,23.965244310649496,17.434891659371136,10.711270913981645,7.3120588944060465,2.997434038459652,-5.54971128836822,-13.661484163881923,-17.954894639509384,-22.359503818539608,-30.078997951794992,-38.409341665594,-42.789220629615755,-40.83005538025632,-32.206508857284966,-17.414541334607136,1.1704347078943917,16.430435263736396,22.71989277113085,24.02683788900572,25.661680483505897,27.199979369859797,27.773592929712446,28.073180585967897,29.301756609761625,31.515863375648433,32.16357763815977,28.542455581171367,21.755319317928922,14.964812283756022,8.069208435455167,-1.0386840137837567,-10.917318824577002,-18.56279074781584,-25.251559823307016,-34.839592871889145,-45.92141402115273,-51.77844535102947,-47.26421006526267,-33.98258484079417,-17.86642783551876,-5.050448957114945,2.947163232051433,9.94026469757088,15.381786188161595,15.739938701692775,13.718681921188047,14.286647236884303,17.959945989199916,21.05205989387956,21.314358781239104,21.265685790149945,20.00593709688228,14.17195338573414,6.659778872860647,2.2387150269016036,-1.6410958652695744,-10.238650066694724,-21.91962458535123,-30.91006788994886,-36.70932007996165,-41.11179634647807,-40.03917861734062,-28.590794546754335,-9.885533361715432,6.543787133936234,16.612931970299204,23.074652606045237,24.851367518488978,20.725793450853544,18.532791227160985,23.26177267074911,28.21504535641227,29.116536795970998,29.347257938108626,30.091888804281204,27.742893826985487,20.67420180329645,10.88648868872582,0.3733971436011605,-9.256369839334964,-17.50336634258455,-25.758282134396563,-32.00159677676561,-35.26786586224701,-41.98126187372202,-52.12520511087827,-53.97454503980886,-41.46676791703771,-20.982217612497138,-1.5661064317758353,11.503775093822998,18.80534020742193,22.653325598116894,23.911137945629797,24.086764530834053,25.87766744668089,29.292863520601237,31.018706749394852,28.31231888261185,21.778578644149757,14.945719274163865,11.899226433801731,12.056941713764283,9.959209711154713,2.2782302232420832,-8.71304116273659,74.0,117.0,89.0
1.8496422124476393,9.683866766181081,16.936939118892937,22.215944188735122,22.373243196471662,18.562358703091377,15.609242763933256,15.984992878766034,18.412309420945967,20.378953164783674,19.315332635874213,14.187981164952227,9.640538679069875,8.054832246336344,3.2841731324167864,-5.779757966443763,-12.76595180552532,-17.83684318608704,-26.67579479787962,-38.420741790068774,-43.158307140465304,-34.51130216479645,-19.419308889009454,-6.760766945137637,4.473793716946178,15.95488723958617,22.51091411380823,20.78081198048818,16.290412431099575,15.595493158776456,16.92171072049329,17.61553293065958,18.63546463400264,18.357392042402278,13.70347344533069,6.343849773599367,0.10725080896602242,-4.9281868978390415,-10.091183858014327,-15.275708703507016,-21.378718886983858,-29.784649037219772,-39.47885359247203,-46.7335503476065,-46.19598960253285,-35.01903970933396,-16.149407627535556,3.3305619089314034,16.648406557690045,22.769901263220934,24.749676784613616,24.80135735490499,24.826549989679535,26.588775976095228,29.993967600509492,33.360786696707684,34.215128520470046,31.627631433552995,27.882766080068563,23.02325836510794,15.047999588368368,3.833692064435683,-7.876670140313669,-14.287367027612186,-15.494589070225292,-21.10890448038099,-35.07927178540509,-47.88476977481129,-50.85656177833629,-44.20946924872796,-32.081129196767655,-17.926073934324425,-3.2262007717635734,9.83501545492704,17.8989061159994,20.349813753910738,19.63995902814179,17.756259369820174,15.928625369395839,16.79345379291053,21.469655914275112,25.115896456259314,22.506431544466437,15.219988750140768,9.450176801322977,6.445666654357586,0.8780076892438431,-8.22908897171706,-15.223513206016865,-18.970955128386507,-24.268732841991792,-32.64337140937619,-40.236643961263745,-42.91662033595085,-39.00892078130538,-28.528674950112272,-12.212289245650716,6.312737932016579,19.169089439247823,23.274165699673347,24.400518853460245,26.196870676411077,27.448127646403762,27.841906924720398,28.282273159413844,29.910589561197185,32.018839935612405,31.597490748098238,26.755391968780813,19.704718846243217,13.098182775751221,5.6891457635276375,-3.973788446504573,-13.412746358881586,-20.401138015881184,-27.640364817554364,-38.13173577677866,-48.4767603347561,-51.60439532393227,-44.101351573399,-29.32153531977352,-13.618016576086339,-2.375332695517129,4.934615523951719,11.882729559808107,16.024619907861123,15.142445181637969,13.485884469431486,15.141948292707694,19.110197965614784,21.35734365421265,21.23129312060041,21.228623121076627,18.805580412652354,11.895030835483842,5.008786800075414,1.3544280464124367,-3.5462459263911956,-13.566814167015528,-24.960570718460666,-32.775791125127604,-38.18101551170427,-41.66318258666717,-37.851307188214975,-23.551266840875037,-4.515743603120363,10.01290317789348,18.772611251541903,24.24513569686033,24.08233764933164,19.434620706453902,19.337470957065424,25.04400276761436,28.819509355608506,29.074955081040308,29.62767249773179,29.895283251525576,26.133763439628694,18.014340500915846,7.859273918451945,-2.5737767320069054,-11.72008850968002,-19.877738136114672,-27.949062777058604,-33.05598531945435,-36.56906861273712,-44.9625889458961,-54.0528374226496,-51.71716605559069,-35.94073952495498,-14.9213941633538,2.933572118494096,14.085773593470371,20.20839748792709,23.259021347194686,23.94744365445921,24.35619549311819,26.807593125605276,30.133333934884313,30.73559444105522,26.70378169329271,19.630981224458637,13.567200364149913,11.816762261873395,11.93036708801384,8.311962392794266,-0.7752768151434892,-11.734835235278663,-19.580121610083417,-24.843228707191187,-33.19992451791314,-44.599092239575064,-50.22481620217235,-41.91490395501256,-22.810570324838295,-4.472985342088775,5.990795986260665,11.566723597346613,16.168304264486498,19.754026939192183,21.820631120402577,21.73429275899343,21.516570001496788,23.39532416768657,25.444771220998202,23.931676056456606,18.703288920346576,14.206445717073574,10.84959605078796,5.878209592092424,-1.5571224983094483,-11.03952918298548,-19.014924590051827,-24.918918455281197,-33.21286734462384,-42.16317095038734,-43.3849139092286,-34.437706746924384,-20.53361651641344,-5.965048429635695,7.123804940036605,16.96972859945377,22.657103512914766,23.40634829406235,21.605693109861587,21.677159152754346,23.06282974011327,23.9063996438536,24.79545655126436,24.748142564863997,23.50270936366408,20.819195444289605,14.779127458870196,5.956917302489024,-3.3414176639501374,-11.93861918387325,-19.34824083053835,-27.416281273265383,-39.077271883106356,-50.61694247655494,-56.17372093435549,-54.467314601115085,-43.930877788938176,-25.342512214473512,-4.673705091484448,12.204205059524462,23.588736471184134,28.29875937194142,26.951132562096625,24.100232335857765,74.0,117.0,89.0
-10.487508735488687,-14.851911538268697,-16.20990164039709,-24.52686783366846,-39.44821685923481,-49.88497440964825,-49.765107875214014,-41.075124218314215,-28.10941376480557,-13.68007382582588,0.8699063038761529,12.788238994477398,19.10207733077869,20.352946731580158,19.16320322421055,17.14633322913136,15.756499680090979,17.863960802143712,22.93451804774796,25.09356804589827,20.61970954809108,13.170386926706662,8.478307854399766,5.327571523635964,-1.5968907645061352,-10.690211910137869,-16.46379167545786,-20.147646392375712,-26.476540067724237,-35.14024230182541,-41.63532475995214,-42.48255166410988,-36.637709289396106,-24.347484175304356,-6.783618471550877,10.946941505418264,21.09869786774203,23.60722701721722,24.870856281482325,26.67069747990943,27.6197241190962,27.908970983649006,28.604813024054675,30.577029385071388,32.30569183293011,30.626892240594508,24.780294917365094,17.726648181822938,11.166180232076485,3.0856084706698748,-6.889546241354784,-15.6611490285943,-22.25476328484893,-30.35429623265719,-41.43834364452309,-50.40230640852773,-50.49044441592654,-40.31663776472312,-24.584654816109563,-9.786572751246599,-0.06134715700072103,6.9541221830110125,13.587257866551168,16.190356593562075,14.485688814129263,13.568956006530167,16.213911680101656,20.090704944479953,21.4285234745925,21.213691726042303,20.984879797100334,17.171832637103705,9.628983806503921,3.6962835382761132,0.3581039406620544,-5.9412379995409585,-17.020182586470995,-27.64479458848642,-34.44698141997203,-39.545908707070296,-41.588938566542524,-34.71926610632751,-18.08310879374342,0.4046359125242977,12.9720896255818,20.71059209308178,24.921071700573087,22.858281123014354,18.593683433758134,20.70448703268287,26.603380937376443,29.086422292386676,29.100865155414947,29.90981863485234,29.330136617835493,24.142605396553105,15.19458780004568,4.805005271987225,-5.399422590925993,-14.088361131470085,-22.28886937879159,-29.85837750129628,-33.918725411892844,-38.37107854109666,-48.07121746942911,-54.93674820087137,-48.26521674168361,-29.983121683871207,-9.157279825960867,6.83219205934628,16.251444522669242,21.368337388958608,23.653230560520978,23.955964175548154,24.82372476826417,27.82900678639131,30.73350441868777,30.040041016171372,24.825873727760836,17.56641690044194,12.596349484225838,11.913892562249496,11.460579990965364,6.171389186569674,-3.999633109815236,-14.45443760823192,-21.136665756463742,-26.74136140178251,-36.456006814940714,-47.302823500960294,-49.3807427370804,-37.043914620200546,-16.9315854759918,-0.6142291083336494,7.83993673723706,12.959545336550317,17.330550270091113,20.544660377249436,21.999917597841687,21.524159969071583,21.855604917455533,24.135115057046466,25.504214278352695,22.633484294392158,17.16987391378233,13.262743181300918,9.641632630283484,4.004852534550901,-4.18922649142867,-13.671004795881743,-20.75291313643189,-26.937814437492264,-36.07603672486826,-43.624056943429856,-41.682809875195275,-30.669443099727875,-16.288806004065798,-1.9382198867572349,10.349401002034345,19.08534663455279,23.37171129457258,22.92132165058194,21.339469586057096,22.082261334790402,23.346827446163534,24.162018482015696,24.937715685506184,24.476642085262547,22.956857156194246,19.470322049813536,12.404331282145966,3.247454163442304,-5.933936319728778,-14.187973697843299,-21.440526473132522,-30.409918675900485,-42.76431881777815,-52.94714106939198,-56.466279582094664,-52.40100634564447,-39.200328754795294,-19.25446860678106,0.7284870293440369,16.093400423090596,25.686662671260915,28.386373502286272,26.040737952773735,23.671340211468472,24.36158692523621,27.78443950660569,31.557596205142687,32.6561051663745,29.725439917989295,22.978507265596498,15.510526185379732,9.733345101449228,3.6832434943466703,-3.886476169109227,-10.406912121144286,-16.32339544779926,-25.069018370697663,-35.93837035510133,-45.29887071905614,-48.512392181849506,-40.506449008462475,-23.080934850374568,-6.432344626478822,3.906275242657457,11.963233274297567,19.772163893937712,24.20388018690118,23.51204401353335,19.873257517770774,17.524616534759076,18.28681732970078,20.40135086631378,21.455792095546872,20.6859590184458,18.96935109193551,15.397906770817107,7.462474278354365,-2.001225311059548,-10.661809469894498,-18.71936986639202,-26.216125247557677,-36.570405610785585,-47.75067404229243,-48.54684539849041,-34.37452051454941,-13.983676876044623,1.4026382812533984,9.427004749768143,14.293666562759455,17.865038122476793,18.922460454376242,17.691488308706468,17.63807328607403,21.445520763254308,25.832269198271337,24.231297101899667,16.593025191183052,11.119849017976012,12.377353952750575,13.743492947253136,6.607818783821828,-6.280818562760886,-14.939653253212338,-18.450780822227582,-25.453080612823925,-39.43251914110571,74.0,117.0,89.0
14.920095142326563,15.952639940906442,13.916615511720915,13.986427714349595,17.403676372947203,20.81580158992479,21.36160006213674,21.25007398229998,20.409212798170955,15.178183709555046,7.533455907910078,2.658781962463324,-0.9195300699036086,-8.794257519707596,-20.41779840951171,-29.957759887761178,-36.01011629187273,-40.69564188081301,-40.731624629288724,-30.704103854973305,-12.45610910451874,4.747750360784493,15.534897912750397,22.400275588316376,25.013961499609515,21.400163195279596,18.389608027504764,22.42136459455012,27.80147621228068,29.132636917404895,29.242977691175366,30.082259859961002,28.34378789844807,21.82987980729976,12.264212629247792,1.7610732328954963,-8.07490161879166,-16.422642317663573,-24.684722873386423,-31.410181209626398,-34.795233364978515,-40.72633071193855,-50.96521884568684,-54.58040957101735,-43.80258682899317,-23.8266539954696,-3.8382936284861335,10.152781643658756,18.068895702496174,22.29957362559926,23.863366397925976,24.01862103052873,25.500470863618194,28.84998457563636,31.01399958220018,28.94344891988523,22.7640423568428,15.704812755353162,12.034403767897238,12.036520832724104,10.546896435421953,3.5919667348812503,-7.248442436294669,-16.804971366585278,-22.57713696908413,-29.05096206106088,-39.857716377222374,-49.24742961536419,-47.235670515686415,-31.490207561079195,-11.425309780665195,2.514904137578391,9.439993213630153,14.310646238971437,18.391804312864828,21.193635947654442,21.986997134443026,21.39651028137029,22.38670330570966,24.806337580551418,25.170092128421743,21.09189496641111,15.821902764575995,12.342177452611969,8.251967192028914,1.9122386123380946,-6.961418381960001,-16.053265654493558,-22.390146781493446,-29.277688529612988,-38.83587659240197,-44.21998863518601,-39.1860115700268,-26.647165624839968,-12.051843463717516,1.9139397986317839,13.272088979986854,20.833187055532168,23.656394317183295,22.338486755806287,21.319305204077516,22.515397253489635,23.578832096751384,24.437934521081157,24.95516881472467,24.130056450559387,22.25669849477615,17.791929864563777,9.854738464819125,0.5457452439077817,-8.447666016275114,-16.33076138848694,-23.67406922376851,-33.75705097923511,-46.25072432567738,-54.68912400885614,-56.14604006518859,-49.53821467940016,-33.87253722691197,-13.180771788243643,5.71349606514408,19.51287426949281,27.185030228051765,28.02572814922507,25.14642307758032,23.522345210788146,25.139682653605885,28.987877659742217,32.242866955161965,32.25026451098042,28.088132029353773,20.715108644731696,13.682257167877216,8.153784661688613,1.574621909497486,-5.980697568634984,-12.0074554263169,-18.485864203801714,-28.137696514008198,-38.970267234912264,-47.11463272314743,-47.477213154116896,-36.07577868626423,-17.722267491284338,-2.871662377614376,6.241189655933882,14.341752519543473,21.54781768415758,24.505121815822662,22.581997765351357,18.900507058671206,17.452975184042835,18.884920423956395,20.883967295162847,21.405979641467006,20.242167275179334,18.284207404212566,13.536310130051772,4.686933083421307,-4.569789487342583,-13.07694103411795,-20.85504443635938,-28.762933554052683,-40.14212024631692,-49.51863053713697,-45.80886603515277,-28.53630302318743,-8.712109865597386,4.32962147062704,10.979893383646022,15.495655618055563,18.47655973488066,18.704309817276418,17.35730286987994,18.35882158463492,22.952400213130776,26.1947752858069,22.366164804570253,14.395668566670308,10.888525122304628,13.247427055728776,12.711030871021991,3.018795067096613,-9.52509135182645,-16.181905870813456,-19.7212153947311,-28.98678079842856,-43.59502500321779,-51.318154409454195,-43.1441939048618,-25.11351687568082,-7.454003313520268,6.026473320726744,13.250124802257128,16.07326972570133,19.533017551042814,24.03195684199804,25.680949328249113,25.44504894009355,25.812543362123236,25.43412840770058,23.15789922220565,20.109005084710866,17.587718586771658,14.397150106535115,7.433277279314798,-3.4252427420327534,-13.800218534335906,-19.878138297304186,-23.71866636957079,-31.737069097163367,-44.743570491167105,-54.23481105573867,-51.32823476139712,-35.491060336887394,-14.518205707827772,2.7912876567932714,13.276151140165231,19.891267411940596,24.711073240080225,27.86534835562543,28.75338418797986,27.1197330803833,25.914752597129386,27.067641417406954,27.994167932509875,25.880191854641296,21.212545728730937,16.414596857883648,11.898188971902503,5.375621384753761,-4.269087792453583,-14.240801105766975,-20.85388124155176,-27.35988405981713,-38.883806549604216,-49.3618133220613,-48.98076847730559,-36.9931731912406,-20.15421274361162,-5.332724440193425,6.32917347062403,16.185238387270278,21.041729884848177,19.416114381056307,17.21018306064477,18.89677163955978,22.784848632954855,26.16170053492886,26.993867949196755,74.0,117.0,89.0
-10.373193227745784,-18.780846356467375,-24.079973439389875,-31.79893471281165,-43.172927175774156,-50.18575156780903,-43.85049028130236,-25.572258119883504,-6.504892707038785,5.011844246138461,10.910985104267224,15.60064493575113,19.3490870222301,21.668361072853752,21.8318791961802,21.431791052906632,23.05816105340784,25.303473868113304,24.41525265990899,19.451812847892946,14.676802339909397,11.350655947749775,6.672431673760416,-0.4103138464408452,-9.768589094357793,-18.14376251477828,-24.080206817273943,-31.920066408833893,-41.24188984802494,-43.867830126973345,-36.05119933165497,-22.480669385196176,-7.865442540243017,5.5400688785772045,15.878431969104815,22.179797211142574,23.557565945525575,21.802410357432716,21.524386806671373,22.90687453131899,23.79892228151848,24.696392998869026,24.84092120320982,23.718231471251613,21.335802966588062,15.79539536582682,7.1998351102359575,-2.125388087302756,-10.862664536693895,-18.401070841334466,-26.159822129334817,-37.367438159633366,-49.35341642763025,-55.84023434917215,-55.16214991309957,-45.876849167916504,-28.10237282849739,-7.290082506187548,10.258727512654948,22.42737978190983,28.080814049422067,27.339076278045596,24.383292857630348,23.66258488767122,26.116118827920562,30.141309932356315,32.64227692149204,31.489846737314444,26.15515507825009,18.50021363544301,12.014297628820882,6.461286605498317,-0.6417363977526787,-7.902219272670291,-13.640370014745688,-20.955659114279065,-31.310579559057825,-41.78627215198055,-48.2833542866808,-45.39239959323421,-31.012600024302696,-12.728833495837632,0.1543348568747907,8.53882231300651,16.669925866630507,22.945696911318677,24.372808306327872,21.495490976930974,18.142761940678607,17.642588969840908,19.526205834645644,21.231445026751697,21.20147720547771,19.760261921605327,17.367289317826014,11.276879593569996,1.9134237134878629,-7.072831704751961,-15.434870074296002,-22.95941089133497,-31.6792427855156,-43.59659701645855,-50.10669934123724,-41.85184869128205,-22.50224502311777,-4.083807347758086,6.69708300917894,12.389852793592521,16.581675475933636,18.840777160477973,18.329000675538907,17.239709301519767,19.426459446852185,24.35893352471328,25.896280255253085,20.108559467325122,12.627320025474688,11.229053916964528,13.857603450184484,10.811419585731443,-0.828970301084144,-12.181891064207257,-17.115409012026813,-21.54179052786114,-33.060163131543206,-47.16221925257254,-50.603918737678185,-38.3986054969145,-19.711821420403435,-3.0234673363708318,8.786685148755272,14.298416477153621,16.837114845487747,20.903285119602938,24.892554137990647,25.630185007410414,25.4960036391207,25.87525298102753,24.95533368652853,22.275732190173787,19.316401559798116,16.867723109142464,12.88004271982925,4.560842984336263,-6.710233779667275,-16.042656197401467,-20.953829955545036,-25.367736352752598,-35.23150127203883,-48.32960400623786,-54.89316176301799,-47.84261610289484,-29.51871824421745,-8.854221711562056,6.458494708977618,15.424267297513127,21.454400442701864,25.797962463805668,28.407482426248546,28.467874851847707,26.5594124565883,26.05000268584688,27.53027128792942,27.74092996343405,24.693298572645027,19.750976775467624,15.15475500165067,10.333706906922854,2.857680534225743,-7.3219443107182,-16.53811207210784,-22.399067223935653,-30.19997600590659,-42.53683093213865,-50.61194895338404,-46.48900703919061,-32.26115207929346,-15.481032640791343,-1.7405706302422295,9.41405570639588,18.303833963834315,21.085131692273354,18.509357142451282,17.291442854768615,19.934784733663452,23.906729425481767,26.74920897405388,26.513253907093834,22.772097271199257,19.65108837932824,18.708032446413146,13.707519724073856,1.9698476594616858,-10.66272213954235,-19.568748588587404,-27.22079156726331,-36.370066921497056,-44.584558874958915,-47.98000462991875,-43.73087899173199,-31.00670034063826,-13.15371115971038,2.449360348413408,10.81703439253306,12.996629106107434,14.090282026969025,17.739888159975408,21.417373885463316,21.73373017835726,20.88098396442557,23.287631637348092,26.833405488190834,24.71490981133429,17.386880884714298,11.739719132217989,10.44145766914566,8.932767601199984,1.458171217729803,-10.188700799738578,-20.05566516031858,-29.816845942871375,-43.19929915893786,-53.168272606699624,-48.26961978476971,-30.154546834921668,-11.079134905423743,3.6413942863317654,16.152405401981415,24.45233020435786,25.170828113289122,23.077080675538504,24.684252119334683,27.07990585241877,27.984235270485225,31.442495899714103,34.35146319070116,28.71988054321484,17.75034547710589,9.599259945851264,3.76121107340811,-2.2651755102691755,-8.936510056326037,-18.246002906627936,-28.93493677470553,-38.25068251310443,-46.13686042690849,-51.885885211360076,-52.06105738840348,-45.10285999140249,-32.33778740291856,74.0,117.0,89.0
23.83580679034893,24.08122196039968,27.2373631424456,31.15708891419907,32.72775623068201,30.36554318062671,24.010079076496844,16.414593205074816,10.446150974655602,4.6015585440634785,-2.876791546265804,-9.648025646908946,-15.423175743967443,-23.714662584442944,-34.493292180691554,-44.28547127095529,-48.65133658494648,-42.270536011128705,-25.604417788901532,-8.277993611148148,2.7833556851918755,10.871693308544188,18.847667413578908,23.91169516688373,23.85796835930439,20.371326530052865,17.653372152032524,18.046039975762344,20.142019980926875,21.423040084145974,20.8703068091102,19.23666402693993,16.112389172614662,8.712101194392188,-0.7876508962703985,-9.536115178224852,-17.706003921115876,-25.143718027455655,-34.96215289496941,-46.60640321038953,-49.35765951051308,-36.906263767727324,-16.591197773852816,-0.1659357184894207,8.63812992028618,13.710287754601719,17.505970043604837,18.952267891281704,17.88702540647052,17.43032091858342,20.767537978583892,25.470753839320956,24.906716654386905,17.691142864949665,11.444991193579854,11.968087686685632,13.94199624623255,8.094261706960696,-4.626296021661525,-14.205767644892834,-17.991534166199035,-24.051482805522856,-37.41769173639763,-49.77800226839615,-48.465311621666764,-33.131843935900676,-14.525248712251775,1.0066768471021086,10.978940519076437,15.084923891540253,17.783079638102425,22.28244608042676,25.42422644986455,25.523519523779413,25.61610751668958,25.815707692145764,24.315014964592578,21.37436315994292,18.588626639568947,16.02859093173396,10.967086285107548,1.4146897215076315,-9.816536728214267,-17.867687930698654,-21.965099112648204,-27.538438157460572,-39.05316725587281,-51.34913346229504,-54.34475913094097,-43.36981646707092,-23.361812199903735,-3.6850931652136523,9.558579772493792,17.355849113830157,22.87891614923856,26.748253235447045,28.729801645485153,27.988500758200036,26.14038450394725,26.38363623848719,27.873702498875414,27.190672900444657,23.340087956544238,18.3432093827831,13.890057731785626,8.52900182078442,0.08697727166119164,-10.295066617570507,-18.48108848055606,-24.12550887124706,-33.518920682054016,-45.82126968223655,-50.7639212521144,-43.11988923712329,-27.328831138279863,-11.112979570076668,1.6369760459754976,12.354935574190012,19.873920837397947,20.626468563136026,17.758449186520703,17.732276173346083,21.075122160476816,24.933078689728802,27.07607607846395,25.695965892952255,21.571461445486193,19.34136643798153,17.982402036377948,10.86134352533835,-1.9200859551311444,-13.625294934330807,-21.69668343334491,-29.738825041184203,-39.018253059338214,-46.21538880880582,-47.6194613999911,-40.885668463633586,-26.081877230896254,-8.09035788844905,5.676454412380373,11.900225583878166,13.171119381391481,14.879531455851575,19.017268428998218,21.877775854102044,21.37472446248089,21.1555624646508,24.510708092080296,26.995134048709698,22.853322196340823,15.315025062827564,11.006448239805298,10.343709270917905,7.497940721429614,-1.785019724880504,-13.338304293496188,-22.614627481120728,-33.37537050703365,-47.01824865484703,-53.55550437522126,-43.89218243141136,-24.266531150625056,-6.44681082633678,7.4382635926960665,19.21285582138749,25.41235079425461,24.452981504609557,23.10837042346854,25.56953382777895,27.335480978703362,28.626702041092656,32.7560759942883,33.74551297490005,25.64948391396069,14.952533792670442,7.85650767788031,2.0446428914838632,-4.048530245526201,-11.30844130778103,-21.355342578553003,-31.811365405590145,-40.65049795512275,-48.13947429413476,-52.6602193281101,-50.74506415385835,-41.94314516183434,-27.8075169983427,-10.798029053063575,4.8738075614360366,15.86507616424336,21.935227430998182,25.353277966331728,27.203414586752103,27.903361949123738,29.480845514022832,30.752372288558245,29.127658679476134,25.90710913531232,23.158368452409338,20.675666530759553,18.198491730780468,14.92864592573717,5.92296344098779,-9.42213142931137,-22.50752398483961,-29.163194403869717,-36.06333502362684,-46.7765827132778,-53.55075798124148,-47.494184798376686,-28.68461752269768,-7.050423579675473,7.7169057606927005,15.179112685587821,20.398457584734313,25.309991068766024,27.995102982858274,27.56247803765047,26.219253201322907,26.29111288161502,26.839298648939558,26.00888260635032,22.9448499784585,17.182279160735263,11.412894933822166,7.323981829305539,0.6807736523709078,-10.900554529402974,-22.69899506506054,-31.769145060250743,-41.0543806567972,-49.798985029482644,-52.079231835652465,-44.4352833638999,-29.559150671449856,-12.88844345318826,1.2144118614866692,11.322573270677582,19.358371082969338,23.69253036435842,22.59500111522373,20.545464485792564,21.95587399993917,25.472135213903854,27.609780310232033,27.028229395263494,23.227927776346974,17.281649653258032,10.924434670627939,74.0,117.0,89.0
-41.72702793103466,-51.15465851524591,-45.06541441037546,-27.647156651893923,-9.614038946938281,4.5641260380069015,12.640864439762675,15.759221830331146,18.938706143873453,23.533192278404446,25.654565089773175,25.45155690925972,25.757140828276665,25.59535723164531,23.545120247040213,20.4965755181973,17.90259192612417,14.97808138196165,8.63997079688831,-1.887456879135295,-12.627985723130253,-19.314590136318316,-23.10036172906566,-30.284245816675174,-42.97464154788617,-53.55263598144256,-52.55814976337786,-38.11370013924587,-17.256498770934215,0.892348985438073,12.189496067567147,19.124159103729582,24.164518352693847,27.55099020087632,28.804714360581677,27.39950910344923,25.931133595276428,26.841271018041443,28.014691830156004,26.353707398361163,21.892070386391598,17.00813422937341,12.556255441871208,6.439586057439406,-2.8688417995758395,-13.06354069922816,-20.142347521361483,-26.22717204923715,-37.16149306389061,-48.4440230248577,-49.793352522385156,-39.05060379499098,-22.38837885386093,-7.082215896074165,4.872430716812259,15.055787681807233,20.820398514364786,19.836044497235925,17.300391939179164,18.474664943037986,22.248688203186475,25.81611286779073,27.097315579327724,24.605350429950782,20.57843958361538,19.15647858031198,16.71627114958392,7.4874948850558125,-5.6815334501305745,-16.233256882177834,-23.84654496384604,-32.39539491342561,-41.49095400481304,-47.353117748760454,-46.5678327846889,-37.33038592148942,-20.869606343676388,-3.4121678875455546,8.232401257919697,12.549112532473762,13.405387192987364,15.921898305893425,20.171943305036933,22.010511420198775,21.038485361541397,21.794132947228057,25.67634570144936,26.5246231315246,20.68407563284173,13.563251001339246,10.623525781204291,10.055770652470233,5.4539884089566,-5.2235162416883965,-16.219275401010798,-25.315062705111718,-37.27106287096631,-50.243580415900325,-52.46200446479157,-38.6425001911753,-18.616740972180242,-2.171630542833613,11.114113347136604,21.795536211694984,25.69878056996677,23.723045433830443,23.543003160650585,26.34326148174151,27.518282401654414,29.59265408011037,33.81480961797168,32.265171476609126,22.373016238677433,12.533902721790314,6.197718324335574,0.3002435682760834,-5.911880718993109,-13.955952810233578,-24.489408287356113,-34.5323905778768,-42.95348763226681,-49.914242494069654,-52.86808413388915,-48.84314609868228,-38.336058016981454,-23.019487692629575,-5.94508024143066,8.613779487005184,18.041984827219263,23.097428074972058,26.06089511625231,27.439713527718197,28.22311102599886,30.037889037603634,30.5996739501642,28.234289239758002,25.034865051334982,22.453465495744105,19.93790887712993,17.48349695298389,13.154378900613533,1.8579663651941254,-13.843865944812864,-24.93984574652675,-30.75379360310095,-38.94230279061193,-49.624179293241305,-53.33924784284869,-43.06270452749112,-22.177062312287042,-1.8626476209064142,10.415660613907477,16.727185091705444,21.897616230750785,26.414733949118357,28.141324487576785,27.12484399840236,26.06907774279044,26.508767056242444,26.778731140733928,25.40350469164842,21.506386920191606,15.341349233919246,10.154544556099108,5.910646860261249,-2.266949837295019,-14.558066657488407,-25.519487027688314,-34.3145686453238,-43.860083372839824,-51.384164788233925,-50.88041330164829,-40.64039858919378,-24.707036303328138,-8.397990910112853,4.474880674417029,13.818369775547897,21.168220090591916,23.8355814064433,21.822786766868138,20.54408626922569,22.935022899104194,26.326218205325947,27.752149923970897,26.257872104984088,21.631465804327917,15.46114982629856,8.997077961147774,1.536231837957888,-6.4750581798907945,-12.822679720399682,-18.31086578442483,-25.047815383607514,-32.57609714268688,-41.16200008504386,-47.105519158046945,-42.19087697943674,-24.413970242686815,-1.759459817564151,15.635098009847601,23.414816967856673,23.030271925333178,19.880818692291076,19.187056995586723,21.57227188610254,23.774562194698426,25.594569374879125,28.114682092340736,28.813589831777378,24.747371835738075,16.90083840549704,9.2297468506528,3.728175667942937,-1.6826266906658156,-8.291903117260029,-16.531599865661985,-27.282287843709344,-39.132368222288065,-49.00293804075164,-53.54636881902191,-48.02057113629446,-31.10884277381113,-10.944288453747166,3.376967237820753,12.929793756421615,20.848101235755387,25.24530757490746,25.728114479980945,24.601201140836977,23.130844138358732,22.58807275965144,22.93814308645509,21.106017929394397,17.700219497773755,16.249386208728662,15.02136749214516,8.750979244135474,-3.1030179928243977,-14.871386058007817,-22.149654897305695,-26.98953018746403,-34.29342332410825,-44.76223384390592,-51.755653439789256,-45.36991399963572,-24.331214234534773,-2.2234303956684207,8.998378692444572,13.869408517987376,20.632863407461095,74.0,117.0,89.0
26.778429246804087,23.35824326026295,19.87501753311509,18.905236899891754,14.809750835528593,3.755407630307604,-9.170855514295893,-18.55996815679106,-26.117561839766566,-35.11807616760949,-43.68945619407912,-47.92446568011863,-44.79549297993818,-33.130533382790375,-15.569779505373686,0.7401258267281725,10.139893109049439,12.897040062731762,13.817740608451095,17.145381022700946,21.0932998804408,21.867024628778196,20.868699968397916,22.760436839272163,26.569070343858357,25.418398185597077,18.412561399094642,12.216084467206516,10.473990946719487,9.400301205348043,2.832626038629856,-8.655885792452427,-18.875493967715233,-28.309408238809507,-41.3372923866738,-52.5223220366088,-49.90332240990153,-32.88288735660107,-13.356587600401664,1.847929336691725,14.620318886033578,23.771203907677467,25.43018500160095,23.201564877706016,24.283873232501236,26.901311770969844,27.7883956442495,30.824988529589344,34.347462050790256,29.987852531711333,19.155382672922972,10.462312373508674,4.538544613773274,-1.4537005338125433,-7.931609472002273,-16.8490062668941,-27.55921675721533,-37.107155803373615,-45.15933838676671,-51.360115273076175,-52.460483248272524,-46.399709561385386,-34.31705516604994,-18.073479793817025,-1.3136920096385085,11.899700786134634,19.8420004246406,24.10368796453912,26.632166709742865,27.611398314219986,28.669217450690166,30.483674384179434,30.168162294511436,27.280768663562785,24.232293830659337,21.743164121170505,19.215597045492203,16.653406464242618,10.731709813477977,-2.631223721536319,-17.811973161109318,-26.856857842509637,-32.61011560912226,-42.105114955846226,-51.867827153065654,-51.884755772566464,-37.68556772497968,-15.74609147389837,2.5787368004053794,12.598922427986095,18.21802106425158,23.361953322611207,27.266904766427302,28.037948938273754,26.69235957715988,26.07203974633211,26.705200078848797,26.577330144270586,24.585405807348735,19.846782104669913,13.607805280757486,9.021743806413404,4.1277382428222955,-5.6086440175748065,-18.06119203376501,-28.12263488324543,-36.976591110278626,-46.52106551421027,-52.26504264282857,-48.82604231997998,-36.36538662656938,-19.832537311191935,-4.220461143459115,7.41964659925284,16.196516733026083,22.561313512666104,23.540952335443986,21.133918006545866,20.895061031477884,23.994328886348608,26.998943035314976,27.651251155212474,25.20914688084455,19.908871724150544,13.63533642098371,6.9769519459517015,-0.8186202412455423,-8.536185236354896,-14.360386330403186,-20.123370811134656,-27.153106674128406,-34.95816905603746,-43.513489205002045,-47.09161962172078,-38.17837068709641,-17.864722924940466,4.133340087249086,18.89762640993344,23.958288581711148,22.123225951463514,19.285756133005773,19.68627810276204,22.337158159865414,24.242112003966792,26.29792609867627,28.675161581271322,28.17544084585369,22.715397970342053,14.492114334757355,7.460800846636091,2.2658557798783976,-3.4691730479821667,-10.451986441812789,-19.384100384489717,-30.72348678486435,-42.31947919296069,-51.05051553776965,-53.188239490809515,-44.12155772768088,-25.0871833235692,-6.0512451788843045,6.3884631093312585,15.415114899802356,22.577787958292788,25.700674109060156,25.476269510577303,24.181444136413734,22.802670563385487,22.720341118727184,22.72768860701697,20.109070045463227,17.009105490771706,16.12027114507428,13.889614474211335,5.731447840323532,-6.8149079093988,-17.463682933869595,-23.57493591221081,-28.681807970884904,-37.1538214771181,-47.58922046596608,-51.631429374678056,-40.42063598063628,-17.275319381645396,2.239761320131487,10.561916140805588,15.529738974351663,22.763828589418832,27.251171368310338,25.88947664534723,23.292689272334275,24.58387340138085,27.969798248884345,29.91708062131602,30.637571995593024,28.755871805223563,22.164188768550595,12.938465304245748,3.900523150284826,-5.60457771831567,-13.723096670796565,-18.76127996904359,-26.929926676381534,-41.63223235044013,-54.01694017761777,-51.5765056025042,-32.34343742075255,-7.634140576739999,9.254983618389934,14.867448868514924,13.88180744975918,12.234611705920466,12.026274870447391,12.248111444973862,12.86591733928534,15.400843643750083,17.9980442155725,18.034445961248082,16.068886469356297,14.203524604560984,11.20042041002565,3.7720475679429284,-6.918936898520538,-16.536451014779875,-22.85797408599705,-28.43750935720933,-37.37774589014626,-47.324779869891564,-46.90917840295973,-30.023238720222675,-6.799382432013186,9.775314122830194,17.84456412345015,21.567269957262305,22.557775997509875,23.05814179929581,25.228660372765283,26.691907308685686,26.886650537074097,27.591368852997782,28.42122322380126,26.975050801948797,21.160949851354264,12.885946084298878,5.024226025300678,-2.5772347510667166,-10.80980372899484,-18.19960306086096,-24.111598397522457,-32.3708893118708,74.0,117.0,89.0
-29.93346729722837,-13.082422566710813,3.0072926106893805,14.718737762361584,21.332671117608633,24.98570680685164,27.05591972087751,27.794553630922717,29.21423652303017,30.727024303510937,29.49853786080437,26.330867333803678,23.488321089570135,21.015710035180103,18.51696037826036,15.56495970668887,7.598892491509263,-7.291880852294925,-21.176463808857285,-28.461084504363633,-34.87129921370335,-45.33640050421126,-53.256929949170775,-49.16187349856463,-31.62542804630001,-9.669491887660419,6.260579455147852,14.420098225924653,19.707367856830167,24.7305479203096,27.83302775908416,27.74283473826612,26.3395029847196,26.202081695316622,26.822908056074347,26.22580927807888,23.522469840997367,18.038686013911075,12.057241081145383,7.888967663787817,1.881972805471075,-9.204356824955225,-21.304085696251306,-30.620165180618795,-39.75258360643537,-48.86956160640011,-52.33652478499829,-45.98322552373078,-31.7573031391776,-15.041320256489778,-0.4119080115430179,10.129896986307388,18.414250480355463,23.456605759602056,22.93554059778365,20.662273379168614,21.562342675494985,25.028226001541746,27.467039126319534,27.288310718730326,23.90439940872842,18.11784824923101,11.789708707213489,4.845468177862956,-3.177888541279458,-10.402365897226487,-15.900653541389891,-22.06158611026163,-29.301848206262463,-37.45712830635436,-45.46572280406721,-45.96930689199194,-33.14891428833833,-11.184811792280922,9.372421007048187,21.319667053197676,23.900588967336688,21.1459245152482,18.999415697195452,20.393259786898387,22.99779801361354,24.73308553424579,27.055984956181796,28.987553311454416,27.089310041704664,20.439206400608974,12.208330561524004,5.8729830686239195,0.7357627949746772,-5.355247088266173,-12.77366189509646,-22.459796441138042,-34.19073666983988,-45.267777400421174,-52.56325799742648,-51.855709519303964,-39.31470580796475,-19.09205078268699,-1.7973314807087852,9.142339624578334,17.777144075248664,23.941322766139475,25.864158409260295,25.153225317033318,23.742114081147875,22.604676480206713,22.878696897898866,22.25239297859294,19.064618659717787,16.559250679488645,15.884263528364174,12.217590045251027,2.3041886121205457,-10.335196694310852,-19.63110449857754,-24.909729388352627,-30.698151635886656,-40.22749242174923,-49.895206630545324,-50.14546014111214,-34.3706203089016,-10.58770159360949,5.639239287948097,11.871635148307924,17.474496346675437,24.640196186316906,27.364600308921528,24.96208497745011,23.196354624352388,25.574251950341857,28.70932640597553,30.2428689135655,30.495376453439796,27.338814817747433,19.58117143955685,10.29972308272344,1.2216775225079906,-8.282886506674052,-15.350869412017122,-20.446281860870474,-30.676038330892418,-46.071288431586716,-55.20838097797649,-47.44273655999203,-25.0745130521787,-1.5766762326780075,11.921498299667808,14.962994898402851,13.291173887526131,12.040583517482752,12.107763858930573,12.302732196451204,13.400135258726822,16.30438410574171,18.31222659082304,17.56907807926525,15.476571329214089,13.625458573218838,9.569598283836408,0.8372006751813363,-9.98378146470194,-18.68090987806329,-24.33255754595291,-30.58459093730963,-40.536630874224066,-48.81807506521923,-43.55277334602428,-23.25395052542599,-1.0131262448451837,12.802176761695334,19.231485544459293,22.103313038898996,22.578224815892682,23.561281626978214,25.844357670707772,26.787247069096413,27.00641824245095,27.89148152569899,28.37762904952377,25.741836111988334,18.859356928082278,10.515360060440889,2.872892163963612,-4.915792357616314,-13.123373632304602,-19.980950606743498,-25.998195860274343,-35.879340930070576,-50.154995137103285,-56.71750559594984,-44.69714035782495,-20.95254538362771,1.297834191045566,15.013832128127392,19.636308809640592,20.815248584479164,24.136152332202624,28.879288603802333,30.42929778466572,28.51546220642711,28.327511408960998,29.08887826896372,25.430210454463936,17.52972018004843,9.218577145118314,1.6648009039847635,-7.118917216187408,-16.546811930835194,-23.6224888408487,-29.411621523616034,-38.45143687498654,-50.09534958292406,-57.350958834303704,-53.55165632432825,-37.580299326129094,-15.647665567219402,2.890081560148638,14.134292680305492,21.369199989894256,26.594680238476133,28.945239349474715,29.97159088819021,31.563470261701898,34.061774356905914,35.63850121144209,32.887408157222644,25.703176392716802,18.108425422920202,12.243829045176335,6.171019074649032,-1.8857841792994479,-10.96867333478499,-20.841952824424364,-31.74964096388657,-42.684571041620615,-48.71771976950625,-44.84286011176109,-31.867110570992658,-13.838631020701447,4.005083818704587,15.622429230288736,19.567707358567407,19.24873461213477,18.269244027295652,18.90263319037836,21.23355760425293,23.049012713614243,23.703624872798542,23.59235747927084,19.7403458463799,74.0,117.0,89.0
9.89557289748759,2.6023106093546278,-5.4651605170138735,-12.090091799827794,-17.52174593791146,-24.091401460539323,-31.519670244923017,-40.00620105898885,-46.77883516800521,-43.65838227745626,-27.30902993469443,-4.6524386811959575,13.847452452179482,22.93010409755547,23.381516902494642,20.240336181924494,19.05208755679982,21.198287050853114,23.548314727434295,25.300369123842216,27.80032371238222,28.960570835810096,25.57536730493478,18.027224391444097,10.118461951237473,4.395294341063732,-0.8944708072735386,-7.340147398037171,-15.29448081405293,-25.726460168028222,-37.601285452366646,-47.90934150493089,-53.41438917008503,-49.475545636198056,-33.808468749509224,-13.402910456788192,1.8603359306488167,11.755130598267236,19.940653528728173,24.920205043203886,25.807863659476663,24.784036936188006,23.312868857198417,22.560324804203233,22.957387661854522,21.517736326800133,18.093544626883276,16.316526387521765,15.382187393236487,9.973611332533402,-1.3736631252521116,-13.531388145428176,-21.424236814479467,-26.295825418771972,-33.077196138181755,-43.3564802208807,-51.40359404667858,-47.207807619142024,-27.585911885452855,-4.641432024998697,8.108749248197972,13.196787827663357,19.619813226221982,26.093132779600236,27.002305958177544,24.102315707964408,23.50942053312925,26.610333402287555,29.28910365157223,30.49068081838548,30.06220315106968,25.497746686191817,16.885149337293214,7.705186428750123,-1.5340321652500817,-10.734135111116707,-16.74664319976973,-22.61952262334893,-34.943524422293045,-49.98239245055419,-54.89160935322702,-42.006837412989235,-17.730973698473168,3.562443767264628,13.676953362360559,14.669789397107623,12.770212935796929,11.971716582618354,12.180587396862911,12.427339588372803,14.122285760529804,17.121173856876496,18.372841436952513,16.986083584977372,14.940657831263666,12.865021635169064,7.504778110577596,-2.2817998381149356,-12.84804189366237,-20.534579117224304,-25.85807125558382,-33.10086167975605,-43.61946416977994,-49.09974454968597,-38.82102206985508,-16.353239408858055,3.9783962196700777,15.198447314691572,20.354834462851194,22.411739930665096,22.659086138319896,24.207699328621985,26.311968763196955,26.819539856192797,27.200843356826894,28.17108239984444,28.06425829290095,24.118500650574074,16.444071295707083,8.229612058886088,0.7030699262336423,-7.309607666588658,-15.306955820755476,-21.654658552889693,-28.229763443604114,-39.86156715928694,-53.575983925821035,-55.1885612521593,-38.396198162168766,-13.924263777543498,6.282137216477226,17.134315690832377,19.996439849812774,21.45622485496877,25.54966332966215,29.82488233862308,30.024651509008244,28.11993046271834,28.71860850426549,28.612373509338635,23.42445716540612,15.025246052616604,7.030384533685907,-0.6804970917277222,-9.918435310593205,-18.906575559657107,-25.22701026436336,-31.551637742457974,-41.79334903885788,-52.995372551727826,-57.57877117720479,-50.04116956617106,-31.433879603925373,-9.597161507098859,6.823287997372362,16.447352745414683,23.13126404013088,27.55470429308012,29.2647507786919,30.3329153140897,32.21713732773654,34.765163312206184,35.400524999767974,31.125108287203762,23.370984487201888,16.260649417131113,10.649798630603106,4.029027980890097,-4.447457807785558,-13.72100309905722,-23.887427962947857,-35.03875538408828,-45.22978344135574,-48.69469813120171,-41.870985180240886,-26.977654862415452,-8.381358257298727,8.198835035901306,17.44516082921645,19.732882135238025,18.90559120157255,18.229111864509196,19.472837729388246,21.912232266347825,23.296837168347768,23.83110149248948,23.00558369899201,17.687931119328496,8.808460185329906,0.02014070952792285,-7.45907494711039,-15.233574248436506,-25.123890283164855,-36.33524667955928,-46.71506949150289,-52.5654879737335,-47.99262292045093,-30.84416899636121,-8.215585396286507,9.461967691225421,19.644884944750082,25.052251566272105,27.141560372614183,26.572565899448104,25.147791867410874,25.058798146276754,25.662154320380317,24.876845467557605,22.86087240094379,19.111269890047627,13.173888681023962,7.70478605458263,3.1637338583625563,-2.948993019825418,-12.171867520299422,-24.78171066010722,-38.5012853471858,-46.96044105913542,-45.27259317781539,-34.11151683941714,-16.291401955945755,3.4152360976748457,18.352736961942753,24.864798823304085,25.780655506025475,24.66376410685323,22.669856388491887,20.34498496676746,18.41345887295289,17.22132798636193,15.701875787845546,13.716446909310449,11.136527531677359,6.348720149146908,-1.2429078185183937,-9.655724963535965,-17.63119736433973,-27.158754540388443,-37.918907388809195,-44.63342160256462,-42.493036269598264,-31.07326694818175,-14.287084333932059,3.1765301962741397,17.687370761470852,25.24452265023181,24.55378067698056,19.10679542370953,12.700369333063911,9.402429601347732,74.0,117.0,89.0
21.801171864807934,27.015780784637716,26.291215428863723,23.471125513319002,24.181716194927713,27.57288245255303,29.741165811008486,30.627987876718123,29.26309468555877,23.28507800302325,14.174737211687338,5.110894983208265,-4.327251257443079,-12.862206659260448,-18.094083485123004,-25.416072088800316,-39.50888782522176,-53.00869056039505,-52.985324203160374,-35.55929563566917,-10.688953109132836,7.693968925961293,14.645086337266806,14.153659267336423,12.371240237178418,11.995717861674448,12.229820617850201,12.68649094124976,14.98124110851138,17.77098422939958,18.190921537796086,16.3567564926072,14.439480317201696,11.811032382943388,5.03175373600923,-5.463796173591418,-15.44263779868497,-22.159672136246073,-27.561357768049042,-35.9653564692496,-46.31185725185748,-47.95072768218464,-32.985521411216254,-9.698440875531693,8.132608850361647,17.09991579639358,21.239447353069888,22.538418217677826,22.888776478541626,24.91195886206204,26.60836033557447,26.8549132323726,27.458211619261004,28.373433028031055,27.407768694774337,22.156952627298875,14.001826079469666,6.02287336961747,-1.5245443557811007,-9.713854842637527,-17.32640033303379,-23.315000108150894,-30.93848132480486,-44.118361317091924,-55.924876304146586,-51.98139803374383,-31.46454452697383,-7.301913000294994,10.448910478252996,18.541872123945833,20.26311549907587,22.365086651556158,26.995314103995256,30.37860303231855,29.414476203509356,28.009280570997316,29.05564362061797,27.65817643367442,21.13909044025172,12.58711899215542,4.880954227060135,-3.1867200043019412,-12.704488611791216,-21.000345315688506,-26.817503506111624,-34.07733772021586,-45.245938896557114,-55.32838046002921,-56.74847147064188,-45.55821203177211,-25.00841712614072,-4.057142671604093,10.147427295557057,18.55007040368395,24.712301552034003,28.262669412798218,29.54049173692073,30.769498378204446,32.945636529103986,35.315743350335424,34.71640945630657,29.04967084062882,21.121412434936587,14.564761977235166,8.954269485497539,1.7160151896687497,-7.060740205485568,-16.55160661959874,-27.022628346023527,-38.28476879569238,-47.19584874437189,-47.76590133696902,-38.21733431064834,-21.771113557407364,-3.08593250403832,11.731784802326745,18.664894835163146,19.64532540490196,18.583113415029544,18.366967970463314,20.15931357696152,22.475865882365614,23.478323733499884,23.876523586582245,22.004249764192018,15.318430978756316,6.1399856597275395,-2.2442760905880537,-9.565303297723133,-17.85311139889457,-28.319387111281053,-39.525097141605364,-49.12011413524914,-52.54903150999623,-44.203853044152005,-24.347930352038357,-2.2961784779118286,13.07020620854881,21.59099631745806,25.97685847986382,27.199048730054038,26.134957628889225,24.935869831509606,25.280104704051162,25.60732125236346,24.397142348426605,22.02827564532395,17.54168941328567,11.429185990926218,6.396684415579165,1.658045044006816,-5.261822412570256,-15.489984420670481,-28.854094240444397,-41.800856771108194,-47.57512880285194,-42.90773885009201,-29.495329462793173,-10.503316237953898,8.493810988334555,21.083229070759923,25.489221640227065,25.590651888182443,24.149669310687514,22.009414723503657,19.705604764646935,18.022875782295966,16.861510434182883,15.14560200777052,13.091339527776109,10.051795343068951,4.397759665679626,-3.708747572707199,-11.956872162461867,-20.128878693506866,-30.31319573141397,-40.54851945906699,-45.03874703001127,-40.037716496465976,-26.541796701371677,-9.1474873105736,7.846147107968498,20.740330221173952,25.80159479262143,23.273003351329322,17.20894826738781,11.207253715414822,9.637093170280334,13.900277835591046,18.35940249688062,18.046725340248766,12.893227593777764,5.8668682391013665,-0.36963118019809127,-6.81618420153189,-14.38104982853813,-23.210947670708926,-35.001545594536225,-47.61631559945113,-52.81397816057449,-42.74092534146881,-20.645301015087828,1.451485261035189,16.8099991159841,26.945407363825904,31.978447113568148,30.81953683353102,28.38991691277165,29.239756116933385,30.96292545932523,30.68557037711533,28.56288734641943,24.987000811535005,19.27509756993518,11.09440433196807,2.2226629007651826,-5.063933288237564,-11.362093486332524,-19.107811442506883,-29.89010021987016,-42.75260585330367,-54.26469217974489,-57.6799461973373,-46.16521161048306,-23.62767429365228,-1.163630348073481,15.691937965725481,27.367143797658848,32.76400155342959,32.118430211137394,30.028531932449827,30.14451831960637,32.19709975483954,32.325895200504405,29.99259723378242,26.795406047933817,20.239720563103297,10.343882908911375,2.2145171236765626,-4.817561546875445,-14.87388756023738,-25.839429117941727,-34.62746188914058,-43.983771540242316,-57.36501312533186,-67.37821284236843,-61.15340644127025,-39.051455939664685,-14.78670883504639,1.6742591434892273,74.0,117.0,89.0
-34.19551714153903,-48.33425054267874,-56.84378035506202,-47.283129566366604,-24.26899890498152,-1.2577417000748328,13.767434073615583,19.38607274211829,20.600789468611076,23.529053190308623,28.335433608269888,30.506115958167616,28.77344135135632,28.178334507335563,29.160439438617136,26.232505735396003,18.686174806087433,10.256113729745538,2.700265933874259,-5.849654211625682,-15.377515354046896,-22.84197246617525,-28.53718967003881,-36.99268819979863,-48.62096600387441,-56.914833832688196,-54.81422557547059,-40.25156127349337,-18.55977968732925,0.8531021981057954,12.9682483817251,20.50873302630074,26.06118537875987,28.765253995734316,29.82596440188306,31.292002604390213,33.71200180295035,35.61335148979837,33.56738213180535,26.78010363243385,19.019123890332807,12.967546996140078,7.093665819876338,-0.727320220494849,-9.722590218513828,-19.467848408939336,-30.242437763761526,-41.36402685923232,-48.42890941659351,-45.95663984934858,-33.98458499210989,-16.363597351503625,1.8755678079909877,14.557283124809244,19.37932920971338,19.395638443909217,18.34020869702944,18.69221684530044,20.897017553528173,22.899124655420135,23.63502881255086,23.743962737255412,20.555322985957872,12.737391827674852,3.561544462342938,-4.40336563374739,-11.757478568647914,-20.67807200163981,-31.575870622967635,-42.597797613276505,-51.023572518253715,-51.51014509044395,-39.38070434935679,-17.671705059614958,2.98991640621893,16.0944632981454,23.209665455475392,26.63612912921525,27.055298243471807,25.686080026420004,24.882345856630295,25.497423323998735,25.40373595515108,23.83921255369332,21.00794211875579,15.810245501941086,9.810495412581057,5.122738582141922,-0.04221853933733981,-7.855941249331238,-19.091821628490127,-32.922556397213924,-44.472672460125445,-47.278448604899005,-39.81313101567729,-24.39264375445578,-4.706490272914753,13.00663999682258,23.08014977600068,25.774354432846145,25.2825210976451,23.57938466445823,21.33141645427233,19.124107629551258,17.687746794723505,16.43767649469969,14.572597432476257,12.39129768404262,8.736001836440554,2.222285800487627,-6.168836528189036,-14.227379032864636,-22.829732175670507,-33.502014805757575,-42.68048298038998,-44.619518089701685,-36.84582231532998,-21.69172448180667,-4.047022868794476,12.180793019820367,23.110088280457937,25.6925602671939,21.711233609007703,15.303831460294905,10.098936772626342,10.422239809541281,15.48120545785044,18.84197828863362,16.964221666666845,10.88639342697553,3.962387887044533,-2.1170709581134095,-8.91387336470981,-16.728069116652872,-26.285442663183918,-38.82605046871513,-50.33951678887461,-51.59546484535487,-37.11688141469583,-13.751470788160143,6.591563447129984,20.178244908968104,29.027125141734782,32.19340227897889,29.919342779067474,28.3036037528986,29.833275735067293,31.124810276092635,30.22196835599463,27.693379426103114,23.59885607500656,17.13011317906677,8.476449409042823,-0.08731842956210183,-6.882969144846103,-13.348965547052067,-21.89407257527535,-33.50909860161046,-46.426777555737516,-56.48428434723821,-55.97313740019091,-40.306323573445496,-16.708914528640097,4.303382027440079,19.584305603395276,29.662791478628325,33.03671154314153,31.44536555889845,29.75756714032741,30.67888391491597,32.5818399379213,31.784215696888406,29.198218032893696,25.389736197194047,17.515592316177212,7.656971610949315,0.31162851386459134,-7.3787855357290795,-18.157588353105343,-28.603139773548587,-37.022927626026096,-47.49752289252794,-61.23749494904049,-67.60318208437245,-55.906276119329966,-31.620207551259302,-9.085974704880677,4.9346963749230195,13.958765596942133,21.520388844732352,25.555365783883552,26.120515263105833,26.538158361934297,28.02654595145349,29.09985714871476,28.743102874948367,26.35055597258267,21.62148097518293,16.427783239181636,12.97546073921653,9.179231135917927,0.7205708890394665,-10.287302835660991,-18.98360339978946,-25.85572240979586,-35.38445349539228,-47.54322979659997,-53.00428919226853,-43.864623340956555,-23.967456270290107,-3.5738753546172433,12.511244980989687,25.582590340344264,34.77800209846056,37.22273025954075,34.14107334617079,30.495529384164353,30.544945497431783,32.98077027668829,32.74905033386,30.111072011185435,27.72570406438505,23.323917415245333,14.153902024630286,2.0492312754420237,-10.08254034471743,-19.15780899825525,-24.66397927414352,-32.33941392817756,-45.037734229677284,-57.58492119399877,-61.6699962106095,-51.66374444885376,-30.184290556917983,-7.862391905756338,5.101966391487568,10.232183871727964,14.507629194580028,17.305820012634065,16.212462196842463,15.092441294237487,18.2907065004517,23.68774488152118,25.971334619173952,22.80655132019888,15.619634416146962,7.511165068563065,0.9792529723456133,-4.691236762782361,-10.453796821523438,74.0,117.0,89.0
18.679372348564804,10.053348018448009,1.1068632351755632,-6.499102199711252,-14.094562393937167,-23.686502077690864,-34.84067195170521,-45.47888249943125,-52.262874310418994,-49.364327690266805,-33.6925688136325,-11.119729191590698,7.579522195299032,18.623019367442954,24.53489716741612,27.038590369484847,26.751875470697787,25.29331853968408,24.976844044865043,25.638244382209564,25.068286675426133,23.195031452072904,19.76344220314892,14.004426346894615,8.338731982942432,3.8057838258166385,-1.973415779320596,-10.741615636868861,-22.941459400804817,-36.816746352331215,-46.372877257645484,-46.09877359176587,-36.05229089665403,-18.910509487050525,0.923793701994274,16.83720945482561,24.428426659189032,25.820270604186177,24.877839646339435,22.965080104759874,20.65240065537929,18.618833232083297,17.371941086806036,15.946698740468124,13.990713348847065,11.569632752963491,7.162908699004517,-0.12333292531403908,-8.572642413417645,-16.53391998561139,-25.748239741730384,-36.580731697694134,-44.18268893782795,-43.356316643959474,-33.01840955239992,-16.647564158152072,0.9385376162574526,16.072513125758913,24.74357144264834,25.020364026254704,19.958240266690474,13.48200466214462,9.491594832287209,11.651118284358454,16.89026327024979,18.85738320486453,15.514258031466323,8.819892767262923,2.1601109371191285,-3.9442313272766354,-11.09089682935257,-19.208416026147418,-29.64994445058666,-42.606624894322195,-52.18480704710508,-48.96637243167065,-30.71041140967583,-7.182270961979029,11.124197274742261,23.18613390958578,30.630018875606712,31.893816691399653,29.110488584057826,28.527841712098414,30.38884457679862,31.082723346847015,29.63068040719039,26.70024871141558,22.005768080884295,14.785357749387842,5.868699510003026,-2.2224229437680396,-8.670395163099887,-15.518210835933525,-24.957936344616638,-37.246223523384955,-49.89538215592634,-57.80725474104815,-52.90309420300071,-33.76324967050217,-10.069772376891422,9.26473361820612,23.0737011008581,31.36721232535483,32.87102963718094,30.78228684436089,29.732315552005307,31.320154556459705,32.69153012811194,31.10031139343768,28.33971388254553,23.59850639914843,14.597877700365176,5.253176430013814,-1.6245871001161172,-10.254972130633837,-21.396849728553374,-31.14798641431429,-39.603351723469714,-51.38604050760483,-64.5005324571834,-66.18819305333605,-49.543916097014105,-24.39982232485157,-4.173318713195977,7.780675984622008,16.327439324048143,23.147306121645645,25.945218632499653,26.124206455278827,26.905350474158617,28.447474199058384,29.1631149993899,28.299787887443728,25.186250554302696,20.03954846051427,15.229020287977162,12.14500485793585,7.28220094738143,-2.462398918984644,-13.14093357468255,-20.981558074356755,-28.161057799946864,-38.8961276365652,-50.32923557299968,-51.93004659739714,-38.776080084452424,-17.739169668544413,1.5037586595225625,16.540667784973177,28.78961390757882,36.22898005327972,36.716477628484746,32.90177349793111,30.047528794414596,31.240344822776283,33.32078838468231,32.06712166130543,29.39422095223924,26.851190253093318,21.166035598269684,10.806911009460038,-1.5670470683763253,-13.160872254174535,-20.94487963159844,-26.373320459410195,-35.59527300850263,-49.03979419635013,-59.983580712609886,-60.301254317906825,-46.277200483042634,-23.246434808187143,-2.95494185436583,7.023265811361381,11.412179066943144,15.65979218606257,17.335544762586416,15.616119583570647,15.532180916023558,19.866855821317582,24.85523653601409,25.608808736778073,21.02068705723217,13.222865099977753,5.42604277372273,-0.6535943972048073,-6.387203182136884,-11.948406713453313,-16.452862130971756,-22.412428497226152,-32.282119762295046,-43.24889024824793,-48.40286112672043,-41.93278659408567,-25.29902093549351,-6.034695764308538,10.699867530383154,24.658560141057446,35.55595258072865,39.60413034666762,36.63912903303855,34.45968111412632,35.92840369715552,36.5683890536099,34.79670323463261,33.451929047334055,31.41310021813715,25.207684120692964,16.108197571361483,8.790071330113392,3.0538190877959366,-5.507648869672591,-16.321964804523255,-26.54787616115264,-38.74601781640663,-54.8857057987106,-67.01638381391504,-65.51813458528402,-50.06580395794053,-28.314167614493076,-8.963117061925914,3.972367097397729,11.625312133284746,16.52473358654739,20.736318040468653,25.371363053465974,29.145234483653375,30.9798483190707,31.068830828973898,29.415317459775732,25.368320947839493,18.885012292057393,12.039479006126799,7.4194455180094545,4.3598484294438595,-1.08609440551438,-12.713745796910183,-27.094410311047,-36.456556036418434,-41.099395225006035,-47.76961213881496,-56.04652737684777,-55.85742407266701,-40.02061726154491,-14.32415677030016,8.495060989666793,22.93990443898266,30.559195218370643,32.76940514540942,32.12180406632919,74.0,117.0,89.0
9.456702385250553,13.161331988250435,17.98692935569509,18.405959694174292,13.771166623487346,6.780408479540879,0.4243284975885099,-5.883207767321356,-13.328452389954986,-21.889697609940168,-33.268923349605906,-46.13823918349838,-52.9104529263298,-44.98736301004737,-23.85855102851788,-1.1322610377326827,15.122455863817864,25.84471155683178,31.686524236247052,31.212262370653864,28.543981397211876,28.98235864228337,30.821423633124102,30.849989895553037,28.925343141045968,25.56496848617381,20.189480216612633,12.284118271315432,3.342901561083058,-4.197024397601238,-10.492452604590717,-17.915786599619906,-28.281470491420734,-41.02208280078798,-53.00509584319503,-58.01166712516312,-48.5531934741669,-26.85275704804547,-3.8592249288005083,13.762042686340354,26.124948368524386,32.45954498088454,32.40013995213357,30.22685274703203,29.960476891807648,31.947928637628316,32.50386966135844,30.349156817054578,27.33606642312112,21.389961869991815,11.659047577754954,3.125040252127444,-3.745752482995945,-13.379349704114414,-24.48607162474368,-33.54287533987589,-42.508080046634284,-55.481009757120205,-66.7663868403151,-63.105839464085975,-42.45316334328776,-17.669091241854066,-0.01553570225664769,10.37597655790253,18.588638551312425,24.400871193882004,26.102429598248946,26.206100653453216,27.347337512445183,28.78980912363611,29.096309088394754,27.664248614260632,23.83371120644075,18.488971970388764,14.216603167488445,11.168520499011715,4.911251385270324,-5.715714809900157,-15.711729542819205,-22.90465838108921,-30.815897628721224,-42.5341642708486,-52.247121900841876,-49.534416545925225,-33.00931415560628,-11.723173800723057,6.201209230489431,20.373442381348283,31.596437558341407,37.060966668905415,35.834287425476774,31.754685833254303,29.986723834369897,32.0223870277508,33.323340255196285,31.272612708498162,28.734555002826447,25.696401577299365,18.579885614656888,7.3046573370906875,-5.131958977246093,-15.88839094562629,-22.487964595860078,-28.451485799948426,-39.25410308401014,-52.84013290116086,-61.470245952579766,-57.66718521952375,-40.092980261692055,-16.560043704912875,0.9858081256339299,8.477749936017565,12.654671160580769,16.578116365645773,17.029898871392202,15.176457438998645,16.393800672052226,21.50249296709179,25.639300257341723,24.77840446963425,18.96084917203152,10.833568184587717,3.5139411281295727,-2.2724749940544546,-8.081381997350542,-13.321954678698567,-17.847560603116776,-24.876346989783432,-35.59575314987222,-45.67669736319363,-47.83105843631537,-37.89211455019237,-19.65939229603745,-0.8700530947084125,14.981432810267677,28.227165261416935,37.62184766772854,39.195392129120556,35.59644865548658,34.65030142204722,36.40170635628061,36.19415651524719,34.286352646653874,33.12496408056072,30.11004297228917,22.671408071688212,13.665252001308927,7.171160591792387,0.9861024141836646,-8.578551881140724,-19.341599627632515,-29.64772916171801,-43.165107292785414,-59.33286691000083,-68.20784176590222,-62.24144959907186,-44.004826754743064,-22.17839579863379,-4.5462294147389315,6.60623120650809,13.229647907753792,17.723497196245823,22.052604995289684,26.629608283583,29.878603094643264,31.170462317057524,30.79007380236806,28.523548139961086,23.699394628055728,16.8002467785203,10.429260293243146,6.498743233801346,3.2598762860632253,-3.7766420042030355,-16.961362559863122,-30.526441105419266,-37.99422536714929,-42.599440172438925,-50.3358810588399,-57.36326013803124,-52.90164516739519,-33.041056194378726,-6.97675499473418,13.508337258944298,25.757290748223102,31.69615298566095,32.69483940551514,31.967185903793176,32.358885367830794,32.97061474440609,32.478080954944645,31.878989272520528,31.93264029278657,30.967087051181984,25.691177798728607,16.66889217844565,8.434237062819054,0.38115098796862945,-9.358574081145065,-17.804772646474778,-23.863618240866444,-29.941721445363218,-38.71785483388051,-48.690997959799816,-52.461848028543535,-44.029007285100555,-26.530392006101007,-8.572547027589126,6.166846077111112,18.294806850222546,26.28696944580853,28.984564267153882,27.237485479722196,23.488908724234427,21.536290965449933,21.822847223490783,22.229594960874763,22.848546506849612,23.024442466408587,18.6764333540278,9.311934409543474,1.2671125489314634,-3.507802561056086,-9.72361575376693,-18.25888387088472,-25.645976093288816,-32.505058724630324,-43.05881583220838,-54.13882623895649,-53.611517870697135,-36.00076012089208,-11.34496615112622,6.453029328261385,14.933846640642049,18.66403121021764,19.5348316331042,18.450004678632165,18.631064017835563,21.170590012384068,23.621539815734838,24.240684223995324,23.071709852601757,20.207272369103624,16.29759467118277,11.894419853784964,6.321176853850697,-1.3946112825997463,-9.869202068232134,-16.119079264473697,-20.31678253030046,74.0,117.0,89.0
