13.568016833457754,-1648.3942812768344,-2050.8444670868184,-1646.928963304045,-1347.512812301025,-1288.6044161411166,-1224.7544479574115,-1091.28056370373,-959.8869788795517,-852.0098254335113,-740.882644490707,-621.0571361724084,-512.746089568882,-424.2924966730578,-346.1375309467293,-274.5381735695719,-213.19417484504518,-161.25421322123825,-116.90663577764848,-82.01200569311796,-53.55719130806198,-25.077022943845318,3.5619838396662846,26.665508808453374,34.59994521044659,27.804106788293495,36.45733667130824,99.81973639365185,213.65914704321577,328.4653451000282,401.26965748358106,426.4592412453696,422.2221871243805,404.42639007235573,380.3225121189186,353.74206849357233,331.9045554172498,319.6682245543651,312.32235275064266,301.583894578539,280.9043017887229,246.76163723451518,202.82528234076358,157.82558658179465,114.7109986848044,70.38925236526885,23.925617247157966,-22.337509635624443,-64.92681875185778,-103.12628455737291,-139.34317369168784,-178.97443881611264,-225.47051703052816,-254.53472425713386,-220.41403089266203,-123.94253190505691,-25.821638916006904,27.310716846648766,38.88720758659969,32.83707777003922,23.123799957670386,9.506742918852947,-7.506965364798537,-16.657429511952856,-8.6536593636785,8.850066596601197,20.316929780061805,17.683352115198527,4.609814749318014,-11.022252294426288,-25.428092600167584,-40.339804136738614,-57.97603598766021,-77.51074276386699,-98.30462614766574,-119.62266640289542,-138.86902183720113,-154.26879839896057,-170.77049557636371,-199.81024673652314,-232.80928877625257,-223.96198671867748,-139.71857450858448,-16.321388670547233,78.82783080946852,120.64448009421892,128.6146667618063,124.45485942714456,114.78912641563781,100.23766575522242,86.7866646734382,86.83869403170557,102.73891171856418,119.47208463516921,122.59789575692741,113.16240723622037,97.83079945376878,77.26387426447731,51.383512877958616,23.698044410087157,-1.5158336880602905,-22.140946036130995,-42.2127280705799,-67.43976763180957,-93.21372284366795,-114.97637082611757,-140.40268587016584,-171.74063215465637,-183.13771637905867,-138.4193641364308,-42.66059865342341,52.72280699429399,106.00661727386705,118.46349327238848,114.28784618596454,108.16058192335623,98.75418997429851,85.35785007736061,76.63516280832687,78.96965631534339,86.70293562524483,89.86504117314924,84.81402359268952,72.37162272478749,52.779758191593594,28.132556205076153,4.545573451387786,-15.377560490003782,-35.00751516157524,-57.895204768969066,-83.9636072807777,-108.885359101562,-128.3796643881112,-146.0688052417123,-171.99093839130592,-203.38651452578912,-207.35150425677446,-149.79430388884853,-49.328897739936366,38.06917830268699,83.29020109089082,98.25882310423248,99.10155769076293,89.07389832334951,74.70501642292858,66.53839632667108,66.47366484014921,72.48555467523717,83.6148226336109,92.2736653614989,89.45261361565224,77.37935026733778,62.116935828224406,45.44831551806067,28.343864974534213,10.201742790426138,-11.355773412299122,-34.06226252652441,-53.890584601394245,-72.44071600431938,-93.75452036085127,-116.81958323903352,-139.6791377944593,-165.85746346031573,-186.74023463115319,-168.80303578940482,-95.01513985082397,1.3966290659890448,74.68894711950476,107.34456516857414,110.1151651646785,100.78366837578204,89.05526906327593,77.35152434771653,69.97688451312115,72.77060081811919,84.03350673456264,93.55734715623271,93.16632684606606,85.67456704089054,75.06103622149013,59.211685386404625,39.29673173147351,19.16622590014337,-1.2518704061985269,-22.261958378300612,-41.200972976020225,-59.02708134699217,-81.05656388236372,-106.53023069036547,-126.88111148272192,-140.82214812995656,-160.62715945345573,-188.6149593061856,-192.8403091743777,-138.840805363095,-43.057212336522994,43.550934259488564,91.60304196209242,104.2418698286213,96.39009597568639,82.38510133444443,70.25379520676725,62.00914387663513,60.32818578383938,69.30007818669883,82.90298133887597,89.48126604069061,87.58560148671553,80.25561518695376,67.36230825354048,50.97086511385978,35.556263420197475,19.178846188889754,-0.933162749486727,-21.19087444026716,-40.56050586762281,-61.87921525813105,-81.96405741573102,-99.09374204209286,-120.73184744744923,-150.15324078127054,-178.35320509586305,-184.83869414753482,-144.7518672523653,-58.879987664363206,33.23007806844148,94.02963006402825,116.57965138222285,113.90927431915732,101.02912041895294,86.776838524667,73.43754824444459,63.155926586889656,64.03708334680904,78.36487454262122,93.40595752388595,96.03120590912025,85.22092376722314,65.99393225501605,42.06944303543859,19.992117853307224,4.667856485597603,-11.846199863835563,-38.002991012360795,-65.8473543048387,-86.82290103036362,-103.970349985311,-122.55274518607747,-147.3858773119267,65.0,122.0,69.0
-11.603899391398615,-16.107771495112253,-3.867108377809966,13.363346956245973,21.041937712247258,14.606965010063822,0.07997274245412796,-15.323971527982794,-29.52790495435507,-45.15216533952436,-63.48653494377352,-83.38307714877267,-104.50393506386496,-125.52435060531047,-143.68990119021908,-158.42529250622368,-177.5430539247968,-210.3880159659143,-236.995186863682,-207.1864365401484,-104.92387561016663,16.350613596531034,96.00705779850053,125.19712257760654,128.11386595775653,122.20037679415059,111.00132773056902,95.7234192780885,84.94618147082615,90.22250340997186,108.35073878253368,122.02673582146562,120.80203833190936,109.19699251087492,92.49153909350788,70.23457770983309,43.3633111317798,16.00187977140769,-7.922438221167545,-27.639783269352087,-48.958523642989064,-75.22839320930862,-99.77222907784568,-121.47590180897764,-149.38975284887388,-178.90954563805062,-176.92366204900884,-114.22101317540023,-12.514593441045324,73.18892637119099,112.83150104973582,117.95042357987604,112.57244943650404,105.99247740473366,95.04237872892246,81.88683939155679,76.19886427744288,81.13635257576207,88.40149891888879,89.23195726800654,81.94547007677308,67.44262216482366,45.94478162931778,20.95230207431802,-1.5098157340739766,-20.875416146381063,-41.20728934045558,-65.21705174037021,-91.54722875786067,-115.11217610354939,-133.26047981621974,-152.35281685996225,-181.38557703114444,-209.37175336807832,-197.484208611259,-122.82980699630501,-20.50769593845619,55.47264274364633,89.74838675356997,99.6614847705023,97.23175765609815,84.83877971554712,71.42469410466903,65.80872014004822,67.60493882115605,75.32587686825299,86.90028596265019,92.76912519126488,86.58762255648143,73.14895040209001,57.419300152351575,40.50485870165379,23.33487908178494,4.346393964200158,-18.029199036992928,-40.14645794987242,-59.166333271168384,-78.23688274937068,-100.41281042882679,-123.35510237242208,-146.79100823838638,-173.57684975697816,-187.16886419511707,-152.60428953171876,-67.19116582211836,26.401452943091307,88.19643568347178,110.37610536931362,108.02235942688517,97.47818309979783,85.57517802468048,74.47266811263785,69.60807347074491,75.49987689415876,87.4924066394959,94.53634188383373,91.43077049302657,82.9581182516669,71.11056927666414,53.66379203786455,33.42759473484452,13.370236020865052,-7.351736378202185,-28.043718545190206,-46.239661870523946,-64.78783430542536,-88.38051441707792,-113.28726228607911,-131.19437776174863,-145.32892664013403,-168.62600948238315,-194.33106912073353,-183.6793630385514,-113.32086052620676,-15.048478997044283,61.70297074709999,98.2966219585513,103.37657064765972,92.46937144367234,78.52969799754194,67.4313241843825,60.619021757871465,61.81073169856541,73.34813468782353,85.82013856631555,89.63248781938402,85.9822458954729,77.12082141863209,62.75082632523979,46.34376723653299,31.161377171681778,13.674127686386505,-6.95871246089013,-26.735137801334687,-46.50639099728863,-68.0769485935798,-86.98867414346468,-104.52685870140493,-128.5978724405204,-159.12198273344148,-183.62809276572892,-178.8341890176111,-123.42003995168886,-30.7735317091606,54.90961561443559,104.08775788847453,117.66721452769588,110.6987642104909,96.85716340818657,82.81963344588642,69.89095530743549,61.87483154758595,67.13425997725534,83.38421264538587,95.72986980704675,94.06341619459283,80.35541862527953,59.365327768876234,35.12573475466179,14.955436782881124,0.6248513387353352,-18.47105796415242,-46.47007341629795,-72.64571484076644,-91.89953111740893,-109.0039353957669,-128.83992451541891,-156.34741999358613,-189.3644155544089,-199.49593297617938,-149.57874653120973,-49.38165429827006,46.673758936884994,100.18064244492832,112.70069884395357,105.34658052315416,93.26987976045938,79.06495033785652,63.56930904036197,54.65023893117075,58.54719748836083,70.66789148794464,81.34554258875801,83.33880879014754,73.17660390076263,52.98473803907023,28.391262536208266,4.748317102277181,-16.705199972985646,-39.71109342637523,-66.39920873767439,-92.64170939459768,-113.75405969084433,-133.09139135415393,-156.68335525658745,-184.3303049924663,-198.20728845716383,-166.1010579013645,-82.30787845540785,17.04732907315323,92.39110003593473,128.61217529443246,134.79105026465305,127.876554076711,115.82364961370845,100.77932782685033,90.41452052287553,92.6988054981848,103.6836179837234,111.78924993543151,109.20517418532697,96.0467233748714,75.8979974497442,52.03096728569855,27.645655366711946,3.7011868962005057,-21.826547689057943,-52.03209196967457,-84.47304285021752,-112.76547391050636,-136.7024276096281,-161.84342058957895,-191.9690451933302,-218.95359873005225,-216.3437393962143,-159.9868787547537,-62.76394564208561,32.21112348422008,91.22864744611945,109.87536886512554,65.0,122.0,69.0
38.79017990770135,14.031601706146411,-7.2732971442702485,-26.467211839082886,-47.74124454181887,-72.7633734410011,-98.88545744257317,-120.81810269732273,-138.18350733769884,-159.60296412526307,-190.92847758931066,-211.9379033223626,-181.90466209919057,-93.420635932243,5.794264795036361,69.15383550346911,94.24953447792193,100.11909264780853,94.45462923947233,80.51763620594475,68.87949624906136,65.69246576398481,69.22027553080655,78.56388887071127,89.68500364139095,92.16079437604475,83.12919059320174,68.76099833685888,52.61181924962733,35.564378514134646,18.179695569771255,-1.841963419555092,-24.67340149335736,-45.92065067781423,-64.44728418144467,-84.3424923790926,-107.11958512158463,-129.87813211530977,-154.32499772370545,-180.3824456240757,-183.32581528582162,-131.79692742859842,-38.73651423678656,48.51155861140941,98.24059406512364,111.36347349525283,105.32237033954193,94.09298710758277,82.12621154384686,72.11488238022115,70.20983817327698,78.78797819854951,90.49584134484513,94.57927817035558,89.28194826751296,80.00291232107354,66.63517599159276,47.88896770268095,27.60801287177325,7.503380720062498,-13.47224724385924,-33.56852483284835,-51.28786712284858,-71.03806242679218,-95.86011590715312,-119.36783497642455,-135.09999633650446,-150.73447848111005,-177.10481270221393,-196.9094532636632,-169.0876125719423,-85.35326264011516,10.90351304696345,76.31992932879,102.33166953078903,101.19200694034981,88.34918744681144,74.94483721364325,64.94242981581661,59.89023511431771,64.2649430399106,77.4737528431429,87.91662349831351,89.16545899921783,83.97364174049154,73.48733697013002,57.96415044873798,41.887824456282125,26.54447348406081,7.859974189595434,-12.863544769180661,-32.26421220017151,-52.674688665652404,-73.99788428992376,-91.83785492008934,-110.57262499528743,-137.08483529196116,-167.66079553639054,-186.4794926150823,-168.34074965613075,-98.73013872104146,-3.386916459850191,73.31867051413997,111.09001531201292,117.05691079964483,106.9653820552814,92.70792400021502,78.93872837661961,66.69832676568721,61.78807537730712,71.25188092458927,88.0343075317269,96.78673895383554,91.08231905824589,74.89791706880312,52.42626966192469,28.554624000911527,10.520767334796808,-3.867691200775361,-25.97538584269473,-54.72126628605234,-78.78884894942493,-96.8133619908867,-114.257651205245,-135.79045380513193,-165.9735273012156,-196.58515350293874,-192.08737514826765,-123.73507290284557,-18.74692937872369,67.10991595023741,107.18145794923623,111.68694853192859,102.04037498404021,89.44655667570898,74.4964460454121,59.87793900653433,54.45565832652999,61.6304529921684,74.2897793312874,83.04732904324275,81.67492077573311,68.1440986371207,46.071421316249236,21.28190171198428,-1.5563657245771159,-23.010297112535383,-47.09670184772162,-74.33975466904823,-99.27608038888592,-119.22020403388015,-139.29071911462324,-164.5873180395734,-191.15273959976386,-194.8126566520445,-146.174912762186,-53.1285334369527,42.48088353099061,106.84692641350274,132.68597772406355,133.55470703945218,124.84251679219653,111.58995416475787,96.82119628454014,89.68239914943831,95.46084861037427,106.80822145108638,112.2776981608039,106.33022299997205,90.80254127568881,69.22634797582793,44.93943546938757,20.714716587344327,-3.352659967587938,-30.016688864050682,-61.486363364119946,-93.24488870324679,-119.9409095886752,-143.56218681637802,-170.0713564158387,-200.93345092657196,-222.70555228964056,-205.88470750821537,-134.44173922824336,-33.10675433250636,53.70102270166831,100.30131637189375,109.73095268717779,99.91030095960187,88.23511539291329,81.71649606847627,79.33183411482152,82.12407989171673,90.6497475382472,98.46203810811583,99.03893649196495,92.74978659864934,80.39917307079561,62.183907813493704,40.53204439324454,16.448686375791333,-9.129681187273238,-33.368416563064486,-56.732314864497425,-82.79594618673268,-111.2654457757759,-138.09616780908695,-166.04814345020122,-199.0966190852309,-217.6444892413598,-183.69835504881226,-94.49111503600216,6.442696541770969,78.22797750983582,109.35262450285232,112.76313409225438,106.47539246629735,97.65671503009668,88.85585554987448,85.74676284559267,90.72517814920378,99.60600227258028,105.6450126515419,102.5984989352791,90.02528183957189,71.8471133289101,50.719134379734534,26.430412882489946,0.03332378643629117,-22.76097475123585,-40.47249094852295,-60.80548246472382,-88.57455966646395,-117.45662456808803,-140.37125575862208,-163.57427181101983,-193.03496409131807,-208.15701652412073,-174.38851676977103,-89.08330616272396,9.91197838170895,79.91502286824802,108.65166973288686,112.41466081533997,106.50120805568298,94.24533826960344,80.00739706018975,74.1489179886294,81.4476567745973,94.51695895439568,65.0,122.0,69.0
-56.51315835997686,-77.79143904679357,-103.2379072594384,-124.68223841634959,-138.95178472368863,-157.24794797818615,-185.2552114303915,-195.26105725148383,-149.41239425407102,-56.37095674988701,34.00463201228194,87.5218226756077,104.09004320463615,98.05871687496726,84.23635692366834,71.662165227928,62.8322852799642,59.97681953908981,67.56199884643384,81.31438029865862,89.17116525395411,88.18682694836163,81.53545093571537,69.38749911031574,53.15718503821799,37.54892054402574,21.591332435172163,1.857938067729055,-18.59983827998854,-37.89863145176638,-58.97356120551753,-79.54015050397204,-96.74320516332928,-117.34998659352271,-145.98636701209625,-175.29228059160366,-186.2054305730561,-153.22579026360478,-71.75182794786667,22.240069260468392,88.28468516304861,115.3938855833619,115.13656450151964,102.93701585166518,88.62894141380838,75.14439625602365,64.0891024482889,63.02157978124175,76.04304078765553,91.94012344299283,96.55502577067078,87.24255211587237,68.91304423510248,45.335318215440346,22.542389570329643,6.481142276067037,-9.116466634611758,-34.1222259187713,-62.48236890170667,-84.38514661883842,-101.69756863407008,-119.83684278688753,-143.531148051669,-175.86654872447912,-200.86227972413155,-178.89203001235134,-94.62450545021024,10.043153369854204,83.46230878093215,111.1472502763638,109.57868939264685,98.568492975549,85.40469928458975,69.89583586628069,56.99846618342032,55.395879258274945,65.17977794098398,77.56027193681565,83.88189299985686,78.9505785044172,62.38901005494191,38.93385583007993,14.376936189772634,-7.71923277862572,-29.559154083233214,-54.79968567407717,-82.06504684928224,-105.42771289038166,-124.70238049405575,-145.97444772695252,-172.74907620120516,-196.13998992052927,-186.75661998156875,-122.28171963375952,-23.82396525657093,65.12243212376357,117.93757915415271,134.670636179359,131.607496640956,121.44233616163166,107.16831969725277,93.52517624010093,90.13200718208826,98.71107872574589,109.39732433286761,111.75669735383295,102.65280548028656,85.05431051764529,62.32886682887178,37.87319981964074,13.817150463739958,-10.619609436796411,-38.6680685366362,-70.971664618855,-101.53332822879365,-126.83139114173596,-150.6908308951923,-178.75916228079217,-209.27897968552946,-223.1519975732132,-190.54877495159153,-106.25956418813134,-4.816720822346068,71.62981342051374,106.17855812820136,107.98607221982637,96.17309437231756,85.81618097456992,80.64301182681703,79.48199930756368,84.15178579306678,93.38234561325665,99.46467416335366,97.82847264601095,89.84029525484193,75.65072963021484,56.183097909996505,33.83196067589491,9.088042682653928,-16.351752905285476,-40.06179844414182,-63.86192839604298,-90.96710148796626,-119.26198202672927,-145.7123266323097,-175.29447539568292,-207.64627745748822,-214.48300392956227,-162.19977142073958,-64.2610640974309,31.267158838250136,91.16757833664177,112.27185037590473,111.39883996793189,104.10879390551142,94.90734923192251,87.12288582600677,86.45087090771251,93.1601374949687,101.97462457314433,105.85588253334302,99.79694075353574,85.1751698446132,66.01130622819171,44.064490890249424,18.832527938302707,-7.189477970245328,-28.16941445262223,-45.682266356944034,-68.1417403369925,-97.28110003275543,-124.68652539722282,-146.50765616410047,-171.72467464539588,-200.5267406016525,-204.47291438488452,-153.90761227066778,-59.71020463569761,34.40667038674542,92.04242349876553,111.37411077650616,111.40120697925859,103.56696466026116,89.9262491612826,77.01734355044198,75.02887424680195,85.16205945500839,97.74100283328818,104.09550813299661,102.3925729119621,89.95831774679256,67.28768126623072,44.421630870067474,26.038071115652926,6.378344669012653,-19.069507618665668,-46.281928709756656,-70.09974327021541,-91.25358955469153,-111.02470104838183,-131.12127460334247,-159.25129613373701,-194.39132382347503,-209.060887547137,-166.80120991289942,-72.06192812648135,25.594733781885193,86.83962867045585,109.31778021744151,109.070304762976,100.00782321777592,89.04083828598817,79.50129822604353,75.82545095193959,81.89004575544855,93.80258069223709,100.93348752194733,95.12986709697356,77.97121322804817,56.54860916154945,34.47588587056551,14.660132385400187,-3.3381521977065,-25.45299181154409,-51.649709612676986,-77.37661184890565,-103.38292963384508,-129.33884020859892,-152.10836305288547,-177.69829245328916,-209.16074251175075,-221.14166404892092,-177.2792757384079,-83.27443487274002,12.345536613830188,74.41673274119866,105.12376589128601,116.78488881429641,115.76837659064162,110.36438125067966,107.37757037558349,107.26386218611405,109.65036096501137,116.98536571778463,126.02293040360284,125.90487631774121,112.4853598041721,92.36367903440242,69.9570912100308,45.72664963897703,65.0,122.0,69.0
-152.11841222792896,-185.36377367896293,-201.05764791137227,-160.02512633476974,-63.764110059929905,35.92990121204391,95.7845433503466,112.66270519954361,106.7823168571029,94.97330082360241,81.117979049574,65.47597224242172,55.13231263468033,57.353267485609976,68.9356394745845,80.30223592535769,83.74777505456858,75.21471174906497,56.05760950865667,31.71182413538184,7.727611462126669,-13.853422366785558,-36.42603319910577,-62.71798956518702,-89.41252204544442,-111.18952425936715,-130.3722587644043,-153.1854727063667,-180.80262100430167,-198.36539080561195,-173.74969204526326,-95.39682646065923,4.541273381318546,84.56727516059382,125.89832642482438,135.04191488466813,129.1494947984975,117.6768903191646,102.7488616164586,91.14703927340398,91.67206503627092,102.13392547968378,111.23771161644804,110.23163571802087,98.27541389479538,78.87268985850866,55.296096866234315,30.85921901208806,6.908279778982572,-18.200287981060775,-47.7388299623432,-80.2857924052105,-109.32701557151154,-133.58715642986755,-158.2162790491509,-187.7723672320911,-216.34331010656686,-219.53926440040073,-170.5905735503345,-76.60049715823277,21.19034710518355,85.8806966453197,109.2649773233916,105.13138811033245,92.64663040972135,83.86399724705137,79.86534999058391,80.14329451166677,86.61853878815008,95.82251838079206,99.7704297137775,96.11331275803755,86.40189564737192,70.44669287559032,49.96460829636044,26.918885863421245,1.6576116135859345,-23.391876131940986,-46.748234414181205,-71.31491718210474,-99.25252729156566,-127.02694887279323,-153.6085535032719,-184.99625909090022,-214.1490047821897,-205.9992428733467,-136.63342564884653,-34.37669110184415,52.911770132854464,100.72763541256631,113.37573238594176,109.59289582214095,101.58115160261136,92.24525943509045,86.03137062800589,87.80901407108134,95.77955673041697,103.92285886330252,105.18534017151592,96.26429048337349,79.96373599113723,59.96486723244365,37.11301012112501,11.129670996559328,-13.92852933073598,-33.23003988478828,-51.35815610538215,-76.12143196337556,-105.80972591497029,-131.33313805162337,-152.98049547990487,-180.41171880409615,-205.97151645547262,-195.91646646117292,-129.5518218847226,-30.39910601192121,55.58947356801641,100.82466944411888,112.56621161258582,109.8064742464963,100.1009829297693,85.63174523984094,75.00925675855561,77.00524220106485,89.0682198893845,100.3823131988814,104.47097436956393,100.08107536198408,84.11554637490151,60.2518686723703,38.77637572818923,20.83260273749992,-0.4113104295332466,-27.06506312173312,-53.58219516042241,-76.37106278772755,-97.12112498961929,-116.54632681258151,-138.07824418685578,-169.3583188736032,-202.56427308069914,-203.6670131565288,-143.08308484157791,-41.73814646752976,47.77007570144179,96.71717574213424,110.83000059190987,106.9347745891296,96.86567793072426,85.99099789862565,77.58888389604061,76.560201346367,85.14052585005228,96.84631058668111,100.72833167375205,91.01724191142651,71.98233071015444,50.13384407501273,28.39269516779252,9.506154557506363,-9.101744397868844,-32.84538196742356,-59.204325088956764,-84.75516228600871,-111.07463810047693,-136.2067841014357,-158.7456918978913,-186.6651801207746,-216.47705832121335,-215.11373341412454,-153.51730811013834,-53.52863573520703,34.20743004386666,85.8577425142085,110.11321185044822,117.50172100282559,114.24444263873121,109.12838003454213,107.12620525040681,107.6065371206364,111.1992002170209,119.84834543693084,127.37349027400796,123.21333184631608,107.02485024542308,86.10032052014014,63.09396284172052,38.60738425704106,14.065512283746099,-11.061928126194909,-36.833447781416815,-61.22463683565833,-84.34296858562288,-109.10605157022465,-135.96832825287984,-163.9765848072849,-195.58630000367316,-229.2186516684184,-238.0574442608301,-186.29226805487008,-83.55508736941083,16.879312025561102,77.43423007377649,102.11604887583104,110.22096322399103,111.11593794110256,107.59402784354285,103.82990720523605,103.54250494888947,106.83010459580753,110.66190474403372,114.14646855509528,115.89008028384484,110.18436227577169,94.932174371923,75.04994698088029,54.0923194619631,32.3829239304336,9.007233439529228,-17.53454140792791,-45.35345010783408,-70.35570513686966,-94.03644621735319,-120.12007875157931,-146.29670372820493,-170.6350405606926,-199.36036719154035,-232.97515385411393,-245.21051955057268,-199.2241738778994,-99.28175977751444,4.471745260567353,70.72207094360348,96.30491733469297,99.51003267816839,98.05168626133819,97.11701971526725,93.88408548982318,90.895546145736,94.67641319781279,105.84955839449634,119.96674748625998,127.0590599324411,117.74137535713922,98.93048954179801,80.83705880557096,60.94238531411459,37.54601532695567,15.432700175197382,-5.6742054556805215,65.0,122.0,69.0
110.02659163441602,101.6283196481754,89.5171075306217,82.31439885520177,79.41297013895063,81.3676782795437,89.35588352164501,97.77043469225097,99.4109205845387,93.92182997413877,82.41755423920364,64.86370035905212,43.552820036509466,19.795639121041543,-5.748277368300732,-30.25367353336169,-53.53711178619955,-79.10374517516115,-107.50691276679783,-134.6177435905856,-161.9864922418346,-194.7553618036724,-217.4790408862099,-191.97345294351138,-108.19926242633446,-5.933974210778203,71.06699145520797,107.2475632665211,113.17325321687855,107.5071255777562,98.91707068879502,89.8341074627284,85.66462187934906,89.70637924625866,98.42482833288737,105.26978170294376,103.61605685323775,92.11454071964356,74.46448000858753,53.694005466988216,29.863679923541135,3.485753462908035,-20.103409049782776,-38.16767237610238,-57.662229719933556,-84.57927670455504,-113.91256480560746,-137.56479150236248,-160.06126037519493,-189.16747062824138,-208.3519929767886,-182.31347625980038,-102.30456062006198,-2.3248879261993953,73.10262510426219,106.73855151583693,112.65611191607722,107.66939241030548,96.17397341396128,81.65264548494324,74.14311136716643,79.88602744441238,92.87010390785387,102.3740863007066,104.17625202359567,96.74827667038038,77.54882961888,53.49790894335389,33.487549174047864,15.31024046613233,-7.715908177397328,-35.028834387938254,-60.523098477555514,-82.49437412508553,-102.8621172891707,-122.18617114755516,-145.95839282693382,-179.83199095493575,-208.06097744825655,-192.7208143927108,-115.7207978867824,-12.613537094555682,66.30958146607045,103.62916013343204,110.88478973436334,104.32829829095164,93.67012366573391,83.12778950627663,76.3061224830195,78.16517300119472,88.68502936506083,99.20022532772794,99.30879237434323,86.11426896799503,65.79792950512056,43.71055943854374,22.5928251055803,4.408612960450985,-15.372752636546421,-40.45841408143527,-66.6381594828318,-92.23730213486145,-118.67794030703213,-142.75560276513568,-165.90662216505612,-196.03553805569175,-221.19004303972287,-203.64767579840122,-126.3319669604809,-25.03806925238295,52.81030399247379,95.03852036245932,113.73430975566876,117.29036417765974,112.59903672480894,108.19808982982725,107.06752566874952,108.18597725115181,113.23840644031203,122.66003072338722,127.662216654933,119.45533238668088,101.22245046643349,79.67196244230874,56.09360439458921,31.505006322560664,6.918990058245198,-18.516474348861713,-44.100072006970805,-67.91612349075918,-91.2322209117716,-116.71529838324945,-143.92349651012785,-172.54940770476819,-205.67723758591706,-236.19751059861548,-230.12894635091806,-159.8512978115263,-51.862048656979894,38.98682044681103,87.35168965043925,105.49941241650328,111.08451464391274,110.3993739445552,106.33141635282743,103.2884410193414,104.24841083556623,107.98612304754893,111.6850096331739,115.02823074624025,115.26372507557416,106.61509355588052,89.41725008176482,69.05847857495186,47.91413971819756,25.876835959034047,1.6825246610846791,-25.65166173429492,-52.94682660140054,-77.10750572456878,-101.30234513364483,-127.88743105801913,-153.3761938191979,-178.12712983080445,-209.13697979822564,-240.55375110456262,-238.88186695324038,-174.1601942934853,-67.21276437565166,28.28797074637384,81.65895343872421,98.59290165024957,99.0580823802895,97.83436076105033,96.47917572564675,92.67764556599357,91.11796845256994,97.2774180440947,109.93072861559692,123.32890354451256,126.09823745765893,112.63331958584352,93.53979753508551,75.52577631126809,54.36392858898149,30.870021215407828,9.41538084577333,-12.067798785571767,-34.519908108427366,-55.549818900770326,-76.9684105801762,-99.48310098265442,-119.55302966634696,-141.28679009678123,-173.5175106506395,-205.41785906360428,-198.59466394184213,-126.8528442228715,-19.84923381862002,66.41172400597753,107.64558286356615,116.99333328570854,111.5488528603034,97.29511913933959,79.54780580450291,68.20715863306567,69.3914504251144,80.41572314789488,94.70630420231333,103.61693188269658,98.37449325895396,78.4566389049724,54.46403927360751,36.18748794354561,19.513830242367224,-4.817025595425672,-32.679546158120694,-55.598226919781325,-76.02898117020099,-99.44300996492541,-125.67956483343534,-149.7887865612524,-171.31105722039473,-197.23325893337127,-220.50683817269797,-205.12621661917873,-127.09231189344786,-18.02824031247831,69.28217131435848,113.39518426619381,126.28904920855993,122.94404683618805,110.41025119350692,95.64330868348243,85.34508067355574,83.24973041650043,91.33456906985148,107.18066769672613,118.65981592822925,113.70588004075383,93.05860413827853,66.2277757737422,42.28335996233691,23.914867686741154,4.503444987888712,-20.829164257964308,-48.80208688863963,-75.7522961757556,-102.13793025258727,-126.67006631160304,65.0,122.0,69.0
96.32033871831501,103.7032437064907,103.14534721989138,92.3412773234868,70.56143413661975,47.175571679983065,28.38480537591281,9.32133818346234,-15.423926993454877,-42.79860198116958,-67.13971501442596,-88.5118759555157,-108.47222419155712,-128.1723836106847,-154.83940004521267,-190.02132567208125,-209.79816001097603,-176.19137211456598,-86.08414158809295,14.221795695571183,81.17737085489512,108.01815506202138,109.83886105301175,101.41698246747576,90.48701315211993,80.55490608322857,75.78334209768714,80.56022059808213,92.24104820210844,100.63338665412391,96.70223186395417,80.63620937154934,59.48773621023773,37.356160983424196,17.09989687710085,-0.8252831384231682,-22.16488296439046,-48.12951404352345,-73.99208398347938,-99.84376157505756,-126.04993756216811,-149.14619761022388,-173.79611247271032,-205.21803510462487,-222.19707173295146,-186.76443410380267,-97.06934536731991,1.2015884649235598,68.26895863194623,102.32324012633987,116.09370422014565,116.36678717818423,111.02522138035278,107.57262230206825,107.16656419643977,109.09424782943856,115.72384743191003,125.10685977185307,126.74523820904784,114.83869270023473,95.19840832009449,73.06460683830976,49.007468334103734,24.422693040902583,-0.31370705690437883,-25.995879684734174,-51.19219822655934,-74.55137088711001,-98.33379013762863,-124.46832731649965,-151.9588118118997,-181.54765871709137,-215.78146326387736,-240.10857898359845,-216.40229339206604,-130.05171942654073,-21.846190330325612,57.2657285045891,94.73684834784423,107.93203248977265,111.43869215981104,109.38228326842803,105.16390382750214,103.11443365042133,105.19995666370788,109.10929944913997,112.69912789362722,115.68434354282289,113.84293768325277,102.29024476912872,83.6724469298921,63.01479476291825,41.66754113896095,19.19523417231392,-5.941351849407546,-33.76962395947095,-60.219874849209305,-83.86980312696555,-108.82424265414609,-135.532092301663,-160.32607836972727,-186.22333658169975,-219.17339322718882,-245.3762071345964,-226.8866970024925,-145.3209383913371,-36.30094700050908,48.32240945578725,89.474060647259,99.54466946493076,98.57006564571557,97.63204698550526,95.57178101746784,91.651322933099,92.04535235630313,100.43566585967945,114.12635722678645,125.77534695133104,123.63122918351114,107.10135788436824,88.3387502003972,69.89362298115007,47.55561026210665,24.435068446426072,3.3769255819071757,-18.57795508023939,-40.76053482111513,-61.545231725759585,-83.51226792840698,-105.59614380516273,-125.18513738870426,-149.40500009245017,-184.0912901734349,-209.35622849657108,-184.36619582240726,-96.98237492893203,9.192722112052666,82.82452676905888,112.66138503683199,116.51424665320815,108.19973239602481,92.13905373088537,75.17223600932806,67.24602904219638,71.82066758305092,84.54822594978049,98.26827537893725,103.81905874164926,93.81614235922626,71.3422953685162,48.474251723320535,31.723114476895876,13.402466118431992,-13.01330873725243,-39.907650899412445,-61.45490440072955,-82.3630239834206,-106.91229782442905,-133.0718056236246,-156.01676105186525,-178.1180891589321,-205.37777217768945,-221.91967161134332,-188.68892245554852,-96.24515104428778,11.21549894645551,86.32898016914811,119.48339688651708,126.59902079651404,119.99659701958296,106.03742874535787,91.98151280439828,83.79788418920043,84.48708508503528,95.48062614531001,111.63559830284068,119.16062431695961,108.99629410301044,85.48616474951973,58.70864272635513,36.56424765564202,18.791134411297758,-2.2339882735415815,-28.88546074803496,-56.71853475206092,-83.40879759387211,-109.56345450601641,-133.05828688793125,-155.02373623392734,-184.4927583633251,-216.34737596399168,-214.2970643649334,-149.06776487033864,-44.04519675400656,48.76315122905897,100.29525741551262,114.86135696749893,113.24977874997052,109.64632987272014,101.94388270485902,89.90175171368818,83.85513067429184,89.15438654563239,99.85823032005386,106.62818664701048,104.52590691438328,94.75460411986118,78.91498824449437,56.27573501199546,28.17950570855833,-1.3493000688719345,-28.170460684066875,-48.93108563996663,-67.49115841651047,-92.81872494848767,-120.6919488322576,-143.4333047917282,-169.3118657854845,-206.35511124570283,-233.54582453051154,-208.20813924103322,-120.8505113991275,-15.029817556172453,66.06443562514448,108.65862993474266,118.59455593350111,113.0811058464063,105.6839767409435,98.43178840789994,93.60639128480754,96.75634340464772,104.50442990232823,109.16428042355317,109.22021054000716,105.01059151511922,94.81273802376234,77.55720031292302,52.5813630409093,23.374673578268442,-3.1760248865732446,-25.9453953453286,-50.127312866990465,-77.4855425649746,-103.39278507598556,-126.26773702720604,-149.4745269969865,-177.56329838311137,-211.2737424847271,-231.27429284762277,-199.0162776969159,65.0,122.0,69.0
41.88872181835765,17.34024149501026,-7.648225887347843,-33.4353857898163,-58.09784941110797,-81.22634014742077,-105.6585460189169,-132.32233493344242,-160.13342333436012,-191.04564477362933,-225.27856375438725,-239.8487329302252,-196.9956571382487,-98.36928598376473,5.433739368146612,71.85382213014081,100.1470702262929,109.63923682047226,111.31849720894748,108.17858572532039,104.18956843477551,103.32344736676008,106.29952287177353,110.18194898547159,113.70040430802663,115.94952538726149,111.54434235070819,97.3615111334693,77.7911738060227,56.920396084839524,35.336865855047606,12.284330649866012,-13.829583195099673,-41.75188967563214,-67.20648468901145,-90.77612830215013,-116.53369360413788,-142.95780392855065,-167.32716899093532,-195.04777446421622,-228.8574601384096,-246.3406456009338,-209.1921171745277,-114.08075062790901,-7.695117476936838,64.51185324245134,94.65669921561778,99.6392472363928,98.1844523107802,97.32474239230062,94.44527677688988,91.0105646087138,93.68846797000421,104.05553941238968,118.20521747007393,126.98518911788993,119.84495066151747,101.48352350279315,83.21750237409844,63.86007561883401,40.68661732244297,18.233551774171282,-2.78059115626074,-25.116628779656807,-46.836235429293275,-67.67691264775488,-90.09143521065867,-111.40922281215295,-131.1975401033768,-158.5875070785511,-194.06431715929875,-208.90131673943955,-164.47876269039062,-65.50361205950335,35.19712363672246,95.37636033429028,115.56917519657716,115.0950374919747,104.17369353426393,86.8758276986681,71.6040322994561,67.38529595867644,74.94095159409719,88.77866174410312,101.14659795108776,102.64378251843387,88.14593282711267,64.23327414391575,43.114919234066264,27.12068283528142,6.485145196951868,-21.22506489561458,-46.59810911638528,-67.27220018993495,-89.04670511532902,-114.54435979290598,-140.1377411151859,-162.12225426328516,-185.51402859899883,-212.84616598683962,-218.95963590427,-166.87153528896172,-64.14907552885701,37.46433198099976,99.69215563120443,123.45778754488956,125.80699817400753,116.41607901845663,101.667196496955,88.83557836389139,82.99092506144406,86.6280276679322,100.13280929882363,115.3341400113149,118.07891338210504,103.14046255275396,77.65579223343818,51.63127241372869,31.27621488260859,13.34484004572585,-9.494563908815932,-37.017354246957076,-64.51068127156849,-91.05364609577302,-116.74992090475753,-139.23502711313267,-162.42831088796316,-194.55480929515934,-221.23128310707023,-202.01000844282942,-120.52380617689427,-13.976955785280149,68.22200163555071,107.51054598300686,115.10498674961134,112.27738517868478,108.09548665274153,98.55932794471177,87.06594233822703,84.3144631448896,92.12575757756696,102.5633915492228,106.97009386643546,102.36023161914856,90.82213944061135,73.0839290252078,48.56730524829273,19.602766772031796,-9.556996512584991,-34.8440855274557,-54.05692268930824,-73.96126917177573,-101.14658905955189,-127.73677613212713,-149.93804046617848,-179.08298310997833,-217.05858160931348,-233.19533662763905,-188.11389765142303,-89.73012573103227,12.039188150007144,82.36732397929198,114.24322726004179,117.77116346426179,110.87507479802504,103.61444829067403,96.4931355133819,93.61968074296004,98.91727158389202,106.36921526552366,109.58925860056496,108.50970408461765,102.7393696629393,90.59839975722939,71.10497395520909,44.26362340723364,15.205389268869725,-9.965615829079892,-32.5538052433478,-57.851622685677064,-85.32385491639728,-110.21411339578786,-132.74643876557369,-156.88840775324854,-187.02878546042047,-220.07011957612937,-228.78807282083497,-177.2424177325701,-75.02774577130921,23.927723701972823,84.03935097260972,109.71203031877039,113.09781611324647,99.41753707458243,80.9400455784857,71.78367581855382,72.71428587985062,79.72516087467807,92.58952513891134,106.63623656506476,112.2176331431985,105.345882527706,88.12543025610488,64.88477533545549,41.809892005777336,21.15257477461944,-0.35159815008855816,-23.64045676109001,-47.35131671581026,-73.2801531545394,-101.74992334908775,-128.03987238735206,-154.95036815340544,-190.3399484124791,-222.3609201120743,-212.55057369686602,-135.534658982056,-21.098604929420453,73.90225087888015,121.19949891370803,129.4793697346467,120.84576204201515,107.99506922913848,91.35038691666925,76.73684878802105,75.54423397306383,87.01677690291496,97.90903779509627,99.80424211358354,93.90098374681962,81.45602932564064,63.56894169710007,42.01368863610296,15.060092847232935,-14.926860231308375,-41.29299792120931,-63.44309688749716,-87.71529901835892,-114.3900716011288,-136.55602128092795,-157.5490872691622,-188.83319750602354,-221.6018996019164,-213.4110015198101,-134.25068418474146,-16.738019837473146,78.42405507858516,122.18886977765652,126.0970970678015,115.33992447431226,65.0,122.0,69.0
-9.101573841348573,-31.584507970976265,-52.80640527193693,-73.99461837716139,-96.56826196634432,-117.0010141217583,-137.8951337564065,-168.6708089818165,-202.42223500974754,-203.17159306811172,-139.6540343178818,-33.98570093786813,57.484756695133775,104.47149527230978,116.8473410270991,112.84651407789077,99.57122321059292,81.77082615612451,69.0282618744404,68.54515975564482,78.59608629462424,92.9021028930329,103.09504136383215,100.04281079074916,81.64385949608177,57.43169086495235,38.28933325278441,22.066587754370627,-1.131137891516232,-29.167249457098592,-52.83497443316466,-73.21242667247193,-96.08714763584625,-122.19218160819763,-146.8259849439342,-168.33859317498218,-193.45653537161363,-218.67728056315553,-210.78803384263134,-140.47983935518798,-32.27526445915903,60.12537853824843,109.74442924684121,125.727395945389,124.04739898312968,112.37596197506926,97.47344375730736,86.29459038342202,82.97522253629856,89.65880327653568,104.98105991702622,117.92102947143411,115.42757460527622,96.39495088516536,69.7991157552084,45.10061698359003,26.226852097308615,7.420150882078284,-17.179841087166988,-45.10773035344994,-72.21603720129559,-98.66054289193201,-123.61918056799936,-145.41000500220483,-170.7426735755805,-204.39573875262602,-222.10871783883448,-184.09757297574762,-89.81778076687422,13.810649652125928,83.90229748073138,112.00737790903807,114.57811474657372,111.30422758738173,106.02174314139582,94.94616857705866,85.03935483491293,85.72470886112161,95.31683849708635,104.72422942462755,106.51785675470879,99.63426474220572,86.38478449276816,66.66171763831653,40.47358148689541,11.015953320844547,-17.443001888699627,-40.93393268259196,-59.22627038982337,-81.18095799433956,-109.38643658500104,-134.2770606089883,-157.08473201435945,-189.84383554825925,-226.041391886047,-227.36227777171365,-163.23550424984302,-58.495270087908594,36.29599840629557,95.35752056839034,117.39776419760591,116.14265769315283,108.72145283920112,101.50851516041912,94.90229927220346,94.40703391733022,101.2530304664318,107.82305035795657,109.66878650932982,107.41736243080146,99.92730466268439,85.77323982335867,63.99481180347889,35.74885331314586,7.422732201448316,-16.50749901707676,-39.43787948845152,-65.7961095519516,-92.8971111462899,-116.81737567466604,-139.35492095028798,-164.8340509358169,-196.91771251109293,-226.9512073810693,-220.91427079694202,-150.8822636327253,-43.68282145639306,45.65680567308286,94.29063283008517,112.71805092486014,110.58268455510732,93.79109247799175,77.03016227349501,71.25693117385339,74.1630975860692,82.87507864098794,96.9546129267877,109.4615800093174,111.48337695485789,101.2786552261837,81.7743683479626,57.95315944939547,35.695815674388754,15.164145721353032,-6.971542330970837,-30.44618166542859,-54.474306311540964,-81.43170690001455,-109.69791864370865,-135.31940156038246,-164.236042746478,-201.29286696728704,-225.7200206139771,-197.01226746015564,-103.73703917902075,10.431893032856795,92.61416324519584,126.65083214833545,127.83517957063286,117.4479637736953,103.554938368813,86.36886074610672,74.69951153712148,78.03888577801601,90.82654476858896,99.43391352386313,98.78053430632474,90.98358018999541,76.72021624172599,57.751087501694265,34.836803847365935,6.404576101606501,-23.13026574362215,-47.899639211583924,-69.98390430222639,-95.48490787664412,-121.42594281710572,-142.20047133843295,-165.25605757392984,-199.5193677218596,-225.66969953568056,-197.62699417460766,-101.44733892666743,15.243684715984012,96.42817989925004,126.282284159269,123.54494502343209,111.92101681761756,100.72047062243676,88.95883459467532,78.87193255517028,78.21511025064997,88.64002578136453,99.89503741450217,100.33098141456193,89.54100624300976,73.0046499557531,51.709463655496684,24.164605970347928,-6.649111145182834,-33.515829978556155,-56.08582952177935,-81.00165349631793,-110.35695219100208,-137.3557486199328,-156.94245250303325,-179.76126249522954,-215.16109682702788,-237.1269019956686,-197.5816248427956,-92.60931203276648,20.70230198375647,92.47596056291107,123.84297590243489,135.45517070149,135.03981764285658,124.41225435034171,110.76880550230153,103.98709187775827,109.47024776058623,122.20509945883408,130.19995349516046,126.73308359227194,112.43796383198371,92.60778684815422,73.10381294478151,51.698209037209466,25.27845020908824,-3.4584160010985263,-33.12239944999791,-63.76895677801867,-93.27232980683613,-120.08633293649984,-145.88055597265483,-171.54647411261453,-201.31364070544913,-237.88987037420537,-255.33577945801514,-210.7247552883704,-105.00336837355567,7.553145352390364,81.45709324144106,112.39637698884312,118.9086513785428,118.24054608392048,112.34018773766215,99.49912591217408,90.70632027746255,96.47122349655857,109.57536606926548,65.0,122.0,69.0
-130.1484565876931,-151.86676716654077,-179.97992849776261,-213.05978158496143,-218.02998159756424,-161.11438927256606,-58.39215076252734,38.538269596409044,95.9168377847261,114.34614343530804,113.69665784571652,110.22633678763938,103.35892486198381,91.41265786831511,83.98935487749891,87.92840225066519,98.47697453353307,106.20240657717457,105.31416459906116,96.40509404132659,81.40422550737696,59.67383360901552,32.101746092955935,2.515309911609552,-24.902435662673135,-46.49964052540382,-64.75023440531159,-89.04279721697914,-117.24804007780317,-140.54348472335255,-165.19376297807642,-201.1513654024572,-232.08473026987116,-215.61402401967652,-134.78346161662355,-28.3222380902544,57.42561207867707,105.1558672082653,118.57918876467708,114.0896098166632,106.6345387007082,99.38873922144437,93.8578713893637,95.88654853153601,103.52966877903538,108.83852560051143,109.43393210693158,105.88245532403984,96.55801189229142,80.30386479524888,56.29610086410956,27.24119065421711,0.07250627892479089,-22.956967503961778,-46.671526246706904,-73.81113572473814,-100.15369441134594,-123.2953308223722,-146.20361847989855,-173.39817877110838,-206.8462017591581,-230.81688636750704,-207.2535767171327,-121.20387724633596,-14.10735066580107,63.73859094836708,102.06939684565086,114.04875728741013,106.75080449451947,88.19652023173312,74.15309111754344,71.44168186410039,76.06562990059844,86.53418027488775,101.20633868161835,111.34872325941768,109.70113180510396,96.42717966818437,75.04430431967572,51.20215372684312,29.75436096795341,9.00496663505582,-13.708270783236367,-37.261458065234656,-61.877187989193715,-89.72641559194868,-117.33172597222935,-142.86521607581173,-174.39335487632343,-211.36706699676424,-224.44099204679586,-175.64314763226434,-70.14539339396053,38.999156256948645,107.09623980134072,129.32442617612907,125.33544876071021,113.82281262505626,98.75255113205176,81.83546113235394,74.0384532410683,81.38498086119968,94.20916011712679,100.13227546420735,97.18898964463932,87.50860781442734,71.59617531457727,51.63816278360823,27.139372961301365,-2.355010985567363,-30.87233434056175,-54.24141066468016,-76.89320388211736,-103.32060228758996,-127.91558953473073,-148.00544628168615,-174.10281571717132,-209.77288675310766,-224.9791718991283,-175.66054698521364,-66.89640738657907,43.94597649718225,109.91085512617781,127.63175057849223,120.36911511660229,108.61043999985932,97.43849156388356,85.55977797144762,77.41334521698039,80.34838521919275,92.44433273087976,101.40202477825677,98.10267934374095,85.20326734020273,67.41342230353922,44.405981788687534,15.273954538418804,-15.044217647111077,-40.22610356288539,-62.77320718110878,-89.18851928530603,-118.82343500954644,-143.62467298848506,-162.43312965315369,-188.98722920759522,-225.0892444883055,-233.58565417586033,-172.22051527477677,-57.67179185526702,46.559825247236915,104.69846060115958,128.58835712103277,136.53728537402276,132.8183433019702,120.33508016921256,107.71835479117203,104.30591533142857,112.90777549887305,125.48017162379175,130.44196406406832,123.57148057880624,106.93747138205677,86.86268274656346,67.37172997897787,44.52309534589469,17.076407498254277,-11.910390193464316,-41.926303155387124,-72.53964785830445,-101.26049689980407,-127.56725061203828,-153.2698210310066,-179.36089528773036,-211.5989865774752,-246.9312986917323,-250.10204015607405,-184.64265902887186,-70.44694717536777,33.785245308984535,94.19042722253681,115.81754532313066,119.0571804345896,117.30483087285839,109.10384644147769,95.84018176022977,90.84031771479896,100.19560696515381,112.60662453141194,117.69741472344221,116.41573711124407,106.77806553056422,84.8543375993334,58.242399191883756,35.6691730059426,14.63236485818481,-9.033885273005344,-32.677614642721885,-53.21727912661708,-75.10717727711135,-102.79410909048663,-131.55972298684347,-156.6226163110279,-183.64798800067362,-217.87480178034195,-237.3556561003037,-197.04068002280908,-90.07466921476797,25.021644993198223,94.43063597663352,118.01841220053115,119.82431873213993,113.30867974400225,101.17230918028301,86.78120386936587,79.24347082565195,84.1425862835591,95.13516938472648,102.12107985597407,101.5631861639513,94.52168080619603,81.955703958084,64.0846359365409,40.739957690124754,15.576782596085444,-6.44020671482892,-26.836694423711698,-51.281922513130745,-80.53229329246204,-109.06012307722938,-131.51165908066656,-149.94958372420433,-175.02402840769838,-206.46577242675656,-211.31296316077334,-151.16794327805007,-40.298757921115474,64.32676506796403,125.5706418932184,145.3533823274895,140.38853323401267,123.60534515484802,100.50246354085553,77.94103881449671,68.02442732878401,75.90556181318692,92.5820894328787,102.37066134087486,97.30164709248486,81.72027601118623,60.260688822181166,65.0,122.0,69.0
-187.91400972821592,-89.71788276661458,12.693309695429235,78.36369020312006,107.73629348157127,113.75972307292518,101.89519072502482,83.05866090348871,72.31001733364667,72.19920397445453,78.45166748464905,90.61236905311743,105.06422699169116,112.19264920602133,106.93300747766223,90.8844955236823,68.10516661430803,44.71036656546004,23.874653337453296,2.6456102732637303,-20.502293753340897,-44.13767932339706,-69.60814777828776,-97.99415290479632,-124.69582773772912,-150.96335945126197,-185.22911163431655,-219.54300470302127,-217.67169626152221,-149.16127247298397,-36.34107422082796,63.836867704858584,117.59284892521455,129.82009663619036,122.3349295458358,109.91358695463438,93.70317939526896,78.10119006802896,74.7692493304354,85.2055596599918,96.9236530277062,100.06716877415472,95.06172489472546,83.48491633970525,66.16336038530459,45.15333914301319,18.962350279198148,-11.017661362695275,-38.11427029215161,-60.515252297160416,-84.21557277265325,-110.98012711259751,-133.91102848283742,-154.34724466674695,-184.0040478821011,-218.4722080653478,-218.51487491580875,-148.3239793859042,-32.281001470507476,68.57332873392876,119.19045826043947,126.92903143319687,116.93842653633658,105.39255457291452,94.04383536514128,82.44312987060081,76.95124002421474,83.32868747623586,95.96229902247282,101.78677585891992,95.06678578406816,80.50058770626366,61.39373776655211,36.54161303186609,6.265904411908191,-22.933863461472985,-46.685049375285125,-69.84162459974877,-97.70465108338391,-126.84343768912595,-149.2551114017921,-168.64120950620205,-199.32412454671905,-232.78923453011197,-223.74953851946236,-142.04512257545147,-23.844607948604253,68.19957613133431,114.0551518960703,132.1274580098489,136.64114433075636,129.8175667078701,116.24167541019281,105.47854502225894,105.70940229872515,116.70557392318149,128.05396030659256,129.66257168237,119.56165557407213,101.15919190206291,81.24441117081811,61.32528729047699,36.92693960519091,8.776555888014306,-20.450120298307716,-50.80070469754805,-81.13720232644457,-109.02177887456952,-135.02309485456396,-160.6375873381512,-187.72250440556724,-222.41038188970583,-253.3382123562636,-238.68612491871627,-154.19408153429632,-36.94815173119839,56.07945470402292,103.59656464861847,117.75531783801691,118.91756569310306,115.8012024154139,105.33432994276879,92.9279937438476,92.3176512695939,104.16117885528588,114.91908227437479,117.8898191256552,114.78702344868876,101.60792080430613,77.09113552700782,51.22283906624285,29.71532944673401,8.074249903915122,-16.10349196247374,-38.88049941159721,-59.07261695869295,-82.55610617199935,-111.34454822072871,-139.1438443478614,-163.76650551802385,-193.05158603843944,-226.9256434551797,-233.52595799245256,-171.2916702067599,-54.40939651497877,50.75097274576302,104.90903057118857,119.87339596276101,118.57544404916307,110.33358035107969,96.92930255973042,83.45346898459475,79.45098311566889,87.18928390306186,97.88112488699119,102.70872894452677,100.14334987405277,91.42591232351788,77.3625893706695,57.84789725378637,33.3754562388268,8.806492949533737,-12.248631584227024,-33.29745432790569,-59.40741807960688,-89.1536039055489,-116.28033883989013,-136.87307853269962,-156.0469344807245,-184.25412813876017,-212.74745498505743,-201.30122749906425,-122.08946831277781,-6.972042841567053,86.98152357548447,134.85055195261367,145.74268808775014,136.39975938779736,117.41474359291557,93.42222224073677,73.29467198702288,68.6186300234156,80.50411907887853,96.73528833985483,102.40696795308034,93.5599670041383,76.07973306690371,53.04555660616954,25.787553519107814,-0.9152575891070696,-24.908591064165407,-50.50327783926822,-78.8267171552823,-105.81342218478369,-130.9011677159664,-155.12683939362665,-182.46169200496362,-217.1803918243967,-236.08109651696972,-191.47092189400237,-78.01917532675067,43.57559527127817,115.95235584301226,135.07392786171025,128.29048166360948,116.28602466454463,102.11099343111967,85.96394039835135,77.15195977111667,82.84672865073418,94.98852717018391,100.9966142170769,96.00906712411933,80.73000396626647,59.11703715782479,34.802080670807634,7.540016485123385,-19.99257222095944,-45.24746463181653,-72.640815682317,-102.12303600328006,-127.96434348239193,-152.45090597127503,-185.10422480224966,-221.95603408429142,-226.06488010098917,-158.69610793315155,-38.657581244136246,70.98611623010761,129.32501487477992,142.95692873914786,137.06853834963584,125.68839057740553,112.44862490605661,101.28230115216067,96.40789697979463,98.56376840878994,103.60858815953416,104.57043535455551,96.39764143738029,78.95591947882839,55.041164996838,29.69278919544938,5.7250490454411445,-21.36323095056623,-53.47510823147915,-85.00564577635886,-113.51413846315192,-139.64025419287393,-167.2349287239263,65.0,122.0,69.0
113.48551994644274,102.20315842544848,90.5653727861857,79.8373156922709,77.56805344119702,86.8915377740468,98.85282587469024,101.03725096053408,91.40104622223889,75.45226117722433,54.887798593792326,28.16723485429135,-2.6377680283321805,-30.2899451163486,-53.09252163171277,-77.3711689971766,-106.37220861987389,-134.21183777551548,-154.5253631213925,-175.95233258089283,-210.204782473466,-236.85123340052638,-207.3181355940637,-108.62063972081594,7.436843541710225,85.70045261714591,121.16822282243838,134.63027415952092,135.76500386080218,126.21574685403272,112.39181733687623,104.21222609580103,108.09274356913023,120.52735422626866,129.74679993333126,127.88096411918428,114.82404242497869,95.29627121028597,75.68423328538911,54.846724772947645,29.00796890964824,0.41531142747390204,-29.097548336868062,-59.687634539987236,-89.50273322132917,-116.61900472800775,-142.46101787618682,-168.06266021474624,-196.83288091877955,-233.17528859947228,-255.83342373756247,-220.94140786456506,-120.87629368352555,-5.770919784776543,74.35107723398349,110.16981400877853,118.69766327947033,118.52624795405612,113.6018751811775,101.3246352165409,91.10930946487292,94.95180894296094,107.96715005986411,116.50649181325723,117.64478906816424,112.29998154627292,95.38647398040712,69.25662183140417,44.65418160556707,23.72545525843536,1.2492628690178738,-23.034194833896187,-44.80321558962167,-65.23433097687496,-90.52218128241256,-119.7786661625902,-146.3741434575271,-171.3384960560521,-203.08502039483142,-233.82385855895154,-223.51718442371373,-140.551899664843,-19.973070623727516,71.8301800285142,112.07269177488415,120.48833911671993,116.79468611961569,106.89940754322866,92.63468179195272,80.97346132392762,80.72556032068226,90.47878167512556,100.07492147266441,102.66756344289922,98.2139480929337,87.89026800671259,72.31726292526764,51.15487867692953,26.0124055232759,2.3865975209543047,-18.042292458342814,-40.234427706720616,-67.87174156891632,-97.54046462957953,-122.89204200686521,-142.05525465538867,-163.02671413225676,-193.77275971192194,-215.63178378712135,-185.1477162107936,-89.83512640337732,24.315255896671392,105.54926501854027,141.01501085997418,144.4886631438221,131.6603992203926,110.76250207090364,86.63395151327313,70.01845403393969,70.69251039000093,85.48712679959061,99.92115139471015,101.15260879950358,89.13670131387615,69.9899410498424,45.44074070586539,17.789173157996686,-8.018806039888108,-31.91933314263455,-58.58171164607825,-86.87790779964764,-113.20092505284245,-137.93203495591723,-162.36565508976997,-191.959103364087,-226.34520775311236,-231.38601573465962,-163.96776924999222,-40.37362324230657,70.74867371090596,125.94603218822097,134.5054116790655,124.95565554724936,112.53125204863369,97.4012207445384,82.12378282879469,77.37456688473937,86.33758263589868,97.72667175209462,100.7228020251276,92.5314055856104,74.90789878247303,52.334709448558236,27.22755884880663,-0.6228226068562704,-27.417518039223705,-52.73433265208984,-81.21608430112923,-110.09222805755411,-134.78845631549922,-160.70897205957152,-196.32012755061962,-228.7758133530483,-214.49824761081797,-126.90605593611961,-3.1878680211002344,93.60158075423328,136.73151780408153,142.3259543460661,134.10535090939024,121.93083867372798,108.78850387518705,99.1061827105731,96.40224017054331,100.01356237689802,104.6117302265151,103.24040891625766,92.22339617631484,72.53015014807221,47.617130719956286,22.70777055918728,-1.5085450433280803,-30.317648399846156,-62.87416169554689,-93.5326584054007,-121.25690311196693,-147.11677652607162,-176.64881689195542,-214.65004516572725,-243.18721861662328,-219.1371547401639,-124.71727435339248,-4.6690166735919,80.85270080286634,113.6623684166284,116.40708938791774,111.86610468228218,102.38835299125333,87.99940432124124,78.86883959802175,82.07504433133127,91.42165577537769,96.4778543593725,93.76063364193021,84.73908694548479,69.30839882476752,47.32734015691318,20.40432718876806,-7.672393399578766,-33.23181758086402,-57.53922185057366,-83.71020340754772,-109.49169739579304,-131.2532722677515,-155.6433627139605,-192.67773393066685,-225.08512500698126,-203.70780257526883,-107.37509141459125,13.730869922296012,95.6527454735339,125.06172155112876,126.64837441753352,121.31832649208411,112.05174258250999,98.06935515144392,86.95089145434521,86.84619034444017,95.65189094116369,105.03161310638035,107.30181952050845,98.06831308509408,78.62685107731875,54.80071484645531,31.212242212712088,8.544603955564307,-16.283976580629265,-45.657935984215875,-76.32085401613139,-101.77787392072591,-122.23420056690483,-144.59527757080355,-176.43372284161484,-214.05886332577867,-222.9987895634086,-162.96137804353188,-51.236963977126095,48.533828254414324,100.82317766770538,115.75261495782985,65.0,122.0,69.0
111.29360264936281,117.4491470100368,116.93193131067376,108.77971749238776,88.31874505440177,61.63176783503739,38.448422561570716,17.560098264738375,-5.767166508937318,-29.70774573386995,-50.56649031345558,-71.86456562792398,-98.86947369576195,-127.92838310441829,-153.39502566305876,-179.5805908183797,-213.30033236923757,-237.28056305091312,-206.89974803636662,-106.42951741380953,11.686995177425397,88.2967458938227,116.62070651655506,120.19883418021689,114.51999003366089,103.05629918759584,88.53226444203935,79.5300830539026,82.90075652556928,93.72476738164484,101.62885037136704,102.03954962959746,95.79565047070281,83.92672095054262,66.7956257465759,44.0885442948094,18.80904154879232,-3.7129629945550344,-23.993983784604808,-47.682030726883795,-76.52563872751156,-105.53896649751131,-128.91145231008392,-147.3649779221528,-171.01565879732016,-202.77572565968237,-213.9230891996403,-163.10886419956648,-55.991400914154795,52.54155099645047,120.1234848411608,144.51472409305305,141.9292465204989,126.28100320287021,103.77976257837649,80.47485412376633,68.28380008295858,74.02675236790652,90.43143979315269,101.90146167863762,98.74672335077128,84.16998612024376,63.437917941850564,37.54897532719785,9.983140194160832,-14.915446455844192,-39.22002531995908,-66.81402481765456,-94.72203964379123,-120.46622564040433,-144.8998539366443,-170.03658180606513,-202.1320199215145,-233.17835710460008,-220.17685643987008,-131.3551139847015,-4.001064165622569,92.85806841445539,131.93153231856698,132.54131128185273,121.49618930786717,108.522324522983,92.6021630725528,79.21969677489726,78.86324556359031,90.01354534374313,99.70189703825142,99.49203514247057,88.24374588012307,68.68699111875742,45.37442762970511,19.3733799593022,-8.668028346272896,-34.663014402572564,-60.561394227389236,-89.84098929075506,-117.62871148887575,-141.67696605185643,-169.91814396075824,-207.5343315526755,-231.59769195419724,-196.29720678242197,-91.9177551967115,29.738105211072988,111.42437377037399,140.97546955166217,140.6607530108348,130.8539223199197,118.0692063197131,105.42535219364304,97.54103013904803,96.9569632561781,101.55796300819298,105.09285101247535,101.06956040516698,87.31534043540364,65.64741316979948,40.22560551558754,15.839974740908524,-9.184484398604221,-39.62573645755957,-72.06350300125115,-101.81571791023427,-128.8078640308713,-154.8825806400199,-186.92793818479507,-225.52309494750878,-243.5254732896569,-198.1765064255233,-89.63213653684025,25.428162211904105,95.21930319819103,116.17801428416455,115.41418257161963,109.81433940039199,98.43242095334054,84.28607482256338,78.56410776764456,84.66357107290119,93.64343918533663,96.44635849652747,91.75792878582094,80.97892518881183,63.59123181140392,39.93567937537139,12.19439783938058,-15.369088007173787,-40.20839959029747,-64.87297040608473,-91.44664966157879,-116.1551875629583,-137.436610768279,-165.01255013967435,-204.375434861634,-226.6122084775376,-182.57469964248145,-71.54599617909759,43.15031056076531,108.77210826777643,127.11005145917105,125.40450984763241,119.18514194403491,108.32513468546006,94.07363849162087,85.67154847702295,88.8015904947017,98.69231130249305,106.68614516821712,105.88857239068001,93.27883851440555,71.92630032069448,47.84730411654552,24.653918564939328,1.7652446516975207,-24.315647240747964,-54.694036639023594,-84.39182139109175,-107.96215999692788,-128.13330889466465,-152.5842660960883,-187.56200032096532,-221.84335543937675,-213.43731006245736,-133.41477571982506,-18.561643740804257,68.67041805327052,107.98107268110297,116.10891984052473,109.65742643884396,94.53145592123036,75.23776146556278,63.390359072907984,69.45696054723042,86.17797408500807,96.98242520898309,96.55800024898275,87.0780583289776,68.55443068495134,45.26756049195997,22.44514430680813,-1.4277482992944295,-28.56505818402127,-55.368161189253875,-79.63446057838176,-103.84431578762246,-128.19362418008606,-149.3951180726964,-173.18758353425784,-206.81584391320573,-225.03616397309645,-180.80511749071007,-73.48522765355386,38.12836076912032,105.45547735056473,127.68224521234855,127.66647373849618,123.63428350515193,120.41335485486029,114.58150100161959,104.93741759394118,99.69929905448656,106.06737280687697,115.51543682331635,113.99833430154193,98.65793384367372,76.04012890281457,51.66346728008428,27.24437297651002,2.1486856420274703,-25.07778182173607,-52.57852364696061,-77.83391558621048,-103.73453828020587,-132.79653380655245,-160.84238232583778,-189.06354415038567,-223.09936762237143,-242.41294984901657,-202.36798354329028,-97.1545502617404,16.85948710757391,87.37761084617426,114.11332947230012,121.88784455449326,123.74220062631744,117.52137596518685,104.11223402786055,95.01656640311441,97.52151780880865,107.88672191069098,65.0,122.0,69.0
56.425071453478076,29.505638560987684,2.453908320055258,-21.74089677645918,-46.86652072479452,-75.05771571021391,-102.35636654800965,-127.63020150275062,-151.87482672656606,-178.35902258885912,-212.5254291268888,-236.28390610516809,-202.08365115086826,-95.28560314933584,29.473239081095965,109.80928447964634,134.67775678153427,129.74353586671626,117.9560406224978,104.204213300842,87.96380475171965,77.5015948490191,81.40530133211331,93.51661951781801,100.80199405734218,97.31900543984071,83.24308304598156,62.185183613000966,38.1977854343444,11.302441326092984,-16.482502712508836,-41.88036459749379,-68.7559258459036,-98.31560059894308,-124.77114978566472,-148.91492781160983,-180.11409270278062,-217.8319610170928,-229.200006507328,-171.83942579042224,-55.466859155163036,58.972688991623805,124.6523833821661,142.7694659485981,138.3135647122529,127.36557283807633,114.20144003070692,102.47527926338918,96.61753718514998,97.97414385281742,103.01627147876412,104.90938378919589,98.0598933718222,81.73528867981999,58.436041964683476,32.973625241163155,8.954254094656761,-17.395289807422685,-49.10187421344594,-80.98553302174817,-109.87299324493438,-136.22988258063995,-163.17457161446,-197.9575792632509,-234.84205030767632,-238.25031332993206,-171.49068491825076,-54.065793075360496,51.37808540253659,105.28999676751566,116.98428202756014,114.16472001729731,107.23018831014026,94.16998154463846,81.34152952661434,79.34381829112804,87.48596642034472,95.28698206170819,95.77159559277605,89.27144392580313,76.65476448778882,57.34181828201673,32.18396866608241,4.009103708481936,-22.79466526746219,-47.17172667035164,-72.42064647026871,-99.01611711330673,-122.43528986200475,-144.14929289090762,-175.62853072337217,-214.84265780107427,-222.2443099067773,-155.32695997383544,-35.527328361604276,68.04670773028539,117.78313135964589,127.59508224985902,123.90467148989912,116.64207930694812,104.24458226892699,90.59452362839772,85.43893806510866,91.34196028374616,101.55756692145214,107.58709578005038,103.44239469568508,87.73838644808995,65.01878346869991,40.99466243747147,18.145565765208115,-5.297672273068239,-32.753152370224576,-63.68369843465933,-91.87993808125519,-113.83575771083773,-134.38859674160653,-161.55125692203728,-198.89742282977284,-226.00442312985925,-197.36282835450572,-100.76762096161323,11.445431458904764,84.54660201974988,112.57208908234539,115.33143984348831,106.05734539714766,89.02757362973244,70.3889129815647,63.2238175319209,73.96989885091969,90.44447511333631,97.90360315003694,94.7337181588907,82.59902900078866,61.99404158694992,38.56266520250195,15.845555970765846,-9.00269997469338,-36.5535844764071,-62.57990773858213,-86.50852764924994,-111.02619381626954,-134.66301226451742,-155.43167848801392,-182.1585535488785,-215.83356638533488,-220.1466613719474,-154.34724099564352,-38.688744365972155,62.9950832528197,115.63522286236633,128.9144214528612,126.46349822481773,122.69029603346254,119.19611554781567,111.99764262432666,102.4506933471394,100.40162036774441,109.19353181592196,116.6032747773187,110.7774751076388,92.53925240424121,69.05335654311985,44.59185246311497,20.153025017659505,-5.502379971779078,-33.16057608443025,-60.09804304212741,-85.01490009466596,-111.90962893224466,-141.19287986645227,-168.60682636068796,-198.44252630029237,-232.1047170566274,-238.54397475333855,-177.00952997077093,-61.99426109891997,42.68460605519667,98.55232349144937,117.34544792766967,122.9587562325444,122.97070642812726,113.9957987305765,100.49271307010493,94.5494938344869,100.04696489949777,111.14902521881552,118.39064028374902,113.96610005978117,98.6626441588128,78.43573105309582,55.91032114774493,29.637201421708827,1.2844592978820604,-24.382820425230435,-47.84463204922872,-73.42830673146047,-104.15092113790875,-135.28486001411116,-159.05424822980805,-181.20024067585908,-213.32892184498277,-246.04061915573766,-238.43246355194043,-157.70512521975107,-34.007344899801026,68.26774836195885,118.62704119857389,131.5856353360071,130.4286859258738,121.81124584803527,105.3785922451034,91.54227420350563,92.65494550613073,104.1505842136708,114.86294665378928,119.89870196946387,114.94506432051391,99.21745735063865,79.881660208502,59.416416993218576,34.321939309958424,6.911363789593466,-17.26032723807891,-38.66974094899133,-61.85718274655365,-89.42463114683902,-119.79529046409704,-147.9067921410246,-175.12282154322182,-209.79895570714473,-240.62951283062168,-224.32973993067338,-135.61662306258535,-15.925649199118494,72.79942039645515,112.7237270664896,121.39814234741996,115.39079559771795,99.97452340156639,80.55077302051974,71.54792976984591,82.9710478991455,104.93180274581434,119.50366026360096,119.96172892239179,111.06673588909436,97.79330997527049,79.95526433235815,65.0,122.0,69.0
-172.20137723341313,-209.39584081159606,-241.42380195427017,-226.67076461961932,-140.24389583601618,-19.697747472600362,72.65877676960928,111.71415886317087,116.73735931072268,112.66611508160202,104.04983594652376,89.8884299257148,79.39324552804959,81.04588436540156,90.24436610471989,96.26232556733486,94.51722950849972,86.28904029911632,71.75763107226899,50.59424950209993,24.16286646967395,-4.035945622627895,-29.980467619832694,-54.22914826981824,-80.13010057100432,-106.276753703372,-128.4791913549601,-151.75381267486503,-187.1918216155656,-222.7232841867947,-211.16617411034156,-123.28718096087142,-1.141911079031253,88.06191964472002,123.40022584190541,127.09186442674172,122.19194563724376,113.61552176918654,100.00661319542809,87.88604029504707,86.19707910924095,94.24980331246051,104.0534219794846,107.61248317614604,99.98455092510146,81.60688052783111,58.02603003992409,34.26985091744028,11.601492876841194,-12.72345407572131,-41.52954870319939,-72.42543847149433,-98.77851513634289,-119.57806062054009,-141.20665892165232,-171.52625965077803,-209.6188448650271,-225.274721058985,-175.08729574388977,-66.82287561893759,37.788520484143746,96.49773100484592,115.1309699610711,113.61421143915693,101.79518724007197,83.32262012954342,66.53846062068575,64.70768444801861,78.97580033410523,93.83991824143943,97.9285734945874,92.18534455652886,77.3556074853533,55.218733874023194,31.973503990274814,9.04646471495422,-16.850529424834505,-44.37655044392282,-69.58889788186755,-93.46915526445154,-118.15389655738242,-140.7886775856185,-161.99319859958456,-192.01751223105134,-222.47796946240393,-208.9138585273182,-123.38733394476014,-5.318415158053497,83.43985360053514,122.45583712558793,128.91126336219867,125.23849033333062,121.81020535793724,117.62998802338257,109.14139988943894,100.63566524723996,102.141433699412,112.19339729791706,116.48511451266864,106.47880438355351,86.01260738224634,62.003792070903586,37.538639015728315,12.95924369365886,-13.35277986283324,-41.17588919529633,-67.395907168414,-92.39298700381168,-120.33698992946232,-149.3496127989976,-176.5616739105239,-208.40533266346824,-238.9597515867034,-228.56409236022594,-146.79111875029136,-27.92480393476214,64.04876319530858,106.57446062320379,119.61434924022812,123.64706129025909,121.37597198587348,110.02438136018368,97.5786078512231,95.10407989685842,103.05881632519748,114.0863574803034,118.46426572151098,110.40890848333709,93.09949616056042,72.1933867824443,48.75828071192757,21.422595982516235,-6.517976566330868,-31.220978058753044,-54.81430946328972,-81.78636009648972,-113.55141876326665,-142.98656472021088,-164.99685717258757,-189.25419422701032,-224.03048541891295,-250.20294053261617,-222.65772121688033,-123.49021561382527,0.11689691499331167,88.12424274465812,124.99462145648145,132.0551940721237,128.7915124573142,117.67413571046586,100.37535086806959,90.17484467345331,95.4777409368125,107.64803615711347,117.04629993886678,119.7047103014635,111.26948038525376,93.6875171123008,74.23706972974543,52.70975756192029,26.35012654184475,-0.5334799124731054,-23.53476463256266,-45.013414203729965,-69.34167146690919,-98.12033549601922,-128.31951996667638,-155.4850438472488,-184.2021779617875,-220.5885354393733,-242.89485705448988,-205.5749384099153,-101.07966749392519,14.718398724500792,88.88284564358472,117.4701256227381,120.77853475332749,111.80571037911665,94.28834216752874,76.14310670923696,72.79943995166353,89.08692251655751,110.49775906969185,121.00200637315723,118.04527240587197,107.60271067514196,93.19599002118322,73.70874029806672,48.18541623795238,17.82667970521492,-14.178608235634954,-45.81655067967885,-76.83322481301315,-105.41358632858099,-128.74122416589336,-148.7085409465526,-175.4244218936155,-214.06709884560854,-240.54797143658018,-206.59214160766834,-99.91437226820723,23.912553139122707,103.09653156563947,129.66652462388694,131.81639181050843,127.88124658494243,116.40568562863768,96.89254515882637,80.19116182187398,77.28999702199309,86.68767633458037,96.36982999953847,96.29924016364589,84.9307141358292,65.90254866625143,41.406230426751755,13.168187956240473,-15.207480864549343,-43.36242138022834,-72.93473775025647,-101.21924201154644,-125.32731113983112,-148.26209987032806,-177.06493500060864,-212.3661839076057,-235.58597430110626,-208.3112981646743,-114.4929477732716,3.165353364485234,89.34463697669108,130.46243913443155,141.98567802956768,139.31475570999623,130.4429465609248,119.01699207449882,109.2772943788364,105.95765906402464,108.61950897736784,112.97178881357539,113.6632213249244,104.78710477375137,85.32129585421892,59.962483450751236,31.829891333267586,1.9527663876299406,-27.415941288113096,-55.022897618676154,-82.66391734655744,-111.61387176021032,-137.39823399292152,65.0,122.0,69.0
116.10052156620343,111.07945039471828,96.94064018354368,77.70365820847566,64.02650648479748,67.67484324744429,83.9883866383609,96.22777737420274,97.15960040124264,88.87306691110163,71.45352253762393,48.39543222687098,25.453300110959077,1.9543656354934824,-24.858192757746377,-51.96000713409384,-76.47507652408385,-100.54705600886207,-125.09251920179045,-146.68808132620788,-169.4139301137752,-202.22682524815053,-225.3499527754419,-191.1241454229256,-89.55418284243872,25.257128507915244,99.47461502958141,126.54194700085723,128.15804748514384,124.10976117938587,120.88822236250216,115.64313837716495,106.22564964675715,99.74873496918758,104.70139720640829,114.65812360941672,115.07797687402184,101.29181460307609,79.22587017215797,54.927518525355005,30.495839467081517,5.605180606970569,-21.356556787851883,-49.030525133943044,-74.54992715395088,-100.0759257497979,-128.872098559229,-157.25610018678552,-184.97315073708256,-218.55100494332265,-242.36369346126034,-212.10179863215555,-113.24781239088274,3.5466079282540433,80.97597044280977,112.16396351035922,121.27108461475281,123.8517452174725,118.92322998117679,105.93674614219648,95.58805870494339,96.57554843605416,106.34367549935581,116.44574863820831,117.4276075553548,106.0645428270176,87.27353424999579,65.76447543022753,41.23472149385119,13.150829450623435,-13.996904277961312,-37.955229675221844,-62.07918033064725,-90.61853541126015,-122.752046542439,-149.93732741953383,-171.12881713210055,-198.38126002597426,-234.23853575136036,-249.70608982966772,-200.37086806326312,-87.16237058346378,30.915870633702305,103.44851948780567,128.91282104681736,131.80511174080164,126.4994469591026,112.9108896521928,95.99969304312744,90.2494237695605,98.86291439185956,110.86006405768694,118.69284596682506,118.53349886319408,106.77801533886453,88.07524056622468,68.44032607721387,45.530977457589316,18.337427473568074,-7.59719683976274,-29.672668511560243,-51.61392974945233,-77.23007956853301,-106.95669890335242,-136.51420118008878,-163.15303069387375,-194.13019873236885,-230.42645710198278,-239.90828507819546,-180.68873806766246,-65.6572459076596,41.49702459750727,101.00880979526681,120.18635276141401,119.20532501817036,107.47248027755795,88.47389857478308,73.04952519306873,75.84571262884481,95.63351466549094,115.04540202127916,121.31779936484918,115.52923540776625,103.84625193685633,88.16681976758402,66.94499043545758,39.794961173681024,8.601075536899598,-23.370065931286323,-54.8746555281119,-85.47968490491613,-112.76306190873538,-134.53798059823959,-155.19895013904096,-185.69994124904517,-224.98709450297136,-238.81332455379558,-181.83126943303097,-62.50505493183007,52.88704899074553,115.16432625563363,131.52051818192234,131.13098480194557,125.57418371078941,111.28928322647566,91.14931565707155,77.71220981636502,79.17267369527077,90.03893775903946,97.58137325578691,94.04807361394627,80.06127184202151,59.3538387357711,33.47850880265853,4.862232708375417,-23.253523301264394,-51.79252454304377,-81.4324682026876,-108.62185750131303,-131.76681359614437,-155.72884549607258,-186.93839453275888,-221.80619443160285,-234.5809850167896,-187.196148906831,-80.04002662133286,32.81453263046472,105.38909433252259,136.01320870730285,142.19083819886458,137.18756820899003,127.2663528253067,115.77801096212684,107.55244028011157,106.27665216197147,109.91312058400513,113.82551139288438,112.27748012153637,100.0912873434714,78.38601486026677,52.070939455220135,23.310478211178175,-6.703680500817745,-35.535220048485314,-62.89212187215351,-90.9573324513473,-119.70688876647088,-143.5872117438051,-165.4921385331366,-201.12153998544892,-241.96710846896767,-240.28086299114415,-161.34378180665234,-38.7086123380144,60.010550531058826,107.11155170133563,118.89754971152792,117.1161080830311,111.2475075199113,101.1245358977157,89.16847828766122,84.24732523441524,90.32378073375732,100.57668674895167,102.99990527987381,91.00574181516417,70.46720762312668,50.60928401879277,32.24212168169688,10.326524696845098,-15.295195629414568,-41.521307621486976,-72.06420736547933,-107.26917593696174,-135.85343139972895,-154.72054521268146,-178.9737634052309,-216.60118617645318,-235.63944642284397,-186.64642835600264,-73.30920540757316,42.86307087524003,112.76670972714115,136.88734036462253,136.765218292745,125.87702808438047,109.8823396211124,95.35861525727677,91.02824419500233,99.67656042978471,113.02723476571373,119.83495806448049,115.9236309033659,102.14144531541436,81.16605680063711,56.46587952673462,29.07033749179189,-0.5659487709228461,-30.424345792657917,-59.27850898033511,-86.9270843475097,-111.13820972687128,-131.83622881745634,-154.63041262607325,-186.9757322549611,-225.37327222859608,-235.03929715070342,-173.10790779025209,-54.466401200458456,55.218299357628275,65.0,122.0,69.0
109.6698105672067,117.99827300851904,115.29572058229694,101.10776333786112,81.2606274772145,59.08963487950584,33.362672362813726,4.979721987443843,-21.166011160104322,-44.69949121826059,-69.74073052710432,-99.82732555325232,-131.48044712981422,-156.2714879279522,-177.8294723206716,-208.45818303050217,-242.9032429561238,-243.4617114019178,-172.28162748150487,-50.52683963316859,57.53611008965769,114.66906271058079,131.04611307212278,130.98760581379872,123.46872133664746,107.77447351144832,92.65302361698278,91.63928962388842,102.48116483125258,113.6974723778693,119.6929404147774,116.31673755837842,101.69428805443111,82.46604046946314,62.35418784605478,37.9333916529756,10.45822337194343,-14.286173353780498,-35.80776894607249,-58.539949661382586,-85.49997830937693,-115.77781177752952,-144.3729726148661,-171.20352111577174,-204.76627062506932,-238.1453372067706,-230.76133248017797,-150.7281655150897,-31.120771638814915,63.94241192215844,109.70565042476058,121.31572491881042,116.78060719740272,102.4688709752904,82.91103128033659,71.60202428870026,80.43786223613189,102.1034276660401,118.38942085013078,120.59555461298093,112.55905517245955,99.7822887567474,82.6619097324916,59.67280158286047,31.05187158831351,-0.6685768689124335,-32.516779098103605,-63.87512909223109,-93.8521587765643,-119.60733282173685,-140.17880557736996,-162.5803207972578,-196.95951393754126,-233.91433212023165,-230.75568066622625,-151.404682292902,-25.58111983468594,76.98882672352141,123.2598332970622,132.13594539533656,130.12897858235814,122.4740966012699,105.60510517742921,85.99967721379863,76.58068987634486,81.89237845882874,93.07002060604785,97.80875383200787,90.90187188922535,74.65679036901153,52.363479456288246,25.30893873002421,-3.3624613372429413,-31.335791264838583,-60.35596034724752,-89.70958682671078,-115.63614795466411,-138.25906667158404,-163.86206224562014,-197.27193458979326,-229.53644061137985,-228.27587682585713,-160.64939117603444,-45.20464955143123,58.74912793584109,117.82537591960688,139.56952520634488,141.51049808741266,134.66990909918707,123.94171315766252,112.81492271288089,106.45646812081331,107.01676143051952,111.2368208685753,114.22744767420528,109.95290039944034,94.57080640063943,71.09581051268016,43.98141996150734,14.66863289530217,-15.241390603774613,-43.512683431201545,-70.82999875798089,-99.36711260788393,-127.33627200218567,-149.4721736280357,-173.8990349611756,-213.9776157295848,-248.30194375150762,-225.3596032749023,-127.29555679585073,-5.366993397227923,78.69607124667564,113.01151337073,119.10234796815715,115.74751408726611,108.81579840370121,97.51902665499622,86.64803708974725,84.98901979397547,93.3670903450451,102.58133258092779,100.97828321367868,85.46455154727641,64.42359736302181,45.35523666457766,26.445861263843547,3.111035236951511,-22.78731494997551,-49.644113105863816,-82.12530063940594,-116.72067459783067,-141.88985795834853,-160.33306802573816,-188.98718635038148,-226.46778883776807,-229.80573264660921,-158.38981698580292,-36.9950367350127,68.64832563754263,123.50840342575746,138.50734606524642,134.4154557045745,121.56160946893326,105.14349180361295,92.74115358079845,92.36318669709053,103.61768731504657,116.00881072981014,119.80998181418613,112.87615937447488,96.64802434152959,74.31323380910317,48.83225627325055,20.67168971832495,-9.268503957142944,-38.85897713694833,-67.44970435289217,-94.38622500020139,-117.32469105573428,-137.8583251598426,-162.7502053060543,-198.29560272719172,-233.42537711503144,-225.37554611391815,-142.06061861183994,-19.085750473747524,78.35091947701362,127.71162204061793,143.89086001489352,140.20075375687432,122.17298634880368,97.31482354381127,75.93289388378837,69.13768886943448,80.6427061881823,98.13642614501462,102.37727782441421,87.18060405755871,63.36472971127668,40.02114993819924,15.085830027534522,-13.766608668169454,-42.21542090914715,-67.29710800733575,-94.93397252724678,-126.96033567524672,-153.9824404744547,-174.29079600635689,-202.68753960171028,-240.23670348140618,-245.52754104509353,-173.28913244256637,-45.369483984442056,66.47400610214832,122.83482868299863,137.88055342848142,138.25715919771133,134.29916107713535,125.69019235969577,115.92292007729417,113.01587282098133,118.04004739918648,122.35148628630134,119.4569332949799,111.61249334228337,100.46318051378269,81.17297369091,53.477148793594566,24.319417848567728,-4.2059131205239995,-35.95472391100165,-69.49630483332534,-100.0082857347129,-125.90473920997326,-148.8202504176118,-176.05956628010446,-213.42020579379496,-239.59254457865038,-207.2779728821433,-105.16602492996302,13.395439837325906,91.70304652446383,120.03186584615845,119.25257146533322,109.02045363004179,98.7977301362164,90.09026788318879,84.80573895510072,87.0002643175204,65.0,122.0,69.0
76.65290345581026,51.915232150216625,22.04306314079942,-9.924691157274363,-41.627305543705894,-72.77772066318165,-101.8638223047046,-125.95939483214045,-145.93175194325048,-171.0885418141577,-208.70198551800664,-239.4888997452381,-215.81389746408365,-116.78817319707596,9.091535060771907,95.99947866685795,128.20852108903367,132.02252003315533,128.715381454061,118.51449646970121,99.64160628714275,81.76400930665251,76.78114268933437,85.1227788472148,95.50692649644209,97.01011198608451,86.97323782308322,68.77065046020232,44.95238415712008,17.00875084730035,-11.487967279648341,-39.53129561134982,-68.97326575829372,-97.67258326243068,-122.32329997822686,-145.00870425307025,-172.73039349788732,-207.68792223825625,-234.5198077662211,-216.02953570376172,-129.77976327651365,-11.566610010565771,80.63055878954921,127.10900407956828,141.52702549323106,140.13808608997405,131.83713118347086,120.56181781910614,110.2729896403493,105.98170409633003,108.06439373655742,112.47024884869661,114.01319424783489,106.64231367895344,88.36869265112354,63.529741867034765,35.704960115587426,5.965281384949491,-23.615340859469217,-51.39988817799336,-78.89356770912764,-107.7806234358491,-134.36677102589755,-155.46735445587905,-183.88796506770558,-226.60818790393026,-249.62217563862012,-203.61039569793024,-91.19315236993825,24.40323442823198,93.00655052546173,116.60612821490527,118.60874338753779,114.1340848107475,105.96663512059199,93.91131424811907,84.96114865401114,86.64050559146801,96.49884887773773,103.62304319023836,97.70291666899674,79.47369489126606,58.61925988554302,40.136663594360215,20.219398741758525,-4.319561137421339,-30.288454895246613,-58.30596097420177,-92.44530378193292,-125.26638709342195,-147.2411097547082,-166.91585697068263,-200.07665248485384,-233.50213216360885,-217.20828363859223,-125.6520335556915,-2.259558460015347,89.84731400477463,130.8872860082856,138.6254575413908,131.36488897103823,116.92534539823015,100.7284646383982,91.18782917935069,94.74995174924169,107.64287516891487,118.21149610086235,118.87230672225981,109.04068228172721,90.64386676779431,67.22141496908152,40.96909526622551,12.111377571481913,-17.926688345809627,-47.207342385894925,-75.5065950413457,-101.47773301091546,-123.27357582215215,-144.23854282334273,-171.85697400589865,-209.8488519076874,-237.83792971375965,-208.87784931747063,-107.47645345775851,13.79075330578472,97.20435811262395,134.9644685961595,144.58269894596114,136.2091984375181,115.27408705175606,90.2750389268927,72.05386038281102,70.81358615825673,85.97846600129968,101.38289694001747,99.72570984788092,80.55270022559456,56.51380580109232,33.188689517036096,7.077326943238751,-22.31422247340767,-49.675098710191214,-74.6941845706522,-104.02428850569486,-135.72174653918006,-160.07653319390056,-180.96393429267602,-213.61382952674958,-247.72320237385358,-233.28213300572486,-139.09987811636617,-8.481586177169287,88.58228462912373,130.08423949971424,138.67398965948001,137.5256138671971,132.28342768412813,122.64058069584243,114.09708005370997,113.92377491999545,119.80712497232223,122.29062123459379,117.4926416221908,108.87256489549557,95.94006453191913,73.77417056724798,44.92186294896675,16.168702548491627,-12.94840575357007,-45.703737667155025,-78.76076014530027,-107.96035993979656,-132.63916460330256,-155.78531625270614,-186.00726471662313,-224.0839249263962,-238.0906062475935,-183.52428559999316,-69.45203905800096,41.54597078191636,104.33070756377542,121.74791179270638,116.65404535179985,105.90235127687107,96.12942086117314,88.00882447622126,84.579161767912,89.05475846391522,98.59610985149064,106.4688714985579,105.55240288493607,92.22962648422809,68.7285964805842,41.38585653752356,15.838933256864289,-8.850382615096523,-36.11532384259181,-64.86610679092196,-94.13786105619144,-123.21773897765357,-148.41840900537815,-172.48781936986794,-206.5358222230206,-240.89310488029457,-231.34471565387972,-150.17560577125548,-32.42662754617101,63.92985591916103,115.0460411656265,131.78501082982447,130.27143843933877,115.84128837244056,94.5262563170725,81.40251274665285,84.1446250102949,94.64822590749144,101.25928879048858,99.47574919422864,92.32532788302379,81.82318957663547,65.372260195107,42.61259641531896,17.729810287824847,-6.879077014197265,-31.759035736196243,-58.634779276084146,-87.40988873648948,-113.15897545685799,-132.6695306317863,-154.00971163316223,-188.90851368194797,-224.06855595645828,-212.15410415004663,-124.292747358114,-1.0265693185313443,93.49637611911633,138.04250841922362,147.53264301637574,137.20999725727782,115.62178909134673,93.92179660581306,82.14039717297811,83.50217984953646,96.02848923810562,109.76023561379547,112.49698673632348,102.15499996336376,80.7366024660156,50.754211184266474,20.121610124396557,65.0,122.0,69.0
-140.7909636913815,-162.08674960341776,-195.40364194313474,-237.7377141141672,-244.79260781127496,-175.82784888677224,-54.959506274012796,49.8404766603451,103.43801351589929,118.47672641805839,117.66129281774089,112.23659406124206,102.72529301290774,90.55662790749174,84.23946854834398,89.03335102126802,99.40287069090299,103.49155597632483,93.32916845805461,73.30600059806392,53.08285236568528,34.7922271250672,13.543143550404343,-11.831697751565944,-37.91580664925794,-67.58533879016868,-102.68194433101691,-132.75652173413087,-152.32689827143363,-174.82942822489673,-211.50825261032944,-236.21546259406034,-197.7760387134395,-90.12258568249004,29.50609648974799,106.51725751325336,135.51743520186682,137.57449678037108,127.7253403742522,112.1125543730297,96.87838432668221,90.80290035472127,97.97963761498875,111.4348346367983,119.53453885739914,117.05115918260591,104.47334218040439,84.23314121183658,59.91004731827447,32.875862619969396,3.4463810633688836,-26.503002698510876,-55.48466281613597,-83.38110565728782,-108.17673598143944,-129.1250277386148,-151.18290234728647,-181.98851193687398,-220.8135912023417,-237.2838166186147,-185.77013133801927,-71.22089835798049,43.093972765983914,112.0884784945558,139.95913360538773,143.7997066058492,131.13882560861674,108.02456816468393,83.79331565842378,69.66556751150924,73.97981592970746,91.34675711476659,103.07542218353787,95.5047200333739,73.59115477632007,49.791936701846176,26.09481494870063,-1.2584070110370855,-30.65243019657364,-56.86963724802474,-82.5256285458065,-113.38941012254745,-143.7570277101768,-165.7685761894307,-188.798403112519,-224.99972893053996,-251.04469017523147,-213.7788804191965,-101.67377763595222,25.204447020008356,105.73264181967586,134.61664017118193,138.7953704711685,136.4860917831589,129.8480280007598,119.66110978390019,113.04917698072197,115.39322915765032,121.24292066691046,121.55876289128798,115.24710337959202,105.81992248523497,90.57612474972932,65.78121469635563,36.440414982578105,8.013683290757564,-22.060507533418825,-55.47563601818911,-87.67595990508136,-115.51973778108123,-139.193740634608,-163.37048574620556,-196.8615148054879,-232.88734413013057,-230.44273651775643,-154.3787554785936,-34.16278690938884,65.30535977273487,113.05472388494282,121.64680467170415,113.65043691962406,102.91272229630864,93.5691159662973,86.31421212020568,85.06267743530246,91.55551524041046,101.37130668127213,107.37493177133132,102.98475351713965,86.25467679507642,60.90391404144275,33.70714895899784,8.829334517170897,-16.441110063983203,-44.362861338682336,-73.25288154139592,-102.69115651190194,-131.025068568748,-155.0115366237305,-180.99937977477128,-217.9245981233909,-244.8488899197972,-214.87942117832347,-117.12358178662944,-0.45747938294994084,83.28696865138788,122.55220859802243,132.79221833979193,127.35205290375501,109.82152267458162,89.2299563303053,80.69251754795445,86.95777938414014,97.33963756747595,101.56270604422939,97.76788897319769,89.69953360604121,77.81183264363752,59.29644488838236,35.458692727885676,10.581113353979637,-13.976632484984787,-39.24150225396792,-66.89320099186907,-95.43555106031225,-119.33698827868056,-137.99588712025042,-162.54518312437978,-200.68716540361822,-227.78914714569956,-194.10582866244795,-89.13588552992714,31.21942369112386,111.17037913942494,143.50783637077546,146.18215013402892,131.7158551569411,108.81113076670408,89.23516211819242,81.17423776893811,86.23055512527876,100.51680706158179,111.9833518704547,110.73787917993904,97.059669152067,72.70329734005135,41.5562714550491,12.20633510427376,-12.773531420329586,-39.07367855663479,-67.38372278250708,-92.81889736875031,-115.41716421838771,-138.54388573140832,-164.821884863005,-197.7478760748163,-226.19860319758155,-210.78737598283809,-123.6363893120652,-1.3275210363149337,90.5568596468948,129.21551616369362,133.34105404149332,121.97227086861936,102.21998181089944,79.3776666324246,64.05677650141985,64.91595091693623,77.58459982274564,88.65751372070693,88.54963764524787,76.96049926520158,57.93622536898602,35.3579661435936,10.201056750556058,-17.938374090277044,-45.11564705088191,-70.26305002043881,-95.8358647103183,-119.5283997499775,-138.49693918965437,-160.46937666942668,-196.366710269894,-227.06588945742305,-201.23531632550913,-100.48364146693795,21.43582793521721,104.02281319929136,136.48515190757928,140.1454413764144,133.62119322113628,121.09767809361196,104.4055333433875,92.07030834225812,91.06847999635406,99.19750909633234,108.24870651177694,110.45475742879329,101.16678838838615,81.1988019592272,55.68901508802078,25.643473952878907,-8.489377684561635,-39.81373801211663,-65.22305176402222,-89.44171368191049,-114.51989907540896,-138.41933611174503,-164.20979566872285,-200.63942507235595,65.0,122.0,69.0
68.22667418445965,123.48422402660474,143.04346484299455,141.63617298006528,125.17023064714398,100.67013166168658,78.16224264406972,68.91616883539925,78.3406881373245,96.2073128544404,103.01362421794568,90.02578058584051,66.57187751372139,43.11659554313641,18.64945696068084,-9.801981658077432,-38.65500632271558,-63.983029439288494,-90.89423203173448,-122.74209991580021,-150.94595389125553,-171.49853542662822,-197.99861325032794,-235.81072455713738,-248.7747880809908,-187.44838358159174,-63.03425413628828,54.573797596117345,118.35867724161263,137.18018383788873,138.4987398668601,135.08325305935813,127.06013599875376,116.98783079112498,112.83892199614226,117.1824395481112,122.14884745674557,120.23399919765383,112.80139033565143,102.29590318951739,84.33419024029916,57.40656467670573,28.109284440894832,-0.28986980890867425,-31.510203564731487,-65.12389531782686,-96.20796633025378,-122.70602902966164,-145.7416472651647,-171.82299881198253,-208.21137320970382,-238.47794588550133,-216.12708495057606,-121.28147741866209,-0.8963424851978408,84.42849246544606,118.47248494513873,120.2293983083312,110.48496043077084,100.06603848843493,91.14393754129384,85.13984871051083,86.24071808467149,94.34692021993473,103.8293302401498,107.37762059990416,99.34934038290956,79.53739234186048,52.93959418491922,26.283080071526264,1.77775645800787,-24.28950581216656,-52.671570333084794,-81.69327095701085,-111.18146273222403,-138.39027377829208,-161.71904919056877,-190.6503421880155,-228.71749685468876,-243.7842047163034,-192.2762988025097,-82.5024500077925,28.446711516695405,98.74904329805955,127.66986213267982,132.58139902243545,123.36924486711693,103.48168415000077,85.04417713595252,81.3173279008418,90.10403712466623,99.45413044590282,101.15223552858043,95.73636189480774,86.78378607673505,73.21028063855664,52.75138630100473,28.246689490531093,3.471944329484678,-21.125526825760392,-46.944870555871184,-75.26362023741865,-103.04283071277641,-124.97943781283965,-143.81766090820355,-172.45210536407032,-211.77612889953124,-226.15228929079416,-169.5638541181954,-52.72952598322766,59.70262336927242,124.7106119587936,146.5708774217308,143.42606282989655,125.47903880420274,102.30858393804853,85.5586863635772,81.32557813888832,89.80134953609678,104.7558236914857,113.05384219144506,107.94929027326967,91.06303697077956,64.05254583604841,32.55622793990095,4.731347664729983,-20.010622945831706,-47.26021032835251,-75.17117567747769,-99.47596401718765,-121.94267194172451,-145.63946132770917,-173.6334667687732,-207.70866252035248,-228.33396104351064,-192.70961686025552,-88.79733398097774,30.50475260563823,106.76510658398178,132.8621634768168,131.16568979475778,116.96509158111479,95.56980980810091,73.62955745596824,62.553811694852754,67.89404487243773,81.5427374461894,89.94576885430797,86.22267423426653,72.03959329972993,51.64435450197252,28.425914974117745,2.268933810912938,-26.078199199476966,-52.45806995358788,-77.5943120628983,-103.09241185956947,-125.42152407054526,-143.87482224621291,-169.40168471564562,-207.7708262924579,-227.58267796031805,-178.57868012512745,-64.06579091437787,50.807296662111376,117.87425247599921,139.4014424202976,138.89842289256623,130.64154213585653,116.43428067396843,99.94432907106872,90.53555746848018,92.78660873844905,102.11596155502872,109.85394599763366,109.05887389807904,96.27205584519473,74.23152872418886,47.554389978054175,15.99131648266549,-18.1655136141067,-47.62167797746574,-72.1253274297987,-96.6711431120218,-121.60376267640629,-145.25867731874754,-173.5034863379426,-212.278158931782,-236.8213715501495,-199.1518655403932,-92.47643490475144,26.174026252279088,100.91269474737656,126.05568519880867,125.29289141018226,116.48390099322502,104.96173772861685,92.80769045482057,85.6563911907361,88.43021925963227,96.97411897932786,101.53435815010045,98.69629504161256,88.84544803508867,71.58835283299716,47.56024269584104,19.348184954753712,-7.210682400574336,-31.14427459846349,-58.860245102234074,-90.19613642635517,-115.93871104571977,-133.65430294299,-152.99623046920814,-184.5438195776726,-222.30430698758065,-231.0471454504752,-171.87466998558762,-57.96007138717018,50.02896163519896,108.47565233307301,121.75708843459554,117.15695650706867,109.20299457943271,96.30894958919012,81.22957944221679,75.88512457526697,84.08304581335051,95.02934295180117,98.12533874367259,92.34700816834898,79.82620369219764,61.80417413977848,40.66269800667147,17.559713156433045,-6.0514267057153655,-29.073565984052895,-53.27923142801768,-80.32840352725157,-106.02872020430762,-124.8032184698578,-141.48398957712513,-168.93953834620666,-203.1267133406985,-204.50224861553136,-135.29677194310383,-19.055842890433638,80.31106253790497,128.9011196986287,140.20886367695866,65.0,122.0,69.0
88.04347223355904,97.26016820520704,105.78583803573167,106.37268688999264,94.69545164499903,72.23975964620713,44.999802978076616,19.094964911989592,-5.4413612921568655,-32.34760584470953,-61.01193118595433,-90.19848634066994,-119.48732759698521,-145.32988419993532,-168.90892721863798,-201.3508172615277,-237.71823320124662,-236.75090255489556,-164.42763082200676,-47.93590853342182,53.6493211694661,110.64267588257418,130.85810927643882,131.2518986753775,118.40950225253569,97.24389573993552,82.21615519942054,83.05156895749997,93.26534246889979,100.86410834130174,100.12401105380017,93.45418369911097,83.49343053762111,67.98615729893073,45.86545301128522,21.040468634275104,-3.6137322154522775,-28.37132603313486,-54.891818347440896,-83.61218202515462,-110.10625077009735,-130.2709869287717,-150.52583906386783,-183.53357602792929,-220.9079461798686,-218.15014471240696,-139.5586451582442,-16.900702920117215,83.86602333429131,134.58086590284682,147.63171978718654,139.42619084132716,118.78022839861023,96.39031061676563,82.96316516633176,82.57241255528302,93.98079843558301,108.38118337655011,112.93907774074776,104.19736666500778,84.18763860571357,54.99714464528363,23.93665774711288,-2.4409855303541987,-27.52933756826413,-55.520002882609894,-82.59998704162976,-105.9790810851048,-128.5767437943348,-153.0738251644403,-183.10077779116656,-216.76405892575661,-225.56592765506878,-168.39902158071942,-52.64880539255183,58.32249228673557,118.59326943196821,134.27401427022846,128.02014849633233,111.34018579256879,88.82730895798933,68.8292720846935,62.52683227067251,71.6035164579389,85.00884784216747,90.15899195324013,83.01197600234975,66.60264230442048,45.14837975995657,21.243757300510477,-5.886940108922765,-34.002274943730775,-59.68987340298973,-85.00489019976963,-110.06993796764647,-130.8915222421885,-149.85018379460197,-179.69355256845589,-217.81911725160901,-221.94347932197823,-149.9465865941389,-27.800216882732784,75.80820435309423,127.79314975958069,140.56614555862683,137.101345056834,127.1405882330496,111.52664252344414,96.11480752779326,90.04150459580967,95.12229281233316,104.88328292221152,110.73102945948608,106.6125326756241,90.58764852142906,66.92803674607235,38.99101562794029,6.06752785259704,-27.382526713601,-54.97434034986753,-79.07739671960788,-103.95146236362065,-128.52203223563538,-152.44357080248685,-183.910906516643,-222.94844936600484,-234.00614784966416,-173.77198802129178,-56.216306407222184,53.51578789162902,112.3940520968897,127.42517179092003,123.16211778724644,113.37540270667186,101.34121754985271,89.91122862676774,85.40974408167877,90.74533134326954,99.02932228696844,101.43586517136055,96.59858063520858,84.60808748118339,65.29300135695168,39.61398585308609,11.26987544655252,-14.167184496717047,-38.51667597091798,-67.88942587615857,-98.5809820296273,-121.62283187879855,-138.49471007197423,-160.63673508612723,-195.8162130742393,-229.95652668284887,-221.68819484397721,-142.2980483558496,-23.371804910665677,72.66360846202441,115.80720954308605,121.1892867750568,115.12567870665104,106.11084411477444,91.71377251696927,78.20091039496143,77.1421262936479,87.59391319671522,96.93774820629014,97.25151351091881,89.37440657945449,75.0913586612273,55.929242711075716,34.15753718318213,10.6980930837894,-12.740673010462652,-35.81231382984173,-60.85074378509815,-88.22728993701217,-112.21519514459892,-129.2854418911562,-147.88090135983418,-179.24442620434402,-209.2293074433143,-192.13063751599614,-103.83056740664297,13.91663089898622,99.64360974121182,134.77201439925037,140.18271802943391,134.0721003983656,117.08206262698238,93.50240754916966,79.84960670087402,83.5828611341185,93.88679894327785,99.09419450993946,99.6397544923187,95.07093233341003,77.52990126607442,48.40223029594506,20.746793961907997,-1.0329023268448534,-23.75840808680327,-48.97946610213583,-73.98218799618601,-99.10574072231385,-124.11879506967811,-146.56053299030225,-168.98121135910543,-199.15753784082517,-225.10726260516066,-202.25846456270273,-107.25681632758382,13.008630394789536,94.37866490510247,122.32188634540535,120.95932116155994,110.47903215676166,94.53487967621923,75.37654584425553,63.544646254140225,68.43847522846791,83.8157953666477,96.49677209855436,97.69084235440195,84.68423447858734,63.463232653229724,41.89294056006601,18.045694428637464,-12.069549711245848,-40.574212494206776,-60.11893929152446,-78.68662680802389,-105.13046145812977,-133.4662112865059,-157.22635623042504,-184.92557250040898,-214.44849146857916,-206.8519494419653,-128.22745741441847,-8.935724687996009,87.7730851134719,134.65885075352452,144.1482962905448,136.63714808554607,123.63811254054278,109.09642921435614,96.09914311650257,90.91351429792638,97.11204855821248,107.50537947630967,65.0,122.0,69.0
15.795557707928126,-9.501200493583607,-35.365403994328055,-63.68951476747077,-89.66769790051153,-112.43361402862826,-135.35606025159734,-160.98064202269063,-193.07398385767405,-223.89052398332058,-216.92366505781197,-138.739080036454,-17.065873094947573,81.49704904924359,126.61629272599868,133.9574839054968,124.05173306020447,105.19370279883637,82.2610215084524,65.2447208606901,63.8800793399069,75.68248372922793,87.71822382928161,89.29636420192087,79.02772237496629,60.7486174322287,38.48618845087272,13.759182113399527,-14.14052162347307,-41.665854958253824,-66.91326413035492,-92.43320735231482,-116.650483651155,-136.1050768700535,-156.82588790263898,-190.9972930579144,-225.0767636286926,-209.40185278769508,-116.79279377587257,6.595362824064697,96.17687860880007,134.38432844515702,140.48914425143792,134.828027397166,123.11607476463941,106.60573615239792,93.12474212894986,90.53683838410738,97.86158927485317,107.30049295888368,110.75830856450756,103.11636423095734,84.27669948457675,59.31211433884948,29.960926209540126,-3.9242694622442023,-36.028171558446026,-62.026809582564205,-86.14250974887207,-111.205867181146,-135.30628734056413,-160.28818247727622,-195.23829849071672,-231.384593036544,-224.7917870651346,-143.20136786052433,-20.81332671649196,76.23208802511881,120.11572430714894,127.28373684298793,120.64306882204987,110.0755730263053,97.73787949923413,87.61390566595794,86.0630090520199,93.32476061502796,100.52038476080213,100.7372718677579,93.90374297803028,79.75331273468575,58.45002591351236,31.4177756814686,3.496588814456771,-20.98874062143313,-46.39624670161222,-77.07511443257448,-106.23843173453199,-126.71990659471962,-143.79347191680097,-169.5105226411684,-207.22405360931108,-234.01115095619744,-205.91122986085944,-109.19273512565535,9.039262544274571,90.5504975238164,119.92168565292295,119.82015795616142,112.93025362321075,102.4858434939576,87.1415488314776,76.31535004825473,79.45228049403681,90.9653887217064,98.02393497348812,95.69808765530631,85.87209821710863,69.93561517702514,49.856410000939064,27.495682558072676,3.8504760995681444,-19.376439355272876,-42.726253664139705,-68.67164802584836,-95.83089521430624,-117.7311980581203,-133.85294931066565,-155.52105393940485,-189.70471062314874,-211.2661941440431,-173.28061647738076,-69.7726395534219,43.86919820511592,114.4619488281182,138.21300216661626,139.34621764444992,130.39107817535537,110.31923913013337,87.83434257769115,79.35029269566024,86.59568931824602,96.09351457315114,99.56182873389784,99.14981851129716,91.6051010921595,69.80090774787203,39.73763863985733,14.085367259238298,-7.237011503450103,-30.940479465789245,-56.26221202124253,-81.18125393976302,-106.44140937151124,-130.93593794877867,-152.67524132780648,-176.7580321805448,-208.62482168455273,-225.6847545754258,-181.4185230734984,-71.77322111270615,42.3030829706738,107.20337355545554,123.69156841795355,118.48419363434323,106.45866938411623,89.0184797260422,70.59737966457338,63.18920794704519,72.42317940567621,88.23981050640897,98.28632198887634,95.29144815883262,78.95645333821476,57.12988737929282,35.54927314636425,9.882948227704766,-21.031919772689438,-47.05887746728844,-64.9904374777681,-85.4958620421093,-113.64958800948465,-140.66042218072533,-164.32580832528893,-194.33524606769572,-218.35552720840113,-191.47748492152922,-95.03374707887853,23.543713255278817,106.35801143814581,140.25702695148254,143.0099792007221,133.18661582362705,119.49897811875971,104.96528640733789,93.48492934195417,91.64197593513302,100.22014917190425,109.62641675078979,110.66645052757094,101.66179228302347,84.35046909280672,61.38243089897925,35.542581489544176,6.598997022714958,-26.400466634486644,-60.86746929475823,-92.42763065485319,-118.69949942605149,-140.60349185170867,-161.8857542789331,-189.5461145948979,-225.06201512355284,-238.22663703580056,-183.8853393961547,-70.80210650248638,38.91182684612835,103.0346112008053,124.15712578436174,121.22202590737126,109.41748566585609,95.99242652093567,85.33268456683818,82.8217116200423,86.90667670669467,91.28393058791391,95.05997666354378,95.55038492773069,85.04419243908642,63.34596676846445,38.25102031436987,13.605011484526441,-12.728043997356432,-40.10963173208844,-65.73302907090526,-91.26662746515692,-117.19730518274085,-140.8462476664192,-165.37274901831046,-195.95655779548733,-219.8438843069162,-200.59514119854748,-116.67317330422135,0.5921411640814134,92.9856387255945,134.0633546028148,139.59231277164983,128.68867222221886,109.06527295658196,90.11648374130831,81.14201887669229,83.37450027004282,93.19693316791506,103.68160549900489,104.82377782766447,92.87857840650588,73.30833194981419,51.787843073322136,29.974856746885955,6.711231715033191,-20.258296314163477,65.0,122.0,69.0
-206.96434042185282,-236.1980040127795,-208.78457559706854,-108.98354060794478,12.149350582362018,94.18712133344553,124.75930067749657,126.09461164872542,117.84846496068793,106.60635968932118,94.29454346818295,86.07620806499975,87.527353608052,95.87996958330427,101.36601401927686,99.46989967388339,90.58721553358765,74.29941927529478,51.10053298340535,23.14118916294898,-3.91253798275203,-27.88193132600073,-54.815561054166736,-86.13840142710983,-113.06817077753739,-131.48532633962813,-149.8632725783842,-179.56867478774942,-217.9111458908607,-233.277300875689,-183.91800024788128,-74.22606769462247,38.048623441595986,103.81131140399384,121.59621181944722,118.04621405968874,110.46682376495444,98.35190357326626,82.94122356052839,75.7190259242325,82.51568233819363,93.89334114255436,98.27776810034509,93.53510696991242,81.85022632090703,64.4350712724705,43.604209981423516,20.713071494025762,-2.943287288816084,-26.003363228292137,-49.88451228668042,-76.64367888658897,-102.95025919585329,-122.66955266954999,-138.89348290269092,-164.44451112176472,-199.31759222094206,-208.0286730893771,-148.4662372635424,-34.91220147188695,69.83968377935834,125.17608557451736,139.88404150747687,137.7825720300676,125.68698935998536,103.28197311483372,83.45596100434327,80.2849548309247,89.74594637878607,97.70180473399506,99.76366861250372,98.1105893690205,86.83493249412908,61.32241179166204,31.557093691652824,7.836728556275516,-13.718772408272775,-38.25550088810293,-63.48504493065256,-88.42650412925012,-113.72986651396958,-137.46373862651964,-158.95433301002626,-185.38916847141354,-217.09097515585086,-220.82793146163425,-154.58639398548317,-36.008813349984045,67.06225070655293,115.82028833652743,123.36735990583422,115.54107977330575,101.95282382959513,83.35341296211313,66.77851642081698,64.35767969594377,76.95405052911823,92.14826727947154,98.9445796964434,91.71284393789941,72.78185244768741,50.90981969808358,28.840591806019376,1.1725569251804293,-29.525492978676972,-52.7474066436167,-70.12469260047253,-93.06985083800328,-122.01438072401106,-147.450298578877,-172.11508806801226,-203.5375199793317,-217.83298873548156,-169.75342938318084,-59.937103492647786,52.66955576701548,120.6595321579046,143.27005273452838,140.89882445051254,129.44918402736303,115.28170552188978,101.05874516241556,91.71520168674127,93.3269870340318,103.38831054212118,110.98759962694328,109.03785772510288,97.41925660171817,78.14663173259312,54.15155566562671,27.58028221198144,-2.556340649381929,-36.4065209495856,-70.45018008790049,-100.58108114284845,-125.36279665005723,-146.57392482848945,-168.85541940701572,-199.54336190771022,-233.44478353190166,-230.57403851009514,-154.93438145539943,-35.94443707555817,62.66460927226999,112.76641222741327,124.96269683858061,118.26173553934656,105.53876127657963,92.36764734297365,83.63783483608083,83.63377316287438,88.29878833133532,92.3963948795827,95.88235006373462,93.88295633490965,79.63923977964117,56.10712779321304,31.13411843916711,6.258872140838327,-20.700741860656613,-47.70261369865554,-72.99397190022844,-98.84602330346709,-124.29210815079838,-147.51395116701045,-173.61934037972446,-204.8652439926159,-220.4455194816488,-182.66800845452383,-83.6176958657422,32.00519618477093,109.9516408319473,138.20173779252175,137.67782887918767,123.61305766217284,102.99722676784295,86.28921407558578,80.75083890279492,85.65181454493707,96.59011715095279,105.3532606260382,102.58481619059744,87.68599997234593,67.14703397839904,45.524916539302076,23.5084052012237,-0.6522109038185554,-28.6344093910444,-57.07053853720506,-83.41568617311947,-109.75972449164819,-133.37213402297604,-154.39199209449745,-183.87856811575264,-215.04452800043825,-204.4707541717423,-121.85195086518594,-2.450495998226296,90.64803657792089,132.00626053403735,138.4371116190511,131.0685058349654,114.46059531994025,89.7973075407639,70.61233864384936,70.18102203192859,83.09660575506273,93.45123096714325,91.50041101726237,79.355701895995,63.401401381977585,43.79169003852269,17.743393951956897,-11.526451030844942,-39.710089486784966,-69.11658611058205,-101.05115425326254,-129.12997516047017,-148.78038130710834,-168.15319258699057,-199.85382613354952,-234.50384522803196,-228.11231056509936,-146.42297350017574,-19.99605164424436,83.78021293947455,130.5820704651265,137.1378349449552,130.95205175178404,121.36286009723108,108.43859841405875,96.51677854416828,92.32038606679701,98.02962823007266,107.75927270256865,112.52166855869952,106.53632444105034,88.65196285163402,61.76006873483574,32.50513298999576,5.657672439126457,-20.738296315423586,-48.67429433472633,-76.89719961140925,-106.43042269270987,-136.75318485095164,-165.828915439083,-198.44391517735647,-231.03962163375522,-231.55382419527206,65.0,122.0,69.0
140.30664973263933,135.44327179216035,119.99439476225177,96.44772575663613,80.6137469642642,82.35335656396772,92.68015358827128,98.76040529402904,99.7394753430818,96.26530054485141,80.74781576215584,52.48594716678528,24.00870728075262,1.7688714738801965,-20.5223516278822,-45.60209358758122,-70.67125096505262,-95.72621775238751,-120.88737991997021,-143.73079984987422,-165.66768982161193,-194.72656669712637,-223.3442286758612,-209.65509842046154,-122.98249375425455,-1.8000442527452225,86.89483899602163,120.93240725784432,121.90402260614297,112.17631611776368,96.97264853659114,77.80590052080257,64.22937021371135,66.88855819252656,81.66976591371451,95.32825600471868,98.37714037756929,87.10159422751303,66.41023379953609,44.74970237849107,21.59593216221983,-7.871181786860959,-37.28654751304387,-57.865244242928355,-75.81703552413168,-101.2387306683201,-129.97300945446156,-154.10583125073163,-180.71721259586698,-211.52066048039694,-211.75043780408075,-142.4010413387852,-24.735553559087855,77.70879452169633,131.0498040500565,144.24592691034357,138.09971407169996,125.50751052659047,111.04021457725925,97.53968016629139,90.9264286336654,95.78696050677158,106.3129108703641,111.49954227074423,106.59517550843742,92.5306206478424,71.55032342489086,46.73519075155382,19.31271256819103,-12.052547437546057,-46.43135362987442,-79.68672006269878,-108.26587759469116,-131.71288362199698,-152.60517028887017,-176.58084617420863,-210.10274494045672,-238.773683897415,-216.3126853198759,-122.10382454647106,-3.1056492915836498,82.09871079671524,119.30256484630934,124.23870871554743,114.8540667120132,101.62055682680251,89.10310510069115,82.74703363389267,84.8435556175591,89.58380566218312,93.50987581154631,96.26920658273514,91.11080512859445,73.41931915956978,48.8071454477408,24.05491475453056,-1.3054464566412465,-28.67462363805054,-55.10978852342105,-80.33535841451013,-106.40725864070447,-131.13537218286325,-154.42758630918664,-182.46462438130857,-212.62543556776225,-216.37813657114174,-159.2182404619055,-49.1069107450524,59.93339854687165,122.52649094524469,140.0257074272813,134.69686752015377,117.94037244798331,97.28310580323046,83.4566539930201,81.24553837228376,88.4597647913755,99.82226921523792,105.98953365773923,99.28100791850487,82.04505436869775,60.92190767269044,39.24281254772109,16.87084567049071,-8.383029349731006,-37.04290695327056,-64.8154477679969,-91.0130490260165,-117.08700241426945,-139.3284711617654,-161.62786130020484,-194.08917737171546,-218.56316546282102,-187.73872525290824,-88.16640152976362,29.310083689582726,107.69101256054796,136.26396186540546,137.22578700055723,127.3123894233316,107.81390166098245,82.86718439590264,68.41019547585304,73.21768054540239,86.9991058448331,94.26516869336417,88.7220384578579,74.97011140205777,58.28223072693512,36.92375158473797,9.337125254366553,-19.798494104422883,-47.88642761035702,-78.24781705411462,-109.92817820815617,-135.58541324553002,-153.7409740277039,-175.79329225183523,-210.9632670256174,-239.23641621774,-212.2656536326945,-111.56023555664017,14.925996527753195,103.15491051491782,135.1748784410061,135.8750578644934,128.5259589407525,117.8955941131553,104.57679857469955,94.27179808230021,93.07149944625442,100.83464727101713,109.99726523574455,112.02040559007017,102.54792141751246,81.56327509968503,53.22715846103124,24.475686037303404,-1.838520380227724,-28.697496409154635,-56.81270314082626,-85.21979728253454,-115.26338917605368,-145.20701188126077,-174.61227916773223,-208.73986887376245,-236.43338942678682,-219.99586154129562,-136.15817482150482,-17.594917856565427,76.80556636087627,120.23960276500495,129.30101769720844,127.38045440361375,119.63585564207378,106.72843157927656,97.14423476230917,96.9494800293947,102.57300249046833,107.044744790352,106.30599318052526,99.156839818495,84.78636915624178,63.16792280583128,35.395502788255044,2.9992784451672145,-28.67927993209754,-55.20848660119106,-80.72499746658107,-109.92937353920074,-137.95442802413177,-159.9662137900119,-183.2408880770265,-215.97809275735412,-236.92260106056622,-199.05223507553282,-94.95004031111239,19.341319208263076,91.25010420792243,116.42775728957099,117.67049781531777,112.39498824689178,104.0007241130799,92.66753397011925,84.78262916333874,86.43708477730712,95.08214614509268,102.72275981646368,104.33718288426763,97.12031614360119,78.77168045026488,53.45499196699582,27.854839315471466,3.7335853380596213,-18.49576328680187,-41.137668277160735,-67.95204920973617,-96.12568714219948,-119.42780281323188,-139.1263127137332,-165.48155739315652,-199.97666234475648,-215.5144039752411,-170.28257524843661,-64.47566615118036,45.30718955486021,108.93805494105487,125.26648772478303,119.07129466859224,106.28040109967027,65.0,122.0,69.0
108.73500242605745,111.13107366622329,103.38613628735663,87.05417192703875,64.64759668280871,39.12539473164218,10.696054849734896,-21.82599149834755,-56.356483069127194,-88.51081182791275,-115.50285980285376,-137.8325902208114,-158.86645084168038,-185.2305006498243,-220.55117370977365,-239.65875412290774,-195.5092956285462,-87.13769590610067,26.541083333132526,97.33716781101052,123.15015579330134,122.37340791955621,111.17253002183888,97.7406545159771,86.36987055761753,82.63713520479483,86.24528158256975,90.76329226320259,94.59615896033421,95.97709781131202,87.2082101892325,66.61405124044845,41.560548804401215,16.930221726832464,-9.084158284516786,-36.541230237929206,-62.39284543685902,-87.79244718139289,-113.84047122851995,-137.7982731999388,-161.78616168884952,-191.68996274471428,-218.25884785100246,-206.90377545023532,-130.9912363079391,-14.758250231127805,83.61094635677833,131.20225988739114,140.06401433143,130.77955526448392,111.89871997962635,92.19299199420752,81.64236522710783,82.53718118938458,91.64894201927171,102.61712684622402,105.46641994741147,95.07221773553484,76.10968266977218,54.67234963624386,32.91666195608305,9.987660926995899,-16.44978871392419,-45.33959312631366,-72.40271462182753,-98.66538975572135,-124.03192617049032,-145.20329555086352,-169.92690261902376,-203.8970989982608,-217.21755531049726,-164.74967339855053,-52.96447946479592,57.440712701499066,120.34338538956348,138.28645601551545,135.2326750777625,122.72924664694968,100.60181600353121,76.86769648209355,67.96966403064057,77.03110203107495,90.28901083984029,93.92717604895451,85.25501487879427,70.40338678968497,52.77055566663447,29.476928247015014,0.8204285014128134,-27.926229251306726,-56.29089556130758,-87.54609851210134,-118.26071198713532,-141.3085828998735,-159.02860083332197,-184.7328725341503,-221.75031459380372,-239.14758550447175,-189.73672886146676,-74.43729681567062,46.289076964847546,117.52023629590146,137.20253840537248,134.08886023400427,125.84259309230012,114.15590524491658,100.96556429385268,92.82940844692585,94.62865081290938,103.75926567721531,111.60683734212343,110.53391211648557,97.57100696089707,73.83607696680038,44.68958796465474,16.701775299525888,-9.407566970572862,-36.77833839277372,-64.9431282337329,-93.71355266369756,-124.08627293418964,-153.54152127859768,-183.9054888236258,-218.7254854202423,-238.06105705616667,-202.366743619005,-102.78903021741286,14.311731771830937,94.46037897302347,125.10321836575568,129.30802911365876,125.83587981894033,116.17972602437972,103.17495427760183,96.12170211782615,98.29873456200302,104.2383417414165,107.4523941785477,104.92492816674192,95.78579177932141,79.2347900212789,55.74113472759862,26.362040809171273,-6.540747424660926,-36.8573733086745,-62.34527759670033,-88.8200275554062,-118.52062278274576,-144.86039198733977,-165.97747156048754,-191.86521722225783,-225.23673580561655,-233.74108823467793,-174.1340084893823,-59.889216209959024,45.57255003473723,102.4842179587402,118.19429604006,116.44823910668174,110.3556866748737,100.86471110109075,89.65466510859933,84.20634810378478,88.55226197432376,97.71170844293043,103.92134372714767,103.31205575813567,92.93782028656524,71.81728233861111,45.92351578566421,20.720775402276377,-2.8773996545208975,-24.777572145572815,-48.42111574831558,-76.25700243586182,-103.52696248792275,-125.12478906707531,-145.60339051398017,-175.18203797199396,-208.37720271416146,-209.9830425491039,-144.12980807062266,-30.184286881414522,69.4151688616002,117.51862132010827,124.76362697779497,115.75363119178441,102.0417450377587,86.88493427099357,75.7633643244554,75.90619964199584,86.9044218107812,99.43896027750567,103.78447600422056,96.36877968971883,80.10958951911512,57.38630151920601,31.754441800597608,8.427824956950655,-13.557739336499065,-38.116767805111984,-63.19042591389047,-85.984438297989,-108.25532516788446,-131.38403776237593,-156.44612754035293,-188.4046458508989,-217.23041446360892,-202.22856823868514,-117.50284171186945,-1.239152178114368,85.48453739465552,122.41513647032069,124.8695118117764,112.84973470743176,99.28345911543072,86.04218773916425,73.85788259308349,71.71851229074335,82.79869394230519,95.3843798266019,95.43266314988468,81.59984139714366,63.19183152105373,43.66344964348748,20.67302414633332,-3.686693493762364,-26.184433438783287,-49.343333188322525,-75.87353541309322,-103.15952201155525,-127.23623895076196,-147.46878138079734,-170.47078376648923,-200.96395986385124,-216.6442245080718,-174.01011265413402,-70.83321384780074,35.53843067319397,96.79415166199574,116.85084908813747,122.20312556955288,124.3372611955152,118.41718480923684,104.5752881774061,96.5426503523271,101.25062236575017,109.81661639014206,112.277660739825,105.98986206134845,65.0,122.0,69.0
