-37.963312536903864,302.48697969456316,386.0379265953534,301.6804892873305,227.57732704297098,195.26642218411618,182.00088865232416,197.93279211326092,239.36286041837957,270.9892092265358,271.43958200393394,250.33225292674868,224.33864437834706,196.27409477861784,163.46084338965926,129.32718721793444,97.66249856110187,68.02972448053211,39.397996526271214,11.637306534222835,-15.131489388846298,-39.346852272078436,-60.8766606735918,-80.34535951381896,-97.27011505908668,-113.49930834151374,-133.35030740731276,-150.94355561506944,-143.24449422751724,-97.90053512816655,-37.87464575615268,3.9282743802870876,18.81533371578616,18.521459133513194,14.624977303340533,7.375268838686054,-5.8103450635431,-20.47215057187475,-31.877531908939904,-40.48250690114987,-46.77717270185527,-50.13442813750208,-53.219259398405306,-59.9342735408587,-69.61362221514754,-77.78056521168574,-82.0957706267796,-88.994252625196,-103.43303246518732,-108.50142827344816,-76.66176733263872,-9.9188821906325,55.41646888160856,92.01460217945151,102.89464003352055,101.90298952895591,96.00217949382119,86.02324057191666,73.84833052439157,61.70311328472308,48.862014634119674,35.59479815577219,23.355621494582213,11.579380654069993,-1.5058480170604507,-15.357171101204822,-27.830359906574238,-39.86186402519114,-53.23306577299658,-69.96938082344556,-90.98246192332788,-100.01715413238537,-69.02139764269556,-0.7335582634641811,64.65861552128321,98.45136524189859,107.25439027713531,106.69298585992601,100.58115046441064,86.9303037072287,66.77046295515518,45.712294409669,28.622055288314996,15.490919207377956,5.047781586056052,-3.8142195518321316,-14.034136878871639,-27.89531856032364,-45.01424285235492,-61.19980145750114,-71.98075520213881,-78.16289469192685,-86.14472407852126,-101.32647548650311,-113.53304549852973,-96.89561788579728,-40.62753852940465,27.867201739081903,70.51639142204318,81.3143447727116,80.724360675328,81.37107598269947,78.20823553705615,66.25204303148384,48.88234963118766,31.75028759683562,19.23059355257066,10.821500170318734,2.861362300232145,-5.30125145414918,-13.53971206370787,-23.17170480206813,-33.60909196752696,-42.039551766500125,-49.725184677043615,-59.48931411142878,-67.27838062362231,-73.50098489659557,-85.96723761481412,-94.36306976560661,-72.20853604578517,-16.658758073759927,41.692623076747694,75.12660050602686,84.61877255187439,84.39461915768807,79.35982349856461,69.42502792234447,57.641517140936614,47.19959577042063,38.02087689828983,30.714055044904466,25.2568462536403,16.911380662801026,4.097926004786258,-8.075232144766467,-16.39014017366661,-22.759027693375153,-30.59644509247874,-39.70694054031877,-48.060849695157984,-55.776570468944286,-65.31571974853478,-77.83329366295231,-89.26279535982455,-87.04909356496285,-56.63854046178353,-2.796294044137253,46.32605072371229,71.1330169210877,76.79272805546907,74.36882937257874,67.70206036762181,58.62516383351303,50.09691720630905,42.13168975422622,33.84248035320771,27.214886758559967,21.819843943165527,14.275781135398768,4.764529948118686,-4.464205081113327,-14.054682757219503,-24.53311613527419,-33.25503901485247,-40.134680205407605,-47.9306187402388,-55.43991724286081,-61.154780653094335,-68.5791502105249,-78.21945046620806,-76.66648399691998,-49.122361837448906,-4.818727679872275,33.70508590800947,56.38771717773431,65.74808804795154,66.11258780710666,60.86440111365228,53.026034466834396,43.9230695288356,36.491742923495416,32.63296356005165,28.57344534683015,21.395144246170823,13.396964507153307,7.532076058007011,2.477224734627832,-5.458822559460453,-15.99684127055588,-26.979569406233622,-37.48770064625754,-45.85103191528142,-51.19193320099511,-56.41147043432699,-64.48496222714849,-70.31945689904116,-61.382963899751836,-30.236893290628934,10.584700038629528,40.5903305918608,52.56837088046168,52.67979752025309,49.538166421184116,47.8445243418717,45.4615933002607,38.6138993528314,29.683458622548414,23.17190869493732,18.67699080647651,14.639849061011342,10.670613310029271,4.792294073066803,-3.569867928628396,-12.500410248533589,-19.958743426799323,-25.35832415073427,-30.299448803373274,-35.80632553364366,-43.2180007965856,-54.35729428802152,-66.2103417951266,-69.52964681025553,-52.45969508752724,-15.281794135432781,23.180835748338684,45.33458228363023,51.30871176607911,51.54171987305803,53.04492579701324,53.12098446036971,46.337467446008354,35.351549802257125,26.72647978973664,21.60980832697875,16.436801724336533,8.91773706734339,0.9024652997385639,-6.3927857556710705,-12.832812883835059,-16.837979037630628,-22.33436265312221,-34.51175740084858,-47.75459671177024,-55.67543980460696,-60.3561359337278,-65.84325128914516,-69.40976862520576,-58.027338404921835,-23.861890191472508,79.0,97.0,57.0
19.989611077949345,7.9793550315900115,-5.541010225105675,-19.1352383065522,-31.243622951889293,-43.542814448353326,-57.5646673249363,-75.84661059156048,-96.14314978831493,-95.99570804946451,-51.733542097282296,20.401462934832008,77.93180548135241,102.7326728536231,107.64969335994124,105.57819388387041,97.46674958991045,81.58788510872432,60.48556367338198,40.281430220103054,24.50275271005488,12.216252901639143,2.4335599115288256,-6.493366893543963,-17.614753810440455,-32.62400809838971,-50.039053245688685,-64.95891279282793,-74.0404616015061,-79.92158635428513,-89.818299435423,-106.17433436985294,-112.79519246532453,-84.20328412502286,-20.146715391410574,43.90396327742282,76.20245392477405,81.36149393242243,80.78331009364793,81.23560188222854,75.62937094061547,61.529300404618276,43.673782379295524,27.554652477794185,16.551338254862582,8.579218147787321,0.4822905845181822,-7.621984181677512,-16.1397596206546,-26.22248776650529,-36.32927684846028,-44.1271363049364,-52.393579372393035,-62.17495658228936,-68.864122365302,-76.35635276515782,-89.97953205069409,-91.99496224138782,-58.658042900209736,1.5697951358861764,54.42566712967546,79.67133225684432,85.10005296288118,83.46308826708875,76.9253436246114,66.0123394072439,54.447099009559565,44.43860287560702,35.643582238960235,29.084742371222553,23.378885892972594,13.501277676950455,0.2758983442934506,-10.87830285725112,-18.251136256348875,-24.794617610824346,-33.19892420749672,-42.254897423609314,-50.26531834425643,-58.23778141058645,-68.66911339284762,-81.63237025722711,-90.77523447157888,-81.51101873924733,-42.504539355122546,13.235655893162445,56.13557023878961,74.1555312727334,76.61650598877458,72.83726669241855,65.18306957687113,56.027347177484714,47.81844391223693,39.72421661596595,31.663951770950188,25.690648970536895,19.94734139070469,11.614366723219383,2.0276022271297247,-7.106620195315087,-17.07944000257591,-27.340438107156103,-35.299592461180566,-42.24332316901321,-50.27872023461912,-57.19859851536961,-62.921774855401246,-71.43266714563441,-79.82034882289835,-71.52182015584008,-37.01241840773548,7.6956575709900275,41.90539991519157,60.23862819858749,66.63173955116036,65.01030142854233,58.79084264315455,50.452316460052636,41.42679857803653,35.085993897816316,31.70953318705138,26.798295649166246,18.992738902313107,11.440820044519665,6.169402930270525,0.5697509081748485,-8.356078056706393,-19.17053410899169,-30.118829474061606,-40.210352292089944,-47.65744828586252,-52.502387498763284,-58.47955857685918,-66.873672597797,-69.84883593083187,-54.52706756210162,-18.438129232957994,21.023783193875378,45.789611123656094,53.406293921830716,51.78994103804096,48.86134067066858,47.4609250909686,43.968098515343875,36.00244548792104,27.466613215979873,21.778102900681247,17.47036079820414,13.543866886466644,9.26185871643935,2.567982568369118,-6.189810226246979,-14.881387739691446,-21.68167718442072,-26.758852008565473,-31.81154065246564,-37.63855777214602,-46.06012160056399,-58.00487543652271,-68.59904465488924,-67.07191899013091,-43.21002633192923,-3.268004436590803,31.601993797472964,48.31944238282026,51.498568294607104,51.78310678598275,53.52354103224686,51.94019792884532,43.26633865915804,32.43436046016093,24.997691792227403,20.305939773646323,14.477929422594293,6.539515586111471,-1.2575305958274825,-8.415218934319721,-14.233714290423041,-17.916836520173266,-25.201673873028454,-38.660009231356625,-50.63170997062856,-57.14050058453755,-61.778025592826914,-67.49195850159248,-68.33158699891415,-50.287360334978274,-11.38219305738551,28.38430529579117,50.544282247229404,57.9168192226477,60.72561367283167,60.038181148679904,54.566792081340644,46.507151506685815,38.09812754647024,29.509715743036644,20.33600790781917,12.719493520032707,8.02146383324612,3.2285858420649665,-4.333526293783226,-13.480221582041333,-23.072097758926734,-32.73876496076135,-41.28489302732264,-49.73226117432168,-60.69559063186225,-70.79103778389448,-67.75714172258137,-40.37343294991848,4.10761402599437,41.82652963310616,58.195900962842316,59.73069115464999,58.4261480118292,55.925495271339344,48.844776308590944,38.28497148780011,27.793414224549224,18.54139808661732,9.468010595996141,-0.44808861166101965,-10.458696908740404,-19.244457828696213,-27.327568397584,-34.63796311962027,-42.14527963419804,-51.94701341157854,-65.07871134555671,-81.40510293237782,-92.32580052671904,-78.58924680596702,-33.48541507305388,21.972350818671064,61.88645097087824,80.83846939477708,86.33651084274557,81.77666077049447,70.4362274967337,59.39886427765484,49.441605748193716,36.90306984117436,23.86292483744716,13.266222453231235,3.25810699477396,-7.649292854136161,-19.396765677695598,-33.43156268162657,-48.531721130074175,79.0,97.0,57.0
85.08994529699275,82.12096741967045,74.09655724129458,62.55875660504139,51.40737268128168,41.75820712035787,33.46967150532777,27.56753275390929,21.098420687031172,9.776435131259195,-3.3409855531136197,-13.33012310620888,-20.044734632919692,-27.021143330703183,-35.855176794821965,-44.69559253335135,-52.45422416858843,-60.91984267846779,-72.27511942424414,-85.17630775550026,-90.7480367889115,-73.30345256558248,-26.831477332914666,28.041735078873927,63.70729682330619,75.89856031792209,75.97921337185691,70.97009025047832,62.53483135387197,53.53996491754733,45.542124964179045,37.29295393299033,29.70013104788398,24.19227291881421,17.821502552843327,8.845364892690146,-0.6401882687915564,-9.837525341255278,-20.149421695538713,-29.920016444735676,-37.24904944086531,-44.488779034079656,-52.5127985508315,-58.817652063500425,-64.96518501773627,-74.39702103879766,-79.98584089655006,-63.97301040886832,-24.02911662790342,19.205237841143887,48.72260231361646,63.103296376330825,66.8474205492772,63.52883576934087,56.55533957194163,47.795160050627715,39.17839162922583,33.97279986988822,30.626657884965518,24.74691021183762,16.621059810675934,9.711968201336926,4.784956912514464,-1.6574697812938777,-11.406033302846158,-22.348084527609892,-33.19666200197438,-42.701561625029015,-49.21299418278119,-53.921632834809245,-60.82019516157082,-68.8511973710169,-67.7866652795275,-45.76934203138214,-6.363910064149674,30.11397738713155,49.487651518352905,53.48177773329806,50.82186936529088,48.3661530537075,46.891016680680636,42.04776857106507,33.34783678702317,25.534832964311057,20.484654755007952,16.292671736716237,12.43665790722254,7.627283194829452,0.16098203150156262,-8.802085298932841,-17.090424942685082,-23.246961104896116,-28.170990352476814,-33.37610263974133,-39.68825088011443,-49.2417772335243,-61.577597615042244,-69.99000981061482,-62.62423695974034,-32.49744381160925,8.254197445014002,38.371058450769716,50.14007682257666,51.492379277987375,52.22002333575202,53.71683789052012,50.09100657149939,40.01629967031669,29.849791409018252,23.521747513556992,18.882249169683018,12.314748296305641,4.194928393862798,-3.3658121624402058,-10.342157814811895,-15.389281516296435,-19.317294461421856,-28.681982705344,-42.640861355102786,-52.99548962262888,-58.45466085310149,-63.35031643091682,-68.81069534485023,-65.59106252209163,-40.62519290986082,1.1543052149719553,36.87431966125457,53.648889734120615,58.96724575342437,61.005946490603435,58.90041587843404,52.372449664748025,44.06435877665932,35.675696942358464,26.880559848742664,17.837321396755332,11.1259899474647,6.836819280673103,1.326847986354015,-6.896278298361464,-16.21684249072566,-25.89873465267101,-35.35802199463853,-43.59310834847687,-52.61279301754321,-64.10272424357356,-71.93330824046627,-62.49502018690664,-28.350804118655386,16.745197728822905,48.80717115795374,59.52938845535137,59.34484859350744,58.00045234127762,54.411813403944905,45.983381233501966,35.13195725998951,25.01762291209036,15.964925271513824,6.701723703282239,-3.418463731731595,-13.119186397488214,-21.634527881121855,-29.523961812459028,-36.68775653614362,-44.67280199588306,-55.370911083388016,-69.57475537692345,-85.88457248423622,-91.68367978836969,-68.31935092517602,-17.149921315722008,35.79296478024874,69.22875358602823,83.5279788796336,86.01707710781353,78.8831515459816,66.99079087943954,56.60233990739142,46.131237558154346,32.96676575551296,20.568203496010028,10.436239909540246,0.19078948851199048,-10.925211461493383,-23.147306066641907,-37.914310475725436,-52.29219920695181,-62.109249429503386,-71.22688615427616,-87.0044955937067,-104.81474317277588,-103.30525826961345,-65.24689347808359,-4.431554069994993,46.468545230941814,72.79316451804158,83.57664794321167,87.86437652363833,85.46894318293225,75.16678262370877,59.422373634743,42.36853484712891,27.58626501582923,17.658134294037296,11.70669816725923,4.389849850690984,-5.892550656529028,-17.631559753635507,-31.14054887492518,-45.567729808852526,-58.089199292186514,-68.24611331514646,-79.5376219241424,-95.04292534819463,-102.30003489809604,-74.8840884585203,-12.5922282728761,48.13095476356973,79.2346364275749,86.22960533848843,84.93709569890169,79.62333906325946,70.26100948993825,58.96733001970971,45.91114085320012,32.10300409764961,20.54041873739032,10.913058078418967,1.4161740350251484,-9.473533816350333,-22.499949188510893,-35.669513346030975,-47.73249759072718,-59.14572912260653,-70.36959468481002,-81.97790773827894,-95.15465692892558,-104.10834904941937,-90.102795032133,-42.07428756094942,18.11202504139962,59.181599153936375,78.11901877829308,87.46663196581007,88.72275104547137,78.65269879547927,62.506433248005514,49.58248280910838,41.66610038941305,79.0,97.0,57.0
3.258395508732984,-4.196077806988077,-14.538865299260378,-25.521295718553173,-36.16790011572692,-44.92323306373577,-50.589449851183346,-55.560516154825535,-63.324332227113224,-70.09240104833579,-63.864100331983686,-35.41924391064865,5.4056224295192,37.65655278107901,51.86060577219834,53.01793644601347,49.911349340878054,47.99891664243258,46.00395164340807,39.76177104861902,30.79396713647903,23.867416497909858,19.241030923404033,15.152719713474344,11.2578127543168,5.743413630198901,-2.373911914851095,-11.35617277260593,-19.100634041771325,-24.70605405099223,-29.617874847174512,-35.01464325229216,-42.027021989029215,-52.69952412879786,-64.86235967065409,-70.04491659009113,-56.12399642214057,-20.82562831855375,18.77688499973618,43.49400669844803,51.0857930473421,51.49595675096062,52.78111648684816,53.44402133350905,47.63644628475378,36.786394183624644,27.630071433933235,22.199230839186384,17.26167627102089,10.008253872955551,1.9225643081172734,-5.443901665785662,-12.099394799558487,-16.387559737766033,-21.23681419752401,-32.61268683561379,-46.25140238525145,-54.91294884352581,-59.74213833724506,-65.04674455559184,-69.45265986414691,-60.89518801972257,-29.410674255415202,13.099047267995537,43.61744591066207,55.808027220515896,59.82574799860279,60.922129728701435,57.36968091039591,50.03994698512182,41.63038546020608,33.217869283345394,24.20409538022241,15.555850104931013,9.766296471606802,5.53085342775978,-0.8282918243126834,-9.537781562025115,-18.981213450759657,-28.719205327833958,-37.84497277995271,-45.964588684157256,-55.757361106685416,-67.26490726430211,-71.60008757821842,-55.00636552960923,-15.330376230195528,28.167692642455766,53.862227159733855,59.96889287350183,58.954420318334,57.39064254219911,52.44924595101978,42.917935115708666,32.06410307141864,22.340672664617223,13.3661897626441,3.847608619938506,-6.3496248872800995,-15.666017805685229,-23.986458644375066,-31.64116888522082,-38.80503836377156,-47.43812935591812,-59.085940852636774,-74.33313796707525,-89.55256120501741,-88.45773305894191,-55.52767675149976,-0.7156654047482016,47.8121176323604,74.93407179520091,85.29215677182276,84.86166924359425,75.57178477439024,63.74385166254663,53.80587185278077,42.53411371913168,29.119772637978357,17.49517254183053,7.576587174128347,-2.953608100064352,-14.273729928577158,-27.14958006464994,-42.38072162186859,-55.60607282718375,-64.43637657893328,-74.94992682796659,-92.64482388425606,-107.49521290221149,-96.15015884781249,-48.58314612383097,12.51702302531213,56.4758161713408,76.90969086361079,85.3660807842032,87.97469742428058,83.2572275781112,71.00295113869359,54.44761809399481,37.73553296706002,24.14108850591256,15.738732421653564,9.934546772221164,1.6429678418035736,-9.14988477432786,-21.33259444641196,-35.33218111061949,-49.48069785145958,-61.181155354338344,-71.15898551395645,-83.68384943909658,-99.14674311667845,-98.81896011660119,-59.281051452843926,6.961197908170178,60.47289818149834,82.92735009439703,86.27178952924119,83.86867024913958,77.24238961444122,67.14188239014271,55.39798882909364,41.86064851386965,28.45278575464816,17.665170623623688,8.205447289358561,-1.5022754706038794,-13.072968602140156,-26.38917738185776,-39.267579079220326,-51.062469801761466,-62.40486405376042,-73.61800538148347,-85.64080427975618,-98.80213955772612,-103.37358281973675,-79.41423974533953,-24.27990803835446,32.71950774608906,66.33989902716823,81.45741861796407,88.88682025966753,86.93310165355587,74.1712258402546,58.14257315931713,46.99631563518849,39.380949890987196,28.397365041773103,14.245133786670003,2.4865961508487993,-6.915291912014097,-17.645896207583952,-29.714667142201968,-40.05067676654738,-48.641574422707954,-58.43087662053105,-72.10504940641259,-89.53491256335656,-96.54385413440072,-69.28253505261762,-9.807620419901522,47.443455899154735,76.06509210402797,80.4880185943395,77.99991018269655,75.0063651216416,66.00974338360945,49.12433046569074,32.63967057632368,22.717543661532172,15.517280209928058,6.102170268180324,-5.57707106602139,-19.039994798164123,-34.036686080217294,-48.72595839678617,-59.254971695308456,-65.2621714254307,-73.77887265234723,-92.0730503000112,-106.69868271521466,-85.04582209568677,-21.61949195153455,44.67184415393272,79.09710704238329,86.76469376967252,88.86134011457374,88.53378083582489,77.54317465944158,60.17143666017577,45.95028898321939,34.60077156308985,23.44760649786048,11.006588526620202,-5.259704225482017,-23.148940331991824,-36.956092401110865,-46.385325671547136,-56.6152763226295,-70.2020656670866,-87.05883558810633,-108.08171531173119,-122.43471991268763,-101.57360982183985,-37.83984555525229,31.650890603912842,72.83119548428405,90.12962260580181,99.54726672493894,79.0,97.0,57.0
-17.18378632847811,23.9024184924385,48.69972594103145,57.34486981989562,60.495447988984736,60.41831159216104,55.5118733171662,47.6305264849446,39.211137747859915,30.69737788826071,21.538792018649094,13.547493772035274,8.557278268988512,4.014289784957719,-3.1906014120557717,-12.228153625780845,-21.774784164453045,-31.490740759783925,-40.216623891546114,-48.492311508909765,-59.111420960854474,-69.87337310671869,-69.44319147995336,-45.418448926651664,-1.9740092296356522,37.94730701922926,57.17470842302286,59.87230080950362,58.594032552584146,56.47663209787291,50.066442115207195,39.75220597579703,29.112503806726235,19.73154985054599,10.714765317902653,0.9186384431853031,-9.18955860129754,-18.128695523273144,-26.288467737427368,-33.69864477002435,-41.05109242029591,-50.462166792359845,-63.11269354052961,-79.19863653952935,-91.86819990547781,-82.37694670695248,-40.76319352500242,15.079262555026192,57.88989762769725,79.25037027075498,86.20042899915654,82.91420924144036,72.06267651449208,60.72536924065421,50.8719847982716,38.71089588996589,25.46600210366254,14.57957486281312,4.641944236836155,-6.156373467091722,-17.741250640018876,-31.402207747307482,-46.662381266775554,-58.485070771730186,-66.89928204862133,-79.38865179553073,-98.15836382265839,-107.90288184939628,-85.70845238540454,-30.732966643019505,27.836429715693257,64.38599851883716,80.09157229305326,86.72303061439683,87.45589825085682,80.39136891590529,66.47464266121747,49.468523096111376,33.36422223015069,21.165350256701423,14.062469649899707,7.903345754020557,-1.315126178298539,-12.505015926855044,-25.204825687617365,-39.54714643542796,-53.16150654764654,-64.10365722325321,-74.2931762040014,-88.22625683282858,-102.00464270282042,-91.77409037168822,-41.230695934576,25.26609702634886,69.99082262859024,85.0356416622782,85.94092440028771,82.43329616545027,74.56075386902062,63.91020143818735,51.65702746461177,37.812132487649,25.061083639043787,14.88995001793347,5.484943661425623,-4.589355145470644,-16.837631191818936,-30.22575218307242,-42.76622411616376,-54.35985521699313,-65.64864437580113,-76.92689018808682,-89.46768594463587,-101.83359916901873,-100.13841018057032,-65.85346036267407,-6.36999459588046,45.12058431400139,71.92969901933647,84.27145949764143,89.51133469865417,84.1666155300656,69.41134939638611,54.26140399586007,44.752321150427925,36.75177808441562,24.37539520617126,10.450226554733366,-0.29822531522637286,-9.774403482059828,-21.124672613278182,-32.97858731478028,-42.59492719067452,-51.2168649774858,-61.87829715599821,-76.99632843905643,-93.75146961311313,-92.89253790025619,-54.240805528455745,8.669506644114012,58.997634114143125,79.04840108636319,79.87500251505531,77.31577154740509,73.31674180599597,61.711203157969514,43.86713635982862,29.109270100601297,20.666486113013264,13.0927332608535,2.9172349986706414,-9.284852501052924,-23.24703429544569,-38.46920373716456,-52.34023582116086,-61.28240050790763,-67.00169966953453,-78.07590543011374,-98.0400092780923,-105.37744139399706,-69.8847709300821,-0.6050297105566653,58.411700645478106,83.03494514532039,87.33123914745937,89.42523988257963,86.59081192650297,72.64610435286338,55.56382659903383,42.55217334417551,31.398996913051818,20.107880908975904,6.743489891976617,-10.529211903590879,-27.72986889019005,-39.9377123675134,-49.0412274717518,-60.21135712566623,-74.68653373661233,-92.7744025833777,-114.0011263753841,-121.23409111879786,-86.58590497262725,-16.205674171087757,46.925432153322426,79.42449111386706,93.30136173810014,101.23978500415475,100.62725134424888,90.108626741285,75.92118943441179,60.418526431009326,42.769628496259664,26.964646333860596,14.418357175535718,2.0854277423468086,-12.420881394979817,-29.149459050959262,-43.11581483599718,-51.687817893056796,-58.71666869204782,-68.32958727629864,-80.9092962561823,-96.26157603923679,-110.42711229938419,-104.79055356477274,-61.42890162401082,4.747501484956528,58.8246123564425,85.90316184926323,92.91272614440932,89.43910484432982,81.80928062191835,72.82007560849583,61.72146472835558,47.83420572199794,33.49597582082175,22.841389626052194,15.342700982217835,5.035318171467164,-9.30978079117843,-21.334701096833857,-29.96726024144984,-40.72159502807625,-54.24946785065811,-66.38415252069348,-77.42426199153125,-92.30056173403415,-106.91340202148622,-99.48791411330171,-53.156644176308085,12.431744220803168,60.486899824709134,79.84490493025484,85.20511518703961,87.19867959236718,83.41078460234048,71.92043484389322,57.30568214251747,43.159736017422944,29.924711552114836,18.519703848270726,9.649120486228119,2.6088180995022925,-5.336449140119892,-17.391972417622465,-32.309202159472896,-45.47998104236213,-54.782040140796084,-61.39510444759685,79.0,97.0,57.0
-50.61182215259143,-61.01713865265669,-69.73547648339117,-84.4850894085431,-102.99087463490785,-105.48441181499278,-72.28627691307646,-12.62211471990292,41.10254455936557,70.48872938813152,82.59908563581892,87.62139630101115,86.25681800759727,76.93595807406678,61.68722677347235,44.57443057117674,29.321075641021682,18.66386641471573,12.46387706244163,5.5676314084495395,-4.422459501566512,-15.980507955190003,-29.236979168270942,-43.698751049502214,-56.590646079033455,-66.93885228568834,-77.78191826720075,-92.93155145652187,-102.82359018879868,-81.02990949634237,-21.74666828681905,41.50148758462054,76.86208635214564,86.03223232583517,85.32037665197845,80.6006096128391,71.65608911574311,60.55904160749193,47.75413287786049,33.86405122736125,21.918348175602645,12.162998885083523,2.719120668479076,-7.882329342252591,-20.703297190318143,-33.97521004171792,-46.18081678547449,-57.6385947498886,-68.88001233503687,-80.34866777316739,-93.37446942957072,-103.7539356999271,-93.98606121816847,-49.96707237634789,10.724306535038355,55.24177382153183,76.36376953578099,86.58690087672944,89.20342246648799,80.5519411629464,64.6407130847835,50.93340235133259,42.649122881491124,33.67974060053575,20.211012991524555,6.9814020516674145,-2.9714725995412286,-12.82803078165405,-24.657770564142726,-36.01792715765715,-45.04856941878312,-53.96710275773235,-65.71420422848028,-82.15923382465989,-96.53429765705559,-85.81627116441621,-36.98811210174161,25.93090355420105,67.80961358212542,80.4034488786093,79.09433719703621,76.57290687325595,70.92752288402346,56.823440502564516,38.92085694119468,26.17748979332513,18.66256931485571,10.417808946489108,-0.4260834629428112,-13.14175448831648,-27.573691888011,-42.80381345749044,-55.50219598003385,-62.987886158190584,-69.20280967360375,-83.3118361731167,-103.05572013633213,-100.16735276118366,-51.62057065397036,19.378336064275835,68.98048339728545,85.26316441646223,87.89609186768776,89.59966285348233,83.58556779324833,67.50448477941723,51.38181450818766,39.287352984225535,28.18819950210802,16.604864746593133,2.1013073062357828,-15.800512623313576,-31.837847665804745,-42.634249219822294,-51.9088644171307,-64.08872249283793,-79.453506517482,-98.8758401503055,-118.87724395259816,-116.27432098974866,-68.30171936924596,4.639711648682689,59.3636887959008,84.48472503616333,96.11468628876483,102.1919456650535,98.39404646136673,86.11856399154824,71.66832586066049,55.43968539804436,37.812912461363965,23.121306398065325,10.955232698695859,-1.7938327542588504,-17.173577255635735,-33.72064339280692,-46.066351883122884,-53.633713509988226,-61.148372519275014,-71.69496840096099,-85.0518709455805,-100.98745402879754,-111.96312648089724,-96.25047324514877,-43.087581885337904,22.863435829662897,69.34003974422178,89.5043190637143,92.65256068143121,87.45691011365304,79.33992151949394,69.89667014907333,57.964537030640656,43.54178244667144,29.919539150374437,20.569695428995622,12.901600937651171,1.0846413922584477,-13.280380032757835,-23.954127565509708,-32.66872302006326,-44.51266258772141,-58.041737989954456,-69.46929216485724,-81.19750994294574,-97.21028869053134,-108.24221545018338,-90.00575407073602,-34.449615738381034,29.325283118703318,68.61477054739903,82.06576784012617,86.07517131599045,86.91640775059443,80.76411149062089,67.7692632936755,53.130001347772726,39.22405255785396,26.384496316860197,15.701955423990984,7.499035237431442,0.582964035299442,-8.337490258528133,-21.605983068298993,-36.46376028293543,-48.56330214300712,-56.852641482476656,-63.27828364681702,-72.51177348887565,-88.33854217720284,-100.01634196399142,-82.76906514239796,-30.83970712217346,25.46603255503653,58.46910422151671,73.19344421058808,81.60119678734706,80.40408302392326,69.6699435992717,57.38096376513927,45.880544179660646,32.44507193142508,19.050564592917556,9.452545628936303,1.616503796151453,-7.621778576940441,-17.759564584795402,-26.58820971330645,-33.0123023714214,-38.217409995890215,-46.286509724031,-60.29495526823583,-78.11148266498387,-88.63658009416197,-70.67702458885404,-20.086636841428707,33.969529709039065,64.41916608657972,73.317274984654,73.44807282250895,68.78807472313702,60.001055694755365,49.19460595185198,36.329757781211086,22.405349448190854,10.27800307671778,2.1037430611328625,-4.941685324982407,-14.593561250795846,-24.30920911949676,-32.71777850059016,-44.157168976317855,-58.373891478676214,-71.48651772155412,-86.30557753843838,-99.28185523700921,-87.29804789596473,-36.9359105397979,26.333009188008212,67.85360678157583,82.95985012080523,85.07249914515944,82.80335710098976,77.41171805234141,67.04599243791978,51.66032362991893,38.23891961275722,29.915712826180734,18.381772137637107,0.9585665837431591,79.0,97.0,57.0
40.468259743227996,30.155468676395305,16.087246938368423,3.839767240256706,-5.649829722587896,-16.08450134587385,-28.147120945526265,-38.825521729069884,-47.49438576374153,-56.95574860898225,-69.98548576749215,-87.29750111606494,-97.1649510610411,-75.25735245388627,-18.477199573406917,41.21426237046309,74.00667527760069,80.63185598760634,78.3289556301617,75.59397396750434,67.74580477042099,51.58301007971741,34.48181199716271,23.729016368664688,16.55423922806317,7.511013039685275,-3.917703516456668,-17.145809867715414,-31.987116144229507,-46.92779495793566,-58.17953986308602,-64.53910230897618,-72.12832943423065,-89.23758703611156,-106.16880724277607,-90.76961843839072,-31.321092651603067,37.30818365859754,76.52726430879493,86.42720765752539,88.55092142073397,89.07944942512789,79.62678864382724,62.425163607070246,47.59142898816409,36.076212092954606,24.95479502800631,12.847632835654846,-2.8776021856290726,-20.899887892526444,-35.448855981239234,-45.201246008325484,-55.059343237607024,-68.21797039730694,-84.56682507772275,-105.1905168095784,-121.90191336149881,-107.17426402363071,-47.74429250556967,23.68238777649878,69.12823515446901,88.50946822485908,98.56788544198011,102.25629051580697,95.40968455097577,82.00929729058802,67.26353370222158,50.29874099225257,33.15084166010184,19.503472206811328,7.4349836086813434,-5.913128044528722,-22.064159080709885,-37.89711983449952,-48.57681723444822,-55.5922017160363,-63.86250203705225,-75.2812383096062,-89.45009918148399,-105.42987294580995,-111.20743609856432,-84.29107416493858,-23.628102763653008,39.13743406078141,77.55685790948188,91.70698648003824,91.71346929676969,85.25753124353682,76.78126020922406,66.75509675147816,53.97483705911351,39.310315612795165,26.747311015688357,18.470598298269934,10.051212440884708,-3.1235953050852117,-16.86728966843239,-26.384120514199058,-35.690551146581804,-48.46415670613887,-61.603829576834976,-72.5593182181763,-85.42022567884042,-101.84167178639129,-107.01825455109382,-77.10349971220127,-15.034886936886313,43.91707451375062,74.46111596732453,83.59700574053224,86.75778408671849,86.00923469011784,77.50197839136327,63.513830655548354,49.02842566017851,35.366031417062366,23.032957313014318,13.098096530663486,5.474923624611404,-1.6143286788921434,-11.743206998881154,-25.96415821009428,-40.36006985992008,-51.311081775137026,-58.7506406406865,-65.38525582215365,-76.47960702940661,-93.1520948180716,-98.97800650873,-70.5168271460253,-13.272098229918068,37.74974281754381,63.82712714308961,76.19823341043887,82.49620405842875,77.95042798738481,65.99405543235781,54.095001087444174,42.24963095214344,28.33395435084428,15.866627886530106,7.199540591473214,-0.8629514921296182,-10.552768279002825,-20.530547856264494,-28.688827630238254,-34.512404808245705,-40.03575695741111,-49.71852443413702,-65.29440711835665,-82.75805784714365,-87.21740032358395,-58.609085718780484,-3.1617147139152206,45.62480287197192,68.57324641725414,73.88406621387703,72.61144275766713,66.56365179923709,57.053399675849924,45.69754879542858,32.30954794881027,18.57050034185723,7.520009644768078,0.19679921568282396,-7.458580581451667,-17.59245666979538,-26.725002429232166,-35.54845775607947,-48.202784396248155,-62.29093738905236,-75.39211638094177,-90.97504884831459,-99.57611208608552,-76.29059513607251,-18.12863252227364,41.4259770697209,74.40345921798266,84.3473726245951,84.7125128380418,81.6187634480861,75.02929637120037,62.93512422598506,47.195157492348386,35.54772773355815,27.316757827283826,13.669155369441778,-3.928473311624441,-16.50973753909928,-25.321441568412002,-37.35122648243998,-52.53392669311318,-65.87559448008588,-74.09273023360443,-83.17707916615407,-99.69604089655434,-109.33364250284053,-85.2334358089657,-25.60008223989646,37.304521586305476,75.73578796133977,90.50935068935074,93.88603520896004,90.40399823459198,80.08216727442621,65.49306517542279,50.341188389861564,37.488916383885886,26.32878041000065,14.26876086875346,0.34691841931980166,-13.756495051916373,-25.42975512051284,-34.63629300482229,-43.81658059537456,-54.27110333779554,-64.91140420281066,-76.57988763572841,-92.97019746987704,-104.56491860804856,-86.46829798754838,-32.45719355465357,30.14968140577522,72.2042238202087,88.63009946906342,91.19590993505024,87.77538718422903,76.02825711788483,58.301648915638864,43.2183265787011,32.064521695912056,20.044988954719486,6.06556557008434,-4.710100986714781,-10.251580320199931,-16.527215059417617,-27.94820353355052,-41.719909036874384,-54.69614208545008,-63.85777749753507,-71.61709957188339,-86.26962449615091,-101.56794884650047,-91.13454030753597,-40.991535797232274,23.49338941656249,67.94657655037516,86.7418492566666,92.27005020776348,90.75215734743301,79.0,97.0,57.0
100.54064815421717,101.36084271476898,91.87010192497604,77.85259163481246,62.63620469654125,45.124623741891,28.837237114530154,16.011449556074595,3.807911817864987,-10.305283038505607,-26.947177594977468,-41.58775421981905,-50.75672638103739,-57.68270751536099,-66.8589475044986,-79.08159494521486,-94.07768652234549,-109.13010526773535,-107.56614432654763,-69.24099468420945,-4.053405284354499,53.165883696593404,83.69686783743748,92.7569706609537,90.25068786946701,82.91995784024543,74.10489840048699,63.368675036539216,49.80021827221619,35.26560645925,23.987451650616674,16.366517045947102,6.725459055009706,-7.385881426224639,-20.019139416260817,-28.805617738041555,-39.059839499875096,-52.44276574572976,-64.92258783008452,-75.8198043225003,-90.06052832235704,-105.63328634239133,-102.66042506978646,-61.252866512284484,4.030145840274553,55.87805780963352,78.47441205117778,84.74894611816946,87.15251020001111,84.39760256141905,73.76158762271614,59.254104201964665,44.9966171487459,31.611411959789617,19.893037093523926,10.694824545954326,3.514205344571002,-4.083357103320297,-15.53294159608095,-30.32988069150227,-43.94238765815419,-53.750117537663996,-60.561137704976375,-67.87707447834154,-81.04941641342552,-97.13990809481257,-94.85542626723372,-55.61364537705525,3.630849436075573,47.703097723960816,68.09788551745507,78.81588757576627,82.39131948572606,74.84982094573898,62.39074281994019,50.83060812894632,38.38897796048735,24.356648700492244,13.048835478742044,4.984060454832862,-3.5060837581819513,-13.512374674564711,-23.13676772170151,-30.58023975655753,-35.963103233513166,-42.225243528985224,-53.67325749740695,-70.52565555795698,-86.39218741111604,-82.83583579463182,-44.07142328489414,13.076355207311927,54.90696832933244,71.25610114099588,73.98539273594473,71.36312729063971,64.04619933054407,53.97378934761749,42.009817441683666,28.25247942972267,14.968478404001429,5.1202893175385285,-1.7525013446818625,-10.23902176793965,-20.465786841740936,-29.079566117921786,-38.76409820391834,-52.370806485315576,-66.05173504880287,-79.60434447945423,-95.2106507240624,-97.0465775819945,-62.06717479441916,0.7364619357515716,54.040525517260164,78.98401074908094,84.99984474924032,84.10251872580616,80.15586138389007,72.16561317979094,58.45430502519159,43.14616911566582,33.21787056412578,24.171524718108255,8.55981301674888,-8.300521168234296,-19.081080122596667,-28.30693361691516,-41.59802512426992,-56.82308269598404,-68.72578711509802,-76.13846879436907,-87.31274303154827,-104.42708441814543,-106.69961401322001,-70.65052765603767,-6.052212417899183,51.39036075267332,81.86326070170765,92.2598320975558,93.59729915718347,88.0658506994237,76.14140489808574,61.01043499407709,46.33873662929305,34.206720242168785,23.02897733506134,10.410174822714218,-3.837505623709,-17.45322412085838,-28.250934030272465,-37.186476595121206,-46.72069788126462,-57.388481851594406,-67.98937415193608,-80.82125448569495,-97.82535918548501,-103.35475848225471,-73.82927472256023,-13.635347388783025,45.13339743101393,79.208499538138,90.21016775874129,90.81919206386905,85.36041524343925,71.12769803609991,53.406859545894264,39.7806711742477,28.868217525699137,16.052011447953756,2.3725503557084346,-6.702606884872841,-11.641124276293535,-19.338454684984956,-31.8547259101321,-45.67817290715167,-57.82756777304431,-65.85962615059589,-74.94942158660508,-91.55587160341909,-102.45148859103895,-80.31767220390951,-22.007715375715676,39.282280276319284,75.53264014578865,89.20152145622909,92.56477973192587,88.80430897215024,76.5623967240981,59.67469484770332,44.86323879915112,35.6228718257588,29.01555249218834,17.10307481332507,-0.8639473652943632,-16.354137528814967,-26.951615457826676,-36.11739817322841,-44.71742402018198,-54.854309669730675,-67.79462225406155,-81.71641101420212,-95.78962044044061,-101.63446478419378,-80.63242163991887,-27.570371763122647,34.067190404020735,76.23251628787777,91.93987293320114,91.07337528281994,84.63301425308204,75.62210537214445,61.220166143615934,43.44714224677075,28.832323034653175,18.451479576088506,8.558062015447831,-2.8019460914133583,-15.639958557340218,-29.99674091685067,-44.912171519446716,-57.755617291950095,-65.56035701209879,-70.44434831837883,-81.46498525174614,-101.06989438344291,-108.03812325495878,-75.35050804571804,-11.339052083278677,45.74438604385582,76.40190265793339,88.9259783139196,93.04475994845993,90.45542017047904,80.90952959216901,67.11138445113167,51.65016231346644,35.92368397488669,21.56103555559539,9.576605703351266,-0.4481227755074477,-10.396923785958753,-24.48920011396981,-42.13198323085389,-55.55061800276164,-62.584659232926526,-71.47534157236784,-89.49681633418324,-102.60700873043581,-79.4381317271712,79.0,97.0,57.0
-62.39161484592428,-70.90455398344966,-86.01466271686516,-99.5978783630642,-87.36184938066722,-38.889374905880494,19.036181016705843,55.500638913153296,71.68914220513724,80.88880589707378,81.25474116618622,71.35114412187495,58.92888187971163,47.480797767575496,34.3442140858155,20.645694597437313,10.535486518981202,2.707187923112601,-6.296113169918982,-16.438642982717678,-25.5475016404058,-32.28191958499685,-37.469490718441506,-44.88493345116925,-58.10733939575961,-75.77282091648115,-88.41715451589027,-75.24953138716778,-27.861859784878288,27.83138015752141,61.89867260502715,72.85363324566906,73.70303122899355,69.6934962442185,61.314866469886745,50.74282701607952,38.15319154727035,24.228404125487643,11.675980744860578,3.0101288357472686,-3.877030746401197,-13.200829395388862,-23.143178481332843,-31.520561293709854,-42.37552524466981,-56.50909717367186,-69.755467915357,-84.14085519481843,-98.3804180361546,-91.19061149431882,-45.28540939150351,18.64001606385506,64.06952635488179,81.99385424325351,85.13802940416886,83.2661135548025,78.36472853942621,68.78158184980137,53.79833172100736,39.65302240969002,30.989845127635608,20.362159168494454,3.3287794601154412,-12.054410273259487,-21.524009102109506,-31.696688386907834,-46.02278215086226,-60.81545246295598,-71.11401271619812,-78.53193751592694,-92.13274607120131,-107.95748330984257,-100.60587811970122,-53.476953740199455,12.755038387571885,63.02109116655551,86.30272598478906,93.3330781361583,92.73881086942728,85.16907938233082,71.93393135273051,56.57199965748179,42.579900349347774,31.007821714305127,19.592588785245297,6.398001763124052,-7.970356449680965,-20.889218245293545,-30.905962441873562,-39.801012893646536,-49.73806969277329,-60.47102495507805,-71.23354035246713,-85.55265810909363,-101.80950186236694,-98.99631565786602,-58.41093439823604,4.980744404014685,57.8704135733238,84.20892648946551,90.99865419354269,90.00110199099079,82.13044528893747,65.91749823607046,48.93396953856486,36.58888772218547,25.46965836241355,11.944285130544344,-0.8848308144549915,-8.29358304601331,-13.30703119590451,-22.59663235247414,-35.85147317273512,-49.510854850611324,-60.55061151493422,-67.92068773741325,-79.0626704087288,-96.49456390239078,-100.39967541861631,-66.1802187841267,-2.833188399726226,52.73200726852025,81.18247537889646,90.88329745511133,92.29833439464018,86.09900888435658,71.84955277778577,54.93502989978771,41.605629861657256,33.767953787687716,26.412168801523173,12.211837380688221,-5.92103267958942,-19.763341173519528,-29.657110487838203,-38.637322688469695,-47.33678215380891,-58.386432165794865,-71.75294569644119,-85.87461572753583,-99.06956037458998,-99.07900809058071,-68.03186173780367,-9.159328951639143,49.02507524254121,83.22866169252332,92.81312733773412,89.46436879765581,82.39786168348614,72.09035898254456,56.13629419954133,38.6934239458924,25.541353937968125,15.696025430945298,5.433155260590519,-6.354508542694528,-19.646088585751848,-34.33026755818961,-48.995490589028556,-60.58300545853441,-66.9650527020472,-72.55801811467592,-86.70235343292617,-105.84011826117884,-103.22588327257372,-58.540180693939625,7.424719591782125,57.255100962671996,81.29325195116309,90.78273990961104,93.03301343154888,88.34264973013379,77.20813019328146,62.746602446869595,47.0721092015753,31.555872490113995,17.8571001750204,6.51500013125041,-3.1671878902023654,-13.882706788145976,-29.512972177689555,-46.756979484101755,-58.030028629583136,-64.45457028993206,-75.80812416868642,-95.13102084354962,-100.77318941847251,-64.03616317196287,4.96431498691075,61.96053516254729,84.27233378488322,86.17272180561237,85.33408097183217,81.48905154439115,67.30287615991455,46.545421898395105,29.741868350674196,17.458830288138635,4.5532767897257,-8.371517244216903,-19.347263264229003,-29.65605384447091,-41.80168865318602,-56.24252967027567,-68.13314964442874,-75.61702258209723,-88.39121594682065,-109.21305718602639,-113.79633796610231,-74.51905089364459,-3.0316053511543832,59.145979386993844,88.67325511675054,95.10386051149013,94.75343215530712,89.92022362516443,78.05551798414089,61.984610398366925,45.30443969050304,29.842289281577767,17.294217056332517,6.511868140681697,-5.664577998559139,-19.514767061862436,-33.57272605960695,-46.59259576507852,-58.428583884499155,-69.35633910771789,-80.79944634438074,-95.69279084464623,-106.06364231365973,-87.44945811841745,-30.92120104905227,34.935454155793444,77.36441972323209,92.62127513043995,94.77749126924526,91.80576452895232,83.97213976494066,71.289776432458,55.22718744173006,39.121143244186825,24.225266274707383,10.41342619595504,-1.4963127341206235,-12.560949056496035,-24.363362247818017,-36.47066681153046,-48.111315474441675,-59.54783219917889,79.0,97.0,57.0
-1.728523988145741,-15.2160706701879,-24.06500841258999,-35.4857333420001,-50.49468203681955,-64.39089328376875,-73.18346824589129,-81.53679084204816,-97.31944954822256,-109.49926799808911,-90.89326912522367,-34.59947916879628,30.0250434822599,72.24098512302591,89.4231411341079,93.83566057874579,91.28118546708029,81.78373623720879,67.54952362466324,52.263672646359,39.05049391591873,27.816789855133965,15.989559082189805,2.2721125469281063,-11.97380680598011,-24.05561779233045,-33.46710214729341,-42.520697775356325,-52.83225283955093,-63.512656806625685,-74.79352621224729,-90.61513670428018,-104.20132010793915,-91.21317123891049,-40.95091573591422,22.57159818225931,68.22523679097822,87.54707159416996,91.2341904745104,88.63115186444628,78.1124245419479,60.66718416829451,44.92239764463725,33.49660619098368,21.815755828821167,7.8776924878462555,-3.625565524424384,-9.649056216982952,-15.39793370873118,-26.201621627645586,-39.8726359511928,-53.12825478994402,-62.88442441924165,-70.32224485968096,-83.88057323998454,-100.36359378034271,-94.90172258912544,-49.38331631478697,15.532670715578329,63.70241857095596,85.27603340352475,91.9564945051928,91.4002063618013,82.66908969868415,66.91249569841882,50.52299259488328,38.855187623217454,31.983506135507238,23.149795279978868,6.944618010607556,-10.535337667818597,-22.83041604000882,-32.31779722922584,-41.100946874122556,-50.18319097683251,-62.12211697993128,-75.75705166721094,-90.03861215551096,-101.31405381679018,-93.77244128170929,-52.903086220534135,9.139331321585322,61.808565229124575,88.08948456771371,92.63101158540691,87.6121166322798,79.91651601683647,68.02708879169312,50.913642100619825,34.358214959323995,22.54297115563832,12.880138675918532,2.1761032377379297,-10.030594039734456,-23.778186859226896,-38.67435547829725,-52.82121082022364,-62.928623282261086,-68.25312765233575,-75.47093801705876,-92.54888765342302,-108.76755943068696,-94.56759396903023,-39.82356226634465,24.59705243796225,66.467904358529,85.02371555688596,92.08539412059548,92.43681820857357,85.66590107349333,73.24346615121571,58.28448729358921,42.50191110773079,27.350160231499295,14.355941407568674,3.6034515412080217,-5.951174685899701,-17.83874703052362,-34.71282915064774,-50.81028504337643,-60.03833489199914,-66.76873217560146,-81.0002414601566,-99.7088816726052,-95.09726639585678,-45.65836500782483,24.50038805375946,71.826528984693,85.87511283172857,85.87896625810123,84.91661974366919,78.58104050296717,61.46809723575655,41.00000088451861,25.99373714315107,13.895013325662074,0.6787432453703696,-11.739304228680906,-22.284419897220516,-32.87667820616641,-45.85734343162974,-60.21947858401974,-70.49946897573125,-78.23367804523177,-94.13655116637547,-113.79862273750527,-107.39314415371832,-55.49099237993612,17.612449410064134,71.0960081333327,92.01398613458862,95.31790338335126,93.9961177732506,87.1881073279434,73.63618367622246,57.1394351687868,40.624260142239336,25.88649482742102,14.15078552077362,3.216431966140726,-9.548278988598677,-23.629400556175497,-37.465164280781075,-50.1231915270084,-61.661454956204906,-72.47022379061023,-84.7216876424098,-100.06063119631663,-104.74460951738432,-74.35353021732436,-11.041023484750827,50.37985744570795,84.02147535651355,94.00864992020054,94.37418949656073,90.06407586307328,80.77897292606318,66.86710723734184,50.44670012599925,34.720600644981886,20.083766109122905,6.775122755133026,-4.6866666935516355,-15.871726479715294,-27.89054156544236,-39.87223713431969,-51.4420529681417,-62.76398093442197,-74.10324136876915,-89.27579122196931,-106.41401679680972,-103.01557559608835,-59.024847282455525,6.903632333799549,58.9999571804317,84.08465904391144,88.32645527604873,81.96605954748901,73.14692586962627,63.13342387572249,48.27622732266949,30.499820781950767,16.586472838264893,7.156147672394254,-4.030263715765584,-18.208821205781156,-30.43492562960725,-40.16421016007062,-50.35541432324764,-63.29477852853889,-81.60771069846864,-99.53651042188329,-95.95617196322516,-55.35797114473425,7.158122164748106,58.955206681755996,83.00251001194718,86.81396615732854,82.08108167154286,71.77625766927498,56.17956365039046,39.59432762637995,26.461812366545228,15.015546548210745,2.736615717028157,-9.860625027113214,-22.478307285073814,-35.73665696701952,-48.59661615523571,-61.33292438386973,-78.16507080483066,-96.02064577383516,-93.97490458540697,-53.022882150185985,10.876124636591321,60.833015521611884,82.92796792375907,87.09126227140463,82.24877444022223,71.08026299323353,55.6089380826225,38.07053665109599,20.52587280565174,6.1715487623092615,-4.365175599061648,-14.923415468535428,-28.27866813164443,-43.83980418261999,-57.7645414033743,-68.59298594108868,79.0,97.0,57.0
89.79614547282141,78.60844335235467,61.935407515207174,46.53768861614594,36.55819403752824,30.035350534136317,19.168572353109592,1.572439022270611,-14.63437619233944,-25.68075112316545,-34.93231362496491,-43.56077243860017,-53.31328644568386,-65.98658739816857,-79.81976581741401,-94.05673848164054,-101.99657312606652,-85.47556767729051,-35.86042504735367,26.53649731533331,72.23113284110144,91.09245796052394,91.69050291148156,85.605031275583,77.07942230967811,63.46486298417219,45.75329992528355,30.47609044132725,19.722931839414095,9.952532377015075,-1.2039135961400573,-13.838461802863137,-28.015688087928435,-42.96900825012632,-56.29518426004253,-64.81960162097612,-69.67007318077047,-79.34565157270194,-98.48904486914991,-109.01996562392901,-82.18560411566361,-20.30295764529797,39.62142949983508,73.6652151321709,87.86219890095009,92.86395036772817,91.22470208507464,82.50447891664716,69.08215359790617,53.754022211728476,37.97971348917748,23.339581518774438,11.043857647654702,0.8119083593331963,-8.924852948444652,-22.287286120903598,-39.85132826487972,-54.20683419499264,-61.79030744404309,-69.79051811515524,-86.77336452470836,-102.3181432698501,-85.30991189835355,-25.395454879755878,41.84870754516018,78.69489144800721,86.37638154407337,85.64241408200037,84.05506607255558,74.66091975339025,55.34284869706638,36.01332318654798,22.491968323241306,10.18016392436312,-3.112917492162474,-14.92865396852885,-25.223322662462234,-36.31560476612634,-50.075136080595016,-63.803980627518925,-72.55977649003259,-81.64199176474285,-100.41048928016333,-116.14435289119244,-96.8402720511729,-34.571901687217675,36.388458544567776,80.12092883695847,93.91834806603225,95.26423689444911,92.7682161408035,83.84780342244784,68.98765598086501,52.29945831093853,36.08988255866782,22.210671252906877,11.079803357065906,-0.26152135128143655,-13.545745571030935,-27.718318968966017,-41.25194812973499,-53.5606552641881,-64.82230454703239,-75.68688612012946,-89.01878573415479,-103.65122684767229,-100.2932183575242,-58.242806637114654,8.595122084097735,63.2689593453313,88.6454912404762,94.67928975824289,93.6108551596525,87.89732006961228,77.19046167254028,62.21863185065896,45.75550983965857,30.406839827848128,16.04667619498993,3.31242223779354,-7.858849272893608,-19.270397522755744,-31.407619169778823,-43.2337174294192,-54.760348752247786,-65.94550048996336,-77.88405484966363,-94.61669757114494,-108.90499557866109,-94.47319051268049,-40.50850410686795,24.524411845005254,68.9366152320328,87.0039117390444,87.13990504010634,79.44684510326262,70.5338892076331,59.427514008827075,43.14030862437301,25.85797970057559,13.6351213974898,4.347495212247346,-8.011032937185142,-22.11259734782192,-33.36321156172484,-42.963403934392865,-53.68340632767194,-67.99757490234059,-87.5270605605216,-101.8063542589809,-88.00690958253223,-38.13474349372992,24.5037622955101,68.77201003861482,85.53225019738532,86.04277185715702,79.69284865347444,67.72345099131486,51.20040304912256,35.41660387418818,23.149430492226287,11.573553273681338,-0.9211164299099304,-13.468811248362249,-26.24856579803909,-39.56816165166407,-52.137973788302745,-65.61886314359103,-83.82141895255154,-98.69381736605614,-86.24451751181218,-35.25788901506524,28.035069161219315,69.8478975023263,85.41789417772723,86.43340936111134,79.60348759776856,66.93989658423264,50.67590356407959,32.87809370747023,15.917031782725333,2.8612760885831046,-7.231347766478715,-18.45237084709582,-32.672689145401606,-48.223045644397146,-61.066511800012066,-71.91464650009905,-86.84174691868446,-98.33929862373965,-80.41683684210028,-24.78991658007373,37.8586813414823,74.1691861264225,82.73477100952674,80.7553569238677,76.39426027154039,67.18027095794851,52.52286905674295,37.57503176584221,24.444613927736786,10.487757493951126,-4.587133587197231,-19.05337823238127,-30.545648306941064,-38.84307934045232,-49.62607411445295,-66.24538116521764,-83.21301293713154,-97.0453001319473,-100.74760850861738,-73.3574434038479,-13.06098583831411,47.66230005831074,79.97439651016266,85.96881707454823,83.60755443208706,79.58983999651889,68.5636418346861,51.35188547904355,35.622196976581876,24.046626900758973,13.584533295742713,-0.1900926992657057,-15.921116429218058,-27.251362592422055,-34.88243040945089,-45.39373306633615,-59.68417597331595,-73.40729955181212,-86.8048030623308,-101.19836914882163,-98.28072162520364,-54.35959389866209,16.5065825174945,71.91003697428096,93.02302453684052,95.48960669035718,93.88935408137964,85.03280769054982,66.57358240092094,47.206761041261785,33.03148144754354,20.111097798549523,4.8546330975130765,-7.789331763909789,-15.250089172942562,-23.973147298553034,-38.46692187792867,-54.64929726194786,79.0,97.0,57.0
-71.56212395517619,-4.514908401822915,56.3397496040502,82.99683456758275,86.29523469082467,85.44646984958449,82.4990433700608,69.80519857179154,49.25692250464248,31.602564155889656,19.058958198133155,6.343416630357112,-6.754325991777071,-17.976001222786714,-28.229414309350737,-40.01019431586637,-54.32173350283833,-66.88754795530825,-74.5937293055359,-86.03058987120137,-106.60326941015997,-115.38561928790432,-82.36116131937105,-12.928924750380764,52.62721240263146,86.50277906693171,94.87311421335008,94.97862453739056,90.96410456852668,79.98269169004251,64.21002242650722,47.49656873834032,31.757603903088896,18.795212045510237,7.977792524114305,-3.921514099564618,-17.62087902465202,-31.744879991499307,-44.93142591297909,-56.911522463848634,-67.93061144512474,-79.11597490694012,-93.57644363763063,-105.7791775111919,-92.33166393768076,-39.88131846669632,27.044452315088137,73.50699934368349,91.6584930854729,94.84065151650361,92.4679374809214,85.3069281724769,73.23027843057453,57.44294056324026,41.186242459363754,26.16093745490394,12.15204503193919,-0.003946062662088629,-11.06254314409553,-22.744283842013587,-34.88505043262466,-46.57409128557251,-58.04778334068759,-69.15030070045245,-82.13627014269103,-99.92967443561326,-108.89270868721965,-82.3021412213673,-21.06386444414618,40.20708421955411,76.59651757312527,88.421042996662,85.31952151699896,76.88512123760573,67.75686293815508,55.224818395185224,37.90473916343684,21.706855897909005,10.96337245476968,1.2158830211954725,-12.165932352435384,-25.719159111513545,-36.152603236844755,-45.86101802303623,-57.300567929281264,-73.2209493958528,-93.12227902608268,-101.6280502154877,-76.79859267566559,-19.792332290600083,40.1415160721509,76.13920059569018,86.74067551418338,84.76280355614035,76.83367062361768,63.24825730037745,46.30466341774392,31.581780027160846,19.877844378087374,8.033191161432425,-4.569497230551768,-17.093951646135594,-30.083640365412336,-43.312777384161286,-55.7257023459124,-70.38075992872832,-89.33990770388186,-99.00791341136605,-74.990635768075,-16.40984603746499,43.151976236667686,76.56616378142982,86.7513653692671,85.15103176420013,76.46223390081468,62.503137435807204,45.61425346312828,27.7423104074204,11.66728478476504,-0.17609822326842428,-10.213045259276422,-22.25286774518384,-37.20183679629634,-52.345864185613316,-64.14197621579265,-75.67421080350901,-91.50170280951889,-97.29046234670791,-67.46946422483215,-5.523039578883144,51.78765610732881,78.7872759374282,82.5832613455617,79.75677097318213,74.38508419699508,63.34089878327951,47.992675745750006,33.69629236586362,20.58102224964927,6.183857715174449,-8.922096850028442,-22.78467123672651,-33.1190594213394,-41.38492918572162,-53.95496764113645,-71.40235716857237,-87.56124954819697,-99.94299897038798,-96.86460373955863,-58.31913117681286,6.182304915135148,60.42649501682589,83.63790649541991,85.48748741799433,82.78047236451792,77.32812397858861,63.892418922529764,46.3913258128229,31.908779936016295,21.129990821527677,10.05598358697926,-4.816430320548369,-19.832835052964633,-29.541928561338743,-37.41563947312174,-49.303824442468034,-63.85978030020702,-77.10300019149193,-91.16982432514337,-103.49853890159926,-90.12357916532892,-34.87859845695223,35.75835854827763,81.25115524970845,94.66397395710206,95.32912621506917,92.41023651266337,80.43645875588815,60.61476827906907,42.59365013259408,29.47438277577967,15.855946834645732,0.6310743255544933,-10.306832717235793,-17.288885184787333,-27.603268315883305,-43.29506470160028,-58.64511787617714,-69.17204778839566,-79.66253609360808,-96.59169586947684,-107.76719976201952,-83.4566524243482,-19.925540810021086,44.799678900311505,80.35806076390199,90.76652127449157,90.70657097480591,85.81161664998835,75.22792168408826,58.858919976122095,41.65228259858485,28.97190066079679,18.781165973464642,5.733683754275829,-9.714976788442991,-23.660145983348674,-36.52368104773257,-51.09458261632285,-65.83575167461301,-77.17879189700513,-88.61183419369695,-106.12807550031874,-117.30178638395857,-92.651482785965,-27.562957283872944,42.57793009057346,85.47688371207383,100.42549949960015,101.82925219657362,97.53312334337012,85.59056205815475,67.28028457629654,49.09614718768232,34.38382634179875,22.37198172585218,10.77928908945128,-0.9712755651194425,-12.029646016073183,-23.154508249009712,-35.892320942309496,-50.72643035335274,-64.91877845006917,-75.46112047388434,-85.16526075748821,-98.90448748169096,-106.09433073253035,-81.86704699973843,-23.849592203701476,37.394231130118435,75.2048308759641,89.6763098231896,92.55055172261729,89.89602164060518,81.59773165472112,68.51610496468577,53.337306624595556,39.27483295762945,27.20743097795678,15.319440465448482,79.0,97.0,57.0
-61.28730877400755,-72.4841158076083,-86.91342389979624,-104.64237467021447,-105.69501801944574,-66.96052053833382,-1.7218384086115806,53.61938430646805,82.16239290616369,88.59447708305277,83.08368611470878,74.32839591780906,64.68389713611666,50.557441558297185,32.7749438049013,18.086558336439253,8.37597094455007,-2.2919050706136406,-16.33061450301233,-29.011755404900658,-38.89476204227257,-48.89676085814921,-61.29834804308389,-78.89251599641264,-97.83581007766709,-98.49299668828854,-62.684886455358566,-1.2300789996989927,53.580941702791606,81.28581340051822,86.96618561862746,83.02948910149361,73.48554183816397,58.455746780360315,41.63923471987061,28.029757898448075,16.568524603756583,4.418283109928699,-8.195467417638506,-20.764431750744144,-33.95370768635147,-46.950453038841275,-59.49425961681047,-75.61954335574276,-94.18875621787336,-96.33926296134383,-60.56478874434213,2.453640660065508,55.84005315482053,81.30835401882885,87.16382831988736,83.29141460426852,72.87136985873147,57.82940832848532,40.46301570979367,22.751492789228728,7.8152196672288285,-3.056294222637674,-13.383633489409517,-26.320680358350742,-41.76118932635625,-56.13555610227304,-67.16130164625037,-79.94409829093598,-95.43783138751506,-93.04330450035674,-51.56865304276476,13.25478259510821,62.927676174978934,81.41425873648286,81.99041635242217,78.59416739069944,71.86217251996382,59.1034550950734,43.602218159276454,29.93343210417642,16.580726125546576,1.8167049402203483,-13.16039516138918,-26.197228585655175,-35.47098926853547,-44.333419284955724,-58.756384311769395,-76.39031118036247,-91.66327190670165,-101.66302284272801,-89.77568397285883,-40.90171781882663,24.437420289504566,70.36548977523333,85.47551024650889,84.75621691692264,81.77827113941996,74.31081926718936,58.861662530491685,41.73822808720399,28.533110553021828,18.191876089983843,6.150532898705269,-9.476136809005894,-23.220355382335786,-31.663158185246907,-40.34582467865755,-53.459981043732896,-67.86555608626598,-80.87931382976195,-95.58624847618015,-103.61315147128087,-78.12400590533953,-14.000386151033414,52.628919146982234,87.7181693855498,95.34528306157183,94.99192073888962,90.10505925745368,75.1137047607668,54.86324723672709,38.46226519810901,25.836464799959806,11.399832608794016,-3.1768601774179728,-12.43531816632017,-19.65208536265637,-31.742788713012107,-48.087077167945225,-62.163165264924096,-71.78977133809778,-83.91311270718023,-101.6466084960999,-105.4926060128652,-67.95824294963127,0.6353741533276839,58.44409088734842,85.22304309051958,91.3721519043047,89.77247769091811,83.41380682012905,70.97315747343941,53.65796584093674,37.444929138156034,26.048159555934262,15.42985480815377,1.3284754165149053,-13.996786483138251,-27.337571765137522,-40.51427875710491,-55.53555491558787,-69.49686715453123,-80.09969604383707,-93.07120130626421,-111.25381117584107,-114.93681873202625,-76.96596345931033,-5.866411049370575,58.36587072593438,92.08541286678839,101.62720416459325,101.16707747723594,94.97785520205511,80.68382799967185,61.76279584192215,44.46987049940953,30.72945620621221,19.066742645452546,7.350605635469,-4.238352523891474,-15.169618278019442,-26.60452988141635,-40.01995027387338,-55.07680041190006,-68.36268693150961,-78.05189335391312,-88.73928609168078,-102.71924198902633,-103.19502844659922,-67.62210238054843,-4.866117342704804,51.20067683372504,81.27141038730221,91.25595318093657,92.30604627973437,88.09713448143276,78.21035280619937,64.19825886788658,49.049634288384276,35.63998726933359,23.8306045851227,11.820195467461566,0.35763502002032166,-10.64253801047936,-23.543577514526223,-35.19867821243935,-41.020595873158705,-46.18875240618275,-56.8818971195538,-70.09494229642695,-83.04662312491436,-93.63466576094004,-87.43225296600939,-51.49363442282594,0.7146163573221505,44.02038543013029,68.2255340037349,76.61624810497267,74.68751573773038,66.17982373619853,54.26602355896163,43.315929251306514,36.53026078302981,31.53736525205214,23.113541823723313,10.275045288070231,-2.671263277458938,-11.963517414894582,-19.676180121425183,-29.556824350958554,-40.43830549265402,-48.36152528046786,-53.510084645210284,-63.28834536813553,-79.01449370595567,-90.7584256552765,-82.32424519036388,-44.42561706183426,8.117541761779817,50.19765572780335,71.94957204702104,75.91719764836034,69.12328450595194,60.506400011974904,53.213122298865684,44.29050356208135,33.01286487857131,22.38931144226925,16.013231824519565,14.015401370679735,11.634974411188074,4.191672457788862,-5.24464213031595,-12.966309943623804,-20.757758203829205,-27.764035621067567,-32.71572071942258,-42.119079340960845,-59.54623556974629,-74.15618148789169,-70.04230862585044,-42.97655180318845,-5.0343985147613495,26.797774024120997,79.0,97.0,57.0
-70.33806984949935,-84.62396954269377,-97.90953746451727,-85.23572798980204,-33.53923841342135,30.578333494963108,71.23878153937099,82.56424463299038,81.17554912519117,77.17049336318465,68.78392367208131,54.6227725385131,39.425569743798434,26.18928857069291,12.43930384577515,-2.5701889654888794,-17.24256032074846,-29.254869237252986,-37.75783816423364,-47.82051985025469,-63.85370393729578,-81.12265504345571,-95.45459612553873,-101.57864018688397,-79.29778078126392,-21.99768936643206,40.87390626972991,77.53328525706661,86.01582575403667,83.97098694347324,80.40463971195307,70.53470618220544,53.70813613877257,37.46153161628297,25.42029625063356,15.09789056731613,1.8801243751865142,-13.963899357088662,-26.084255696703426,-33.82178271835021,-43.70665883003246,-57.72244343072937,-71.68977582646504,-84.87145133552816,-99.63017623865584,-100.76511565404343,-62.562814841056415,7.064259389267302,66.55311605993194,91.79018265155854,95.50783579433906,94.34729519468789,86.85457063207144,69.32177097713476,49.50912398432368,34.693731778694925,21.98148146889485,6.894600396370265,-6.460180054847704,-14.36570434624156,-22.485351334503463,-36.28219521939648,-52.65899766528772,-65.23222386348745,-74.63091044147697,-88.8064595010521,-105.64123993126826,-99.46080026255879,-49.606468551907064,20.096864428014648,69.26629924328556,88.37434806082504,91.41068702765338,88.4662339123953,80.49045539411688,66.26947289754182,48.56389832476907,33.706465413289905,23.1881083637004,11.731935516416636,-3.1854826039926554,-18.06694600382158,-31.001134333091173,-44.70122118754203,-59.889366730010536,-72.80530525909622,-83.2227540379904,-98.145279409546,-115.25745874891683,-108.81104652400745,-58.26095546936174,15.104136052875946,71.38159307841651,96.63420055882669,102.07782984385986,100.08141450937262,91.68622747348492,75.37218020101497,56.418970347535115,40.16017584174111,27.25612234735329,15.734070199765279,3.9321926901238116,-7.435749773031467,-18.350857150983053,-30.229341797742507,-44.31196375988765,-59.27134208129109,-71.45125882471753,-80.72662043324443,-92.7410607046606,-105.48058193289616,-97.02920726530832,-50.91398726445525,13.43057569034578,62.642388072009346,85.642509558029,92.15203319109517,91.65221273178594,85.79987581954074,74.47379315769876,59.781374089677996,44.931559450936305,32.154848694053285,20.40942132071524,8.373484272124337,-2.74662609438564,-14.158613015846196,-27.347874642796604,-37.455671478033345,-42.16210588703642,-48.695224410636335,-60.681427017634604,-73.83753019921316,-86.71153366195314,-94.4609911832006,-80.07070504152624,-36.87420654156881,14.968472675095112,52.96981834090677,72.0077773318097,76.92080299366654,72.77465457694753,62.92098788189393,50.79286023874375,40.90983706164312,35.147115436004675,29.626673446681092,19.730570042117527,6.306781665198625,-5.766088612234777,-14.128896155183346,-22.262378163600783,-32.758873656043896,-43.188704127852134,-49.870050034059275,-55.56299726782142,-67.48374558066399,-83.46626117209762,-91.12647758337252,-74.25361254434328,-29.535606065600355,22.158951611229,58.57370155361761,74.68986511985482,74.64819191257445,66.50567130584722,58.3552155330103,50.92273614742013,41.19422743222369,29.688845046881674,20.015037918860013,15.107089978848972,13.668288207526771,10.025915861358971,1.3893001873524202,-7.62336088857278,-15.139070574127276,-23.017561571720773,-29.262330521119157,-34.588887516696246,-46.5419841124164,-64.8213706380115,-75.41148969246579,-64.30405854571184,-32.328123337128844,5.387137021929679,33.42331644522734,48.13802519806792,55.78871476138364,59.62491545171025,57.39783288931243,49.88415210263338,41.121947967183715,34.44266616160185,30.08204525832406,25.494999733975284,20.01426466866458,13.682057958977733,4.305977231651341,-11.105965978941422,-33.56742468016902,-58.73206819942026,-75.58711679493238,-76.5971169386927,-69.35269572842654,-66.83987507574707,-64.54152678043985,-50.295477709322384,-23.867729233392282,4.870417573127462,26.896766190574727,40.96937889909243,48.744611837302536,49.966399521810324,45.867512106138726,39.47149919879128,31.351607838926213,23.35140951943665,19.187042866587326,17.340130138554514,13.006099254395899,6.129304102688533,-0.2639495430980493,-7.07846816296502,-16.527103603209476,-27.3905820499193,-36.91158676924429,-44.977311187548636,-54.23504453875726,-59.97796539437627,-50.11954395580083,-21.509753843405246,12.683399858352704,37.92156410908484,52.54905667163296,61.21459718935023,63.97958349042091,59.16981394692722,49.81301355473836,41.98201296180747,35.94326387714302,27.97089290321106,16.350719679409103,2.454537910120816,-10.237914162470041,-20.245122589609945,-28.30117937806019,-34.961899207130266,-41.06056215239912,79.0,97.0,57.0
-56.86067164535473,-67.96998261375116,-77.93348898565831,-94.11768984644239,-107.70737218919102,-89.41277062612649,-29.473550848787813,37.578140651138526,77.41497338601997,90.23804084567448,91.01570955150648,86.75235976327679,77.01534417461787,61.241824008773726,43.744571995005046,30.38935191790563,20.223144267566493,7.693809082739508,-7.680431064576731,-21.932746433212937,-34.74705550168632,-49.05291010222986,-64.02888801002065,-75.8352327060989,-86.77705522554383,-103.6022721951493,-117.27701263230139,-98.66405206396048,-37.508964019176524,34.42257056782139,81.63230576891871,99.53228948889038,102.00389521974104,98.47813053763369,87.66717117638079,69.84778621670553,51.33685958014202,36.14529874832057,23.899181621379547,12.352904847239548,0.5604330150109701,-10.585041270273683,-21.612689761243697,-34.056608363870225,-48.698028500913416,-63.21059440129541,-74.24269818221441,-83.6729342971966,-96.97530036378869,-106.45170467648501,-87.42220004890514,-32.584406065122515,30.276821221725896,71.746117054436,88.65598379269304,92.52636281431919,90.55885265738145,83.02562707119576,70.44966138797989,55.35613564289625,41.013078725162906,28.76020594205943,16.93394466121426,5.029806732048906,-5.865723979391493,-17.88513668195252,-30.878543268162886,-39.17183143457429,-43.49248676628298,-51.7291624141161,-64.53534750745956,-77.57059723638865,-90.06828438608723,-93.36932621322902,-70.07893197076126,-21.531221129327463,27.92584388375149,60.27555524323897,74.61722299208927,76.48275451013323,70.38523614484194,59.45886546137017,47.52348096555693,38.89538909945084,33.788856751634114,27.307248596971768,16.023761811559556,2.468336733431173,-8.500104223285962,-16.286601205474764,-25.084231095223146,-35.96753667113601,-45.57918044429591,-51.24669210441085,-58.21883237470719,-72.0826380858837,-87.26063083031516,-89.36642218325332,-63.65746403635278,-14.063454189284498,34.780175363784785,65.21013746094646,76.05569377044904,72.69547259470365,63.94869368874324,56.291481541043936,48.408003234550165,37.928320528992536,26.521930534389373,18.068168917758655,14.526854108881372,13.118794525705992,7.931040355389382,-1.4124510114366011,-9.841726700570893,-17.386830379919054,-25.12331746369854,-30.612326486402843,-37.07947925741675,-51.60009504581239,-69.4550661512424,-74.74506231401885,-56.71988123928399,-21.20075762934579,14.912448117598574,38.85914631126082,50.76816555816523,57.35996948495598,59.679117958443996,55.604750220638564,47.30463547377542,38.88324217944352,33.04681328211696,28.868509270770623,23.972964718410807,18.32341018948912,11.430987847118894,0.5745313365155279,-16.921148221309963,-40.95948360495099,-64.98809591017937,-77.49928509513649,-74.64267664249668,-67.9213637840978,-66.7979515387136,-61.938082480250834,-43.586725652689495,-15.281578967055541,12.121739698495327,31.686191406208444,43.84374354938164,49.78970065369699,49.17829110823628,44.181929454649556,37.301625641890745,28.83926684997664,21.679619557009225,18.64720731654453,16.474927249482796,11.129580913904958,4.1748760334819375,-2.0515801875247375,-9.521586782887418,-19.64833840340834,-30.37226242307582,-39.26819242530594,-47.50470145403459,-56.76331176651438,-59.19162139331417,-43.45044349640259,-11.395246235796508,21.232915998161,43.020021891517,55.54486522018581,62.734176925919066,63.355294463902474,56.64639525083561,47.22242888131106,40.218131443778,33.973376672842605,24.98598331609095,12.429391292211344,-1.472457977447301,-13.385760836814564,-22.736533326444395,-30.356843457534996,-36.69430569333251,-43.115844264642845,-53.006426677098595,-66.90370317019851,-80.5620081247719,-84.88520102832611,-68.10224221836592,-28.01670868987248,19.0821079777525,52.70032022864064,68.15276888731127,71.4755688072974,67.02275407901779,57.89945274276869,47.37463975554139,36.34537541803891,24.278195638825665,12.463074569435898,3.6326339134042707,-1.2445607672883652,-5.36486373960704,-12.410477620624729,-21.4321102693019,-29.731504708469938,-36.727989234239516,-43.933717109728214,-54.444996651604995,-70.08470927385297,-85.01316302774869,-82.93902070330905,-50.11987823089175,0.9639204886368872,43.09116000654891,65.18500334024212,72.32341542776739,70.9152514963981,63.429096423307264,51.26818966672653,38.65730523026443,30.21833001888107,25.129876062187087,17.90509256773261,7.72116658561652,-1.3219461839032187,-7.8910740093647656,-13.308169243336105,-19.185740358792586,-26.34490644308125,-35.270490878436185,-44.5704184912314,-52.20828375902034,-60.243912353182765,-68.10241177181544,-63.10814937838908,-32.75881581964173,14.600349038604937,55.26299400481488,75.5830663382228,81.27393999970862,82.80553743984642,81.55178211226684,70.66289624084699,48.39789665007527,22.742310870441614,79.0,97.0,57.0
13.430609365212005,1.8077763605552433,-9.094317157737592,-21.750963893364748,-33.96176211081102,-40.48878127895901,-45.22004579241814,-55.18667299956723,-68.35447121869804,-81.32030215316007,-92.75260488789326,-89.91040265392155,-57.78863231243678,-6.183271360635584,39.32583213576797,66.04475866189009,76.19777206181182,75.39016897973428,67.587343522613,55.903376925643755,44.55915144425895,37.217649689892106,32.30379462474222,24.538927438788345,12.111102083084436,-1.1231531439585192,-10.923717504351773,-18.562058614136532,-28.109902641349738,-39.07313072192343,-47.570152042718746,-52.725650852716434,-61.54029211342556,-76.84443452475331,-89.9845779227206,-85.1511160894926,-50.892762944485234,1.2723309631433561,45.73805742940873,70.18657963791975,76.2054779090216,70.30623130369104,61.550401065643285,54.20907526954371,45.64558523733035,34.56816564158819,23.61606606370209,16.562787678959154,14.156708565960749,12.208340380006888,5.43671110252363,-4.080304664563201,-11.98163597865383,-19.692407870721006,-26.99229819538033,-31.998887077442134,-40.340323412148386,-57.02240258346968,-73.0013229765031,-72.00879825793841,-47.59547108102368,-10.057565049532784,23.326646079902794,43.23716152501176,53.01180529269372,58.59838982542809,59.15823293078885,53.45043211877989,44.72192897749369,36.888899354122486,31.801660172943794,27.569897929117964,22.394707256150905,16.54705093957814,8.8472490497157,-3.7263043581250535,-23.32648761750978,-48.3969323842901,-70.23063639688834,-78.00264851279832,-72.37149687052744,-67.12930963581162,-66.43042620538012,-58.10609028943831,-35.99523959500296,-6.8041649803164255,18.65989122767732,35.85871169455801,46.21788845369411,50.26177738374209,48.02082706663121,42.365563491812416,34.97168801461119,26.4305918959634,20.40698799214672,18.184682597922837,15.295893391104324,9.111948847697542,2.3228768017227943,-3.9508477978512144,-12.215322243929377,-22.82144449624459,-33.17449034356515,-41.551759610662195,-50.20013558414235,-58.75472012533561,-56.78812649385673,-35.308097157265735,-1.2722445273546472,28.77201843975441,47.334772914808966,58.14598776070123,63.69784967225625,62.076474228834414,53.88579334386088,44.89808756408195,38.52267943858972,31.7537098838529,21.684205746500762,8.382383169943722,-5.206322894469861,-16.312698425369025,-25.088546032928686,-32.30122769223021,-38.41115783761294,-45.48499887462637,-56.72758356805325,-71.16229465725897,-83.3141167040922,-82.61594658861104,-58.52887051037684,-14.067999445899847,30.749679163506773,58.8179919175942,70.0947346900434,70.86707836467895,64.70178018737629,54.90700023830698,44.26611886973334,32.96171727008791,20.718898246863603,9.500190558283839,1.8746618486732438,-2.287178948063618,-7.0538017885166315,-14.946944320586491,-23.98374290840532,-31.84883216750398,-38.68039746529647,-46.4723963661547,-58.501091533974616,-75.00611503520696,-87.05331104560041,-76.66657063333017,-35.988783185405445,14.99674720361107,51.46610376031137,68.4365273001632,72.61361567466916,69.34224798818424,60.27241583998365,47.41966117551266,35.685235357926125,28.62509721371953,23.461722006795735,15.096760923908795,4.850276638254841,-3.439684842870962,-9.494063258580772,-14.908196982419241,-21.095730874455047,-28.74597955281318,-38.049977530292345,-46.9413006219536,-54.33721749971513,-62.863840934252565,-68.75327268656284,-57.065227892407144,-19.858411584293606,28.032484626547095,63.264609660418664,78.19285283591093,81.8501233977022,82.97040768117319,79.6853650254638,65.17726667996126,40.87022093816736,16.063127041086766,-1.9915381135649999,-11.545757220349621,-14.999897084184548,-19.024870259600704,-28.565003385526584,-38.89846652748894,-44.07804503677365,-45.446623499099125,-49.209555706213614,-57.920624454260086,-68.66478980054588,-77.77290141601637,-79.19867583030465,-63.04427595670812,-27.201194741327537,13.977193812118081,45.153892253652536,63.25757761347422,71.26978898161204,70.70869122108871,62.9999099622764,52.743626159856504,43.48638763029284,36.48564272996596,30.348630786751315,23.108103724242202,14.638713595976842,5.35106706213152,-5.039944876387818,-17.02628928540928,-30.21458649921093,-40.33093706483277,-43.85360275134784,-48.940788116241194,-63.07183751940789,-76.75217301459031,-71.83125624322855,-41.759656965242044,0.6319194265400349,37.54522329738916,61.36424420544941,72.22364864518727,71.08209077718345,61.49535771097976,50.194348483645825,39.86280860014152,30.032799595140798,20.783039098566046,12.2468486446488,3.7530768808823574,-5.455308610348272,-13.993578301002648,-21.352243851335285,-28.929335928177338,-36.83275789080522,-43.72805167804766,-51.91700544843,-64.46040457780892,-76.94576934685874,-78.65719939205809,-57.935205105510775,-16.99332497674896,79.0,97.0,57.0
30.521414603472902,46.75016172552664,54.97127132831214,59.41492882869012,58.07331089818017,51.04666703791764,42.22336035088496,35.15700753367563,30.624243345953683,26.171280760535755,20.77497753473658,14.631395734012791,5.848656182722393,-8.633692212402234,-30.242842169835008,-55.58793235689241,-74.21776878870344,-77.27016942578405,-70.21186500750358,-66.86083196628095,-65.35885057827923,-53.03231292920189,-27.78233335647622,1.3089670279598375,24.462567679440536,39.476023574282664,48.07253634026016,50.17829127692476,46.59319712990442,40.418170753996684,32.51152871968033,24.249802945321587,19.50277708394676,17.649012962895352,13.795348530066494,7.06073986932709,0.5464192897858534,-6.037825693772174,-15.126784790704269,-25.96874409649773,-35.77601583253305,-43.869317575767894,-52.97654633834104,-59.86142501503422,-52.63110456188145,-26.041952212458348,8.439676959757238,35.26543774691431,51.02210463415078,60.3472482794288,64.04188010961431,60.20379772979125,51.07640525041879,42.84847789972696,36.785855697699844,29.237834315694506,18.092021072376188,4.311045501585142,-8.706523513464193,-19.04432906926241,-27.31478866765966,-34.14269118171813,-40.19127776160287,-48.24083507224206,-60.73695075137866,-75.2710603677931,-85.00204232276447,-78.30142084458278,-47.116784772137336,-0.11436102443448476,40.87900891685234,63.499923288040044,71.19129245535414,69.67485897296248,62.07943497123519,51.8651118475514,41.10672759165282,29.479246244109156,17.241181824853808,6.85451223151062,0.440536359757834,-3.3945552886713215,-9.040230305614951,-17.57858653074565,-26.416919235615747,-33.87127069006709,-40.69959944265672,-49.38212272292612,-62.992855450460176,-79.63363197454512,-87.16360545245539,-67.63372457902742,-20.968407901666065,27.649974664675433,58.141094802613146,70.63965841825348,72.3113997948329,67.28120843692113,56.77366264952558,43.67260511298247,33.1523335607861,27.213790664790913,21.46691515942422,12.114808760768506,2.1754688465339034,-5.360917949393314,-11.044916300883186,-16.580427427558256,-23.125024077496004,-31.30666033062429,-40.79118669869391,-49.1462779687557,-56.604930013091064,-65.36301514842037,-67.89159199255714,-48.71059442197101,-6.002608178567676,40.280834926046545,69.44699274176226,79.87356220520584,82.29599833381596,82.810206041478,76.81132482852645,58.814269482169806,33.323077456576385,9.986860663279028,-5.595680118864303,-12.951969682039422,-15.744523652557357,-21.24766168997713,-31.833149200628746,-41.015154468250564,-44.6203304958717,-46.03532841926542,-51.29109740274541,-60.9836081705154,-71.63871978744616,-79.38131178995415,-76.73393016375606,-54.337392897295885,-14.991895697293732,24.377456067008367,51.61607708724013,66.48872519437259,71.97650178613651,69.0564918851778,60.08261580858916,49.876902470086975,41.23571162430403,34.73998413434531,28.407399702718216,20.762461295296006,12.034589809087898,2.492858079097236,-8.33057352042032,-20.79302727456562,-33.758149472444586,-41.893186048854226,-44.603535564267,-52.16731862581321,-67.88251029884982,-77.90646766724926,-65.47717338636406,-29.889904951511287,12.427361421292101,45.833694367779316,65.7810906126443,73.0709878095017,68.88247009043475,58.168779379748194,47.12646076628173,36.977507226209006,27.29239156393562,18.244764703946956,9.852807021784818,1.1370523608078438,-8.065104228261584,-16.19439898596534,-23.458267567418464,-31.251518254358498,-38.928672503298,-45.74769983859216,-55.12203575283094,-68.46300778951806,-79.12257861847174,-75.30030693657659,-47.50433854075647,-4.059463780125885,34.73382299102007,57.7409443032059,67.09302974477473,68.17835175789519,63.3144031491213,55.76851408136489,48.04793866430554,38.56833945072798,26.92345210885383,16.086610811932758,8.271826511207788,2.05289303080001,-5.951279648049588,-15.429144277355208,-22.17697575473237,-26.339389356687075,-33.557439541013096,-45.44452356666749,-58.06927056333654,-68.83876927647306,-78.06623691525279,-79.52426472082583,-58.016710348709765,-11.189497373955586,37.069507770156186,63.505426744263985,69.15611873297121,66.68466991634205,61.76462425667819,53.6936537480911,43.75465359730719,35.42652224853983,29.49475697349209,22.483599074156356,12.303955367931833,1.8512860210108089,-6.859957735629982,-14.50574965085495,-21.257457464466356,-29.67977678862052,-41.679606011412936,-53.01813368252955,-62.42796491937543,-73.51187974947203,-80.15799731902796,-65.03754288859213,-24.697354930644234,20.94694008480555,52.289537156185474,65.35871467496865,67.67814057542533,66.4854629816828,60.43586209179873,47.408910890801074,33.70240190671074,26.182629428094703,21.955224197351363,13.456348685179954,-0.8729599958989476,-14.419933648781972,-21.79697252868457,-27.09645696883466,79.0,97.0,57.0
-42.134998452295044,-51.410416198533,-64.93562651188373,-79.02250915616588,-85.30124870072028,-71.82096179740795,-34.274789547230355,13.255849280016177,49.35111557482451,66.93597743619559,71.5432194654981,67.9644751224799,59.25037451083298,48.79689625386117,37.87000338881598,25.92647976028954,13.920702695901154,4.564282311422446,-0.7483874066372374,-4.684609728542341,-11.295620695982237,-20.22591096911516,-28.71589419859208,-35.832787593504456,-42.863004266565916,-52.736647105295475,-67.80635190974637,-83.56524712014084,-84.88689414955331,-56.12321830531459,-5.842817691216979,38.62968425416204,63.27927185408334,71.96659262530312,71.47326554121223,64.74787255201973,53.036466127317524,40.16317867982258,31.054506716772835,25.816367862882057,19.107860258999306,9.093110035832103,-0.27169120157602367,-7.121797655601747,-12.588138635635701,-18.341111890466934,-25.293167330993654,-33.99910596059899,-43.41573965050997,-51.24791772907926,-59.05781656016061,-67.4169569705357,-65.1169405218499,-38.21927148157674,8.15481576924374,50.946969966260085,73.97891036887609,80.92685799352833,82.66722061342726,82.11449804425307,72.85221399050066,51.78955178929914,25.993253031224373,4.590657236084128,-8.490074949184804,-13.943313404458243,-16.748675751942717,-23.974012836088757,-34.95627802705597,-42.61210472745054,-44.95576033001599,-46.99334288265227,-53.77004517601048,-64.11995341774531,-74.39697382653019,-80.15074739942386,-72.53141954845194,-44.09823372637515,-2.828673168456282,33.67248418797414,57.03160301212972,68.9586961435345,71.97064517386107,66.87212874451632,57.086841886740714,47.1481740850359,39.18949735643852,32.999497527658036,26.342880848949708,18.328130708197545,9.369422389850625,-0.47534039641730363,-11.760450738101115,-24.645285050397998,-36.868641171459714,-42.89990031012164,-45.81530600754989,-56.20914682100637,-72.24127990881158,-77.06535582613584,-57.05849460671462,-17.475254386767638,23.39172635959603,52.96633617240715,69.15145954890644,72.92677564134321,66.12393992428575,54.86188230091236,44.13843084207009,34.125208121411795,24.605380137083444,15.771261142333133,7.42634007277062,-1.538205742276348,-10.567245007003509,-18.3131458884244,-25.626843196233366,-33.569209281390044,-40.91265235621713,-47.99361262721964,-58.72258102293153,-72.2707200546105,-80.0949204161414,-69.80115092808325,-35.67234871221609,8.40464992235844,43.10712509769626,61.55781101951594,68.11519902742496,67.29041936271808,61.22268212350771,53.57009193381761,45.587880535641226,35.331211743141836,23.55951240633574,13.503603685540382,6.466924068712284,0.02579182729866014,-8.705434697098992,-17.809634927651086,-23.428283274626132,-27.892006557236243,-36.63309028675336,-49.21372593534805,-61.36673640559276,-71.70617118332855,-79.89165132016636,-76.27331859367176,-46.43761252259631,3.9950005068321834,47.36765535126868,66.71956595817065,68.81663012742025,65.51420268558667,59.778174654510835,50.86202950947153,41.05706440815033,33.56325174153955,27.768330506343453,19.809413684590595,9.141804660809985,-0.8237574946933733,-9.16633984905466,-16.50949260827538,-23.335471421511972,-32.87499433212599,-45.24773793122224,-55.76595619789957,-65.41509261403259,-76.58812194073998,-78.69232799344378,-55.397603030856814,-10.945716936660862,31.95225965014497,57.74542587274166,66.6878050803585,67.59478243831936,65.44413770066637,57.272608899469,43.08912740592952,30.822205806712084,24.972131988853043,20.1887079606313,9.73434036724383,-5.245437529510155,-17.183654594343327,-23.181914491512597,-29.325546006235758,-40.899082579205135,-55.69358133462857,-68.62875942632087,-79.92860063186892,-87.76043006901217,-76.27046819195145,-34.056701491307294,21.110324385076318,62.038231160678166,80.0483352089358,81.88147788752718,78.06349983536482,73.69393037301695,65.187663818101,49.58398288865831,31.90876002109581,18.82177574388342,10.430986740209633,1.530153763437361,-11.01447760683339,-24.31703707951522,-34.5521962466924,-42.3427461665255,-50.576723813163014,-61.36165227371736,-75.07236560014557,-91.40456712533758,-103.26851397298495,-92.12967182758997,-47.4303486595182,13.381600156398928,59.761994415624734,79.39546408714978,82.71630128786383,81.24773883175229,76.68631060717667,68.25588577455164,55.930530461462084,40.71453053081907,27.596241369852166,17.69614414521342,7.856924235515487,-2.331965034865787,-12.266306599138671,-23.083919337336837,-35.49051726892931,-47.12244624431483,-55.76637674053453,-64.61468908924871,-77.80216248681872,-90.5705858966011,-87.08532158301638,-54.78732167877838,-1.5928311060329297,48.35437478531957,76.60023176766973,82.8272384875169,77.6434543229274,69.47422995435709,59.54884552096448,46.56711961768511,33.22217817774434,79.0,97.0,57.0
19.073773596447246,-0.08388735859262082,-10.721074090364615,-14.686482838932488,-18.185534640864002,-27.068100025593953,-37.754534835397195,-43.7152179242116,-45.26326551505078,-48.401571227126674,-56.55826676556907,-67.24728887498013,-76.81623686453797,-79.80886045083452,-66.46776146193916,-32.71013382546275,8.85209645357972,41.798790690971636,61.494918603858984,70.70452409002269,71.26231938717099,64.28706074047724,54.099910777759696,44.59559117875825,37.31128391492546,31.205718791641125,24.15526543494417,15.818424166303776,6.637153039021147,-3.5688950396887447,-15.332221768030507,-28.48703479795336,-39.39068313339316,-43.57264775309161,-47.75518070272461,-60.83645344306822,-75.64217292415253,-74.00912531360402,-46.905250383497815,-5.010410546893285,33.33553701320985,58.96780573624743,71.49058464397463,71.85688735733976,63.00358356563724,51.64252965154196,41.203451994755376,31.313390868206,21.975159523036385,13.351373461376737,4.9316518172040205,-4.226688221572607,-12.941669865874562,-20.39328591220945,-27.871667441796028,-35.82597675518722,-42.836119596177575,-50.58424340972275,-62.6131513009976,-75.62763723554285,-79.5262620125813,-62.1475760969184,-22.97783772996437,19.988447519125437,50.04006720626301,64.39291956130751,68.54459469187795,65.94104415597799,59.01961193222336,51.37429023442703,42.911201277418385,31.948311767702243,20.353958724681807,11.201437427453113,4.71805081051292,-2.2325769893412484,-11.510728425333951,-19.84546371137156,-24.55509689935444,-29.854556653559815,-40.05778248194461,-52.92053804154229,-64.49359988582947,-74.46783654046031,-80.78931019959094,-70.68277632245508,-32.95290666273081,18.49324498241838,55.4756812532439,68.46888644095037,68.10593603787567,64.16227503033437,57.496695046818246,47.9490507333156,38.581276203848965,31.870519009697116,25.833394912287783,16.873458945253475,6.066342847235372,-3.3531331824013137,-11.400525526674883,-18.437422498497703,-25.66299745552342,-36.35894385952661,-48.602630166230796,-58.42117727510786,-68.63336208351377,-78.97262082819435,-74.93873848823009,-43.846884876723976,2.604347144523327,41.4178733703801,61.73447188704973,67.37733027518222,67.32560077111819,63.87400392083636,53.53692035363619,38.95848379749273,28.556740594390924,23.8593745044055,17.88814274935586,5.58257702915536,-9.32796652839982,-19.37596916420904,-24.59086047666358,-32.06609760454359,-45.09956382432021,-59.74130655723746,-71.9398289129281,-82.98912387090334,-87.33439130476319,-67.02074677714056,-18.071150765733456,35.205495332020114,69.47414175748251,81.76379458506669,80.95670350251558,76.89040878205819,71.91949949877176,61.326078722176824,44.334308047380716,27.4917468144073,16.105549525716942,8.151431412346891,-1.7418877555035661,-15.007849032737605,-27.648618643277892,-36.93491762500573,-44.551154447778316,-53.386563159417,-65.02594317926626,-79.59386312911968,-95.96657840062666,-103.28877237044536,-82.4537972487996,-30.112687264589383,29.347088853612178,68.00669788247153,81.34206894160273,82.55509487267118,80.31707672522012,74.63027499641791,65.12569133048875,51.6495793287424,36.510384518894455,24.541030889737264,14.940211314293428,4.895086270095743,-5.207706720529998,-15.226596615290884,-26.54923263317064,-39.09505136208659,-49.89627155476175,-58.050707570199705,-67.94607986047605,-82.08319971522147,-92.04007667939733,-80.82477150135834,-40.64018461845243,14.28782539919215,59.09991314610525,80.27400368891476,82.00276207797332,75.40590978812413,66.87528685529045,56.082299281451604,42.54694610787655,29.860859034917052,20.180129766098872,11.815118431775753,3.081257324339593,-5.912003834701684,-15.994046198261282,-26.936308366574348,-37.03590412338766,-46.41037364945216,-55.37544940825941,-67.10859707210666,-83.1972534450792,-91.76968366278986,-73.7590559747727,-27.999010416883397,22.951690046223437,57.934981869129665,73.81276242720378,77.40383535622533,74.12177653863773,65.68465276564051,53.33212251722414,40.561678635857746,29.99099604066151,21.30484260332913,12.890853114889705,2.4749952321037187,-9.876950637294874,-20.654948309306338,-27.754073999238187,-36.11769082551533,-48.369150439527175,-59.12996567774342,-67.15526909829092,-78.46318585059608,-89.02186155282865,-78.17027633637629,-36.33047838396429,16.555549187997087,55.898533592634344,75.03375268232284,80.60470119634147,80.58287874579469,75.94959663700848,64.16446113141693,47.555554890333084,30.888921626002386,18.551603231323647,11.17544387415109,4.486117645477917,-5.495864541026472,-17.540101717003857,-28.739198664605315,-38.83013106814524,-47.48556689213384,-55.15016701502437,-65.68134882364531,-80.92533119393592,-92.28963751750727,-81.22289501136143,-39.29518013601,14.454454157468827,54.27561807850622,79.0,97.0,57.0
-9.992756800251234,30.3912476174289,55.60205897137175,66.40603539591177,68.41716193010924,64.21124848582329,56.79065053028067,49.12394890757171,39.99291773535843,28.505235001177034,17.37264019281978,9.14960364146469,2.9229788882023398,-4.729780522283825,-14.236265694085228,-21.517183154306597,-25.7314702580195,-32.28191954165356,-43.71530932209493,-56.485832546078136,-67.48977744102308,-77.01709964529138,-80.32349067609074,-62.58620358666168,-18.203257497950318,31.622634922248153,61.43210932996246,69.12471887064859,67.17131646677133,62.582475061729504,54.94548434147268,45.05533087499839,36.3625524790576,30.249822099763655,23.613246920410266,13.764893944950444,3.1414178730659406,-5.772762024462285,-13.548605794738117,-20.35260742794806,-28.326712164637375,-39.99642205188383,-51.685150002525965,-61.12718040167076,-71.98342170532185,-80.15838602556948,-68.72423031986906,-30.9343432144507,15.412652548670446,49.239394758991864,64.46019416471925,67.64820973079112,66.82334004885271,61.674885996105196,49.39450969399384,35.236251289952335,26.833121236480363,22.62353697810486,14.991606129273904,1.1810731765802613,-12.943315402381442,-21.107138732409013,-26.22293252456809,-35.326659787213,-49.43727875290077,-63.52619144947398,-75.20331625207591,-85.60996431165084,-84.75085296996946,-55.141645639365954,-1.7508627940501977,47.553205370601724,75.00461140919118,82.37990024089935,79.81511444591708,75.70022796961305,69.64151798263886,56.869989572510114,39.10799513230147,23.589277697030838,13.698332572773793,5.681061672048597,-5.341155963787256,-18.935699975877313,-30.664526877906336,-39.17305386343509,-46.870973886696255,-56.44392001865789,-68.9275556950326,-84.3383444693316,-99.85263909850852,-100.8478049909792,-69.92841653225273,-12.17625872345404,43.39079209924308,74.00553264242382,82.33134136060669,82.17216583933885,79.08679792507891,72.26038039482832,61.64802315158005,47.1983809059658,32.62586045287149,21.696374234788827,12.114096304802436,1.9358990528085005,-8.063184129182725,-18.306607523317936,-30.141867901919525,-42.540731661310254,-52.402389597267124,-60.491122011248564,-71.71112581355467,-86.0874729343988,-91.67989670799858,-71.97893740858754,-25.183130495624237,29.23299158652577,67.74362707332985,82.2798170396123,80.52333054410339,73.05780983235769,64.08755275248652,52.347318236063366,38.6126662436034,26.781633528980773,17.74094259525129,9.339141945754458,0.5159344960925243,-8.661818234911236,-19.158609721939744,-29.963735506291734,-39.80806539832926,-48.98590067036887,-58.26386687389498,-71.51833291976583,-87.34826663204373,-89.88877962840922,-62.69649939433799,-12.588709083978292,35.17270871773063,64.24668998256323,75.78963702292803,77.03510803233945,72.18611490809853,62.40655262201572,49.503403207586594,37.261001271852955,27.333819789118078,18.955082921700633,10.15108463240138,-0.9912183901014606,-13.35869779561434,-22.97868137332076,-29.751148455812384,-39.407330395399086,-51.887461802085426,-61.50604805654684,-69.8859659234992,-82.31610005924456,-89.0483345434169,-68.85749805377615,-20.873820513627376,29.98876303442094,63.34500989749489,77.6217004450194,80.95696273767071,79.8716750376533,73.27893784789786,59.65733118294639,42.5306647488468,26.739007432181566,16.038476063437983,9.4094122222232,1.9998965860653517,-8.93560900867002,-20.909182534625575,-31.761621003949404,-41.51051657455322,-49.69155247383836,-57.68705682738686,-69.74010864521865,-85.31668467252207,-92.2273823119009,-71.92420486754996,-23.657799037920324,28.138123853771642,61.659989736267086,75.66255775222722,78.78019103857008,75.90105650562542,67.13207926218057,53.364430199073595,38.54540357750216,26.58231212635319,17.988135407852408,10.939399080636713,3.3400956666723127,-7.298916885667295,-20.139264708261532,-32.131969515196246,-42.29400628995949,-48.11438913916608,-50.31661489769692,-59.03073082803507,-78.19416084371153,-88.46939991541451,-67.98352013474873,-20.67065899110063,30.189626095390796,64.33302113704,77.00299343149909,75.37228031344975,68.75278140389051,61.44459648409402,53.522152582225516,43.4939993777335,29.831975963326997,13.936336711049066,1.6929736490490435,-5.682116116972941,-15.791245377324426,-31.182233838029127,-43.520914145964106,-48.75093465344071,-53.0499615020821,-63.99647352323283,-81.54301682219962,-92.87218461031767,-76.92897849716577,-28.026356727035864,29.894225875085482,67.99636696237684,81.31484231530771,81.55642822740212,74.53206037575319,63.70711046485039,53.893359403673685,44.71344386094566,32.876608459853244,17.831034204931687,3.119958291307746,-7.428727114877654,-14.559898343448424,-22.342965510899322,-34.60606566556522,-50.710753461406476,-63.330069606919366,-69.98818060776348,-79.7370035519921,79.0,97.0,57.0
-28.237277336003256,-39.05271457991806,-53.75171772696316,-67.06311561491914,-78.45119572718487,-87.37538449501514,-79.58870120362057,-41.088351086188986,14.12687044271198,57.93542030739348,78.81110523337824,82.17622720893974,78.61322587265164,74.38399025166488,66.7464325894669,51.95506244215219,34.09889263030516,20.213309575073954,11.453565240236605,2.9190134081546217,-9.18858972445713,-22.678758246859882,-33.38472715019977,-41.34353626164707,-49.35974575053883,-59.75295024802564,-73.07428740471161,-89.19019544320295,-102.56408845075316,-95.57399137127229,-54.97408538314329,5.524118714668055,55.15310737031877,78.06761240886941,82.69260302974348,81.58985146591174,77.52259768751975,69.58981512739494,57.81224980176608,42.732884563713625,29.103210993362005,18.953645748998415,9.213329374577068,-0.9941715631754205,-10.929610927280692,-21.538724258552772,-33.802455728272726,-45.74314949034436,-54.72440258133237,-63.22514818511715,-75.83012731649367,-89.40201814812146,-89.10130267826156,-60.710058626456686,-9.061743726929741,42.72942231674459,74.27405574321001,82.9125817610491,78.61660113523014,70.62701361657737,61.04751319838706,48.41657761177288,34.86602346396919,23.95755970977023,15.345211346967487,6.815125592990059,-2.062089796510074,-11.543085393683924,-22.350953758458445,-32.89271747712532,-42.533951412094595,-51.53278135187678,-61.51557118092015,-76.26045554747007,-90.40804091647404,-85.34537702361935,-49.576030107728215,2.5423888227167266,45.70330148257473,69.06079977633607,76.93634988822828,76.17899234557228,69.8341395741716,58.845583243113865,45.75135230561232,34.168565669366735,24.812716380874377,16.572983746098522,7.193753405471619,-4.585363945649553,-16.584032726183416,-25.007002565802313,-32.04115989418897,-42.98648293374308,-55.09938479788254,-63.73616537171235,-73.07355219797655,-85.80328709760046,-86.66764689828064,-57.01545139183849,-5.231804412333186,41.817340114889795,69.14091741515757,79.30633008164467,81.00715249223052,78.69953257265485,69.97711851786899,54.855662774287296,37.618978336755724,23.051358411979507,13.893424506427113,7.56484163747791,-0.8280848373506723,-12.452323500281825,-24.165807180600517,-34.702120969169926,-44.04750586425287,-51.85267520791982,-60.59643441012259,-74.17240322525224,-89.05270536325723,-89.76289880027329,-60.08587167895577,-7.758768006138549,40.13336314663559,67.35314105634693,77.33907913057892,78.51177346147641,73.99475292439553,63.537924919765366,48.97815275581361,34.69650595284987,23.821289027520294,15.876096326048913,8.916324307980856,0.6449034324958051,-10.943283419574927,-23.75658464271016,-35.31627066839941,-44.55804122233065,-48.81581419415795,-51.640415385969646,-63.910221138006406,-83.34721187343649,-86.10273725426862,-56.21450636721011,-5.2101270761474,42.290243166805226,70.03521151606296,77.53336096419999,73.67579418759892,66.6505783832793,59.277482546268594,50.91378240346505,39.960415297530375,25.2543388287396,9.772686014266263,-0.703026196981063,-7.957651967568469,-19.949062092105304,-35.46209085353347,-45.6314002410999,-49.68569734461936,-55.33049188089488,-68.6869134300075,-86.36182762243659,-91.87033481359754,-65.61254130914662,-10.697370957434972,43.71679103119174,73.93843522283063,82.28102095689212,80.1929412564312,71.53850686124701,60.666932424410625,51.32236009773463,41.677805832509634,28.763112988500957,13.331522675423402,-0.4291912677242255,-9.684640083682336,-16.54434899728406,-25.31936323645749,-39.09553746990445,-55.07572960073962,-65.59347139834469,-72.07151618326932,-83.75635134179453,-94.22087315297034,-81.42473780034268,-38.42481518242411,16.197315537333775,59.542289624709746,82.12998467435025,87.87863925673604,84.69224866403638,76.05797489705536,63.31885404995692,50.0641618301272,38.34912643633242,26.133500520168358,13.047574627155733,1.7804088500626591,-7.67237373429899,-17.48998988998931,-27.391613305294154,-35.86664959669061,-44.71437358166039,-54.633080984273406,-65.09220420641113,-78.90521772713461,-91.96394500707711,-86.65118368773511,-49.71261087028505,4.325081479576461,48.192573761593366,70.76696731440867,77.71137134357691,77.0057040126315,71.59432969950929,59.64140189090426,42.44590775260063,28.098265858122822,19.84164805886074,13.011713248680726,4.251443255831127,-5.569915334165897,-16.09831576121237,-27.1627233378011,-36.10337352556828,-42.3295948250465,-50.04878738646506,-62.29094248634758,-76.79790375476735,-84.73425850131562,-70.07984448929331,-28.13512476675739,21.5056196263813,56.90930277616749,72.98314212243119,74.46547009035727,68.2653606316974,60.478774563879526,52.76645861916837,44.63503977054836,34.46197726007241,21.25970370663346,8.394186750738017,-1.473270324954067,-10.125712115575089,79.0,97.0,57.0
31.3751039813413,21.337156035902737,12.938612085410114,4.26231250479278,-4.680312539343042,-14.561987338810528,-25.507239971540542,-35.74218893569324,-45.202440257725826,-54.129687415125986,-65.22957074673204,-81.06614949856274,-91.81883790916211,-78.03511715031298,-35.009089863670575,16.80155404685496,54.474103329821546,72.57419187369574,77.39435253320245,74.8711459038123,67.08130191986903,55.094941761692056,42.15437523093086,31.268830877078415,22.39585163083551,14.08845816974783,4.0126396269439475,-8.219189585685148,-19.459380206374952,-26.886708568626027,-34.73235888739088,-46.68118377911331,-57.94052675828316,-66.02315851314987,-76.69476000932612,-88.34442712311879,-81.5178415899131,-43.186017213755584,9.906880236318273,51.872262522576456,73.47113953607563,80.31323825579878,80.78596862449757,76.96191661984747,66.11047025613291,49.87764113729358,32.93814404535427,19.85928154460425,12.00005293683368,5.521717336480031,-3.965656027503927,-15.951641686445772,-27.31750802713926,-37.55196332434273,-46.43300148156339,-54.07228810550927,-63.964721190527385,-78.79879504477732,-91.63562072206993,-84.5729306296571,-46.203390931301904,7.673135773846074,50.25262312308459,71.58538134505324,78.3249407072605,77.7929445345336,71.57305392250585,59.5814177490255,44.62442565428771,31.160646017723693,21.31215649453354,13.8463068193232,6.790225667744514,-2.366212945555535,-14.689350937722669,-27.249938615702487,-38.334938912536145,-46.36049079848938,-49.323978914319284,-53.844579339564625,-69.57673234810818,-87.03944361421183,-80.79954450191799,-42.596203790311954,9.89082615677708,52.627276444497646,73.9848400087364,77.12634403960583,71.75495063927029,64.54232030614912,57.03023590242128,48.09194281357786,36.082443837247034,20.58010977258338,6.088893299916784,-2.7711688370684646,-10.708465722016898,-24.46812889595721,-39.22125373772075,-47.170004401653024,-50.76738062842832,-58.3172386811741,-73.83160679687772,-90.20845669721714,-88.0479365757621,-51.69624472001303,6.540704727175761,55.311353656525334,77.99643346197527,82.46278306601953,78.25620609620454,68.36205076595263,57.80123137661476,48.732857404900614,38.34023494482086,24.413994829737394,8.979130614602958,-3.5606409582208594,-11.72973200198928,-18.692822086837175,-28.75382070175594,-43.82058930838343,-58.90937448775409,-67.44050349663591,-74.71551920391323,-87.81268392927826,-93.75959733216241,-71.65250683183396,-22.67720972630139,30.609080243844144,68.21744094142652,85.15028208804789,87.60670332451399,82.7267246179887,72.67585702417884,59.36846404687864,46.55937271897928,34.97999818580678,22.33438968496793,9.517168732283658,-1.0348076327373692,-10.41234862997004,-20.439705682358497,-29.972348813586834,-38.268169138833386,-47.545018020544475,-57.508664954411984,-68.65638276396236,-83.32642643185207,-93.25633268500418,-79.17429911386397,-34.566509174946134,18.963192363971277,56.85125874342223,73.9570861026017,78.05562181042554,75.94640485556086,68.9145833721484,54.91834877057131,37.66030429973061,25.216365470096466,17.967583866518787,10.686625125986836,1.4624673471297915,-8.506718533660605,-19.32302146917348,-30.090009522612625,-38.05823801010717,-44.18260584895344,-53.12469136552672,-66.4762865533072,-80.40490971885976,-83.4825239230239,-60.28490178826308,-13.373860561390462,33.74594714314695,63.40631109912456,74.62836205406911,73.13638587847255,66.01809209769857,58.25613623277472,50.49878059612417,42.01054823676681,30.88642577595959,17.306454050078766,5.2435666777553065,-3.949991373122688,-12.866436986679924,-24.07302330987013,-36.231619261018274,-44.23557344747525,-48.47288539708157,-55.522959908000644,-68.53733841357216,-83.64013470321493,-87.28191508320393,-62.94172308778561,-14.203760019865843,32.98675572146978,60.37444426772681,71.55214894332613,75.05612017665011,73.07012824577917,64.70745963391563,51.29528099897468,37.657077356652074,27.350032752422994,19.37753098627432,11.636922984892639,3.2360040297233814,-6.31343130066784,-16.09766807028369,-24.91070136129809,-33.472494742050635,-41.125483412462884,-47.24465706729492,-56.54654352158328,-71.73064515693109,-80.93272221581414,-65.49880048449108,-24.250178983239426,22.133649166831677,53.65632099276438,66.8055878537496,68.48005281024383,63.97635628071798,54.97210321041064,43.326256353508654,33.03582004574054,26.01496250254887,19.032539743794647,9.402508501878653,-0.8192776509325614,-9.142199833719106,-16.49098744370628,-24.035512603183015,-32.5852401584143,-43.90048828965513,-56.195452721255144,-65.84271090781417,-75.53936363406261,-83.62088178716529,-73.68489559551622,-35.14565567485787,14.588201404629972,49.79924228296712,64.82844561440204,69.12975363702687,69.51328587483147,64.06938732268466,79.0,97.0,57.0
58.47763143934099,74.6087468668515,78.74991742037885,76.60984349341766,68.64406078112302,55.36446620731387,40.41318632803179,27.95343463088453,19.001240266465324,11.856481666990204,4.484532507619342,-5.682220688302109,-18.435038012775127,-30.619416879302825,-41.1170032552931,-47.66812034786208,-49.92062910983647,-57.13226806073014,-75.53157076361057,-88.60705862599038,-72.6366905708428,-27.74823930141306,24.08095394213825,61.078487367265154,76.36774708723465,76.03952758813226,69.71410565411114,62.42729019683353,54.663783653364995,45.01286270984423,31.871342154724367,15.98049774483045,2.95495454147971,-4.738309559427515,-14.049197872259315,-29.092716120728543,-42.32435372760876,-48.305469744551246,-52.211182736643174,-62.0412776547314,-79.14310810963599,-92.50077645413519,-81.15358175615671,-35.803942962297306,22.868508584302486,64.53126478778802,80.5462488786664,81.98421180208037,75.80625069303841,65.1580899129939,55.098382142890465,46.026371269884734,34.675049210864145,19.920773093248595,4.889848361914218,-6.290583464892718,-13.670248222530914,-21.110628366243436,-32.65811762596398,-48.57515268095344,-62.089115405063176,-69.15446233388957,-78.01475535206168,-91.34370879461163,-90.77860453599732,-59.47607527121107,-6.604105517532958,43.602590504333634,75.0900195140868,86.95840861029491,86.76942406469296,80.32492431216959,69.00217790788442,55.48390015502973,43.18719410923226,31.489487800542634,18.50657983791342,6.210509405228376,-3.7480043708661803,-13.23343478927904,-23.34724215036167,-32.41513195955419,-40.78362467743838,-50.426642690055814,-60.45046992006796,-72.59673604026194,-87.44809738181314,-92.46115145603365,-68.91522327498602,-18.66775922815326,32.14129818686653,63.686542788234185,76.08187984829391,77.91609720762263,74.51095113907705,65.60427464277416,49.87872702048995,33.34780026228103,22.808032274630158,16.05934962227129,8.174157622550911,-1.3702428968775806,-11.522699805811085,-22.564392122151773,-32.753069321849644,-39.827096833913636,-46.29817659025669,-56.60232588131692,-70.75680910081255,-83.16159579274337,-79.90028708113189,-48.33890130645517,1.3429323076723847,44.40018809098854,68.33326074630838,75.2029508088017,71.34953138238285,63.75460546217885,56.034590338457114,48.18380530780274,39.15319195680943,27.067470573460497,13.506397062060229,2.362173731627737,-6.404908871310273,-15.824204788476067,-27.693001351314287,-39.14975859708658,-45.578970001619155,-49.96461225488829,-58.69134178696732,-73.08110793376986,-86.71095166886761,-83.53853749623669,-50.44507731321685,0.8259356682651475,43.10391040748318,64.80767546297687,73.13261399785333,75.08462229026519,71.32145834206668,61.18941688377316,47.132298970451565,34.31419914194834,24.914151392382124,17.17744978645858,9.302110845059142,0.5981200245529815,-9.20408671281859,-18.732391869697413,-27.38295068025618,-35.87036007622529,-42.94596602979606,-49.313196041357166,-60.52765493160494,-75.90236688032955,-79.56954993783525,-55.59080279564988,-10.255348365290665,33.256287422607045,59.10796710771039,68.14166848276192,67.70017752956953,61.792352605300344,51.732613133045184,40.03034635103352,30.738719159454398,24.19095973491307,16.513807757280432,6.342561180006987,-3.4286614711798395,-11.287789364611298,-18.632294042375467,-26.326710277627786,-35.53284715060867,-47.573434510665344,-59.25964693304432,-68.44788176696962,-78.53802734904173,-83.47738390437573,-65.26308226945824,-20.59764855620611,26.96600089838691,55.91422090650612,66.70359912296047,69.59380301759734,68.73282307294393,61.00478236262198,47.61215297919118,36.554238171546345,30.389515671609832,24.11039141820969,15.269541112248623,5.015677524236823,-5.143314240558613,-14.381451682900943,-24.510585633059804,-36.02416467391654,-45.48217871444542,-53.95373705907905,-67.00768650856955,-77.5330376714098,-66.86525146087598,-28.737968468232648,17.862110132850876,49.693485941065006,62.78589796765104,65.60943829581278,63.34497449966132,55.239116301574754,43.3093479349657,31.78675619567237,21.996996912838892,13.98139818135911,6.4501497050710315,-3.1658658192213167,-14.338893206238652,-25.680625782287187,-38.34486225198547,-51.44682770221153,-64.09904011260852,-78.72676329552183,-91.22846022028794,-85.67302232391002,-49.366520530665206,6.383590351282322,53.45591777279087,76.2100712185234,81.37781767286225,78.59848935897773,69.20912543360238,55.08796086701368,40.47705364768558,26.85288802302763,14.577957422443372,2.6903308567613253,-9.40415905287578,-20.552036943251647,-30.902977739811156,-41.026138856979564,-51.08299899535483,-61.67824483457215,-74.63978632215957,-89.48789553320577,-94.78791221303692,-72.68464369202185,-20.535780941414448,38.639978814693094,77.9520361276731,91.40905900004859,79.0,97.0,57.0
-81.86993263501132,-93.7044234542923,-85.02517623118068,-45.39263853834583,9.174298714597203,54.92547553948806,80.26804397740689,87.77701507208192,85.45092133003547,77.49706831396648,65.13585567049546,51.73584388410813,39.877545718644456,27.85420054550013,14.739524538680403,3.1315349694104486,-6.429337487825525,-16.134058459290937,-26.14874781825788,-34.7797654324653,-43.4428191642155,-53.309279817466816,-63.56545947098189,-76.86641398227641,-90.81313966287054,-89.12790010863158,-56.22664559070777,-2.7911573003294805,43.56138325136761,68.87067453792402,77.35815170639356,77.37592108149529,72.63316063036031,61.658117000066326,44.761219268861474,29.616012464552412,20.73114141974437,14.016053939454718,5.513922843165796,-4.235534623165342,-14.633472189948037,-25.743149740426258,-35.114924891496884,-41.52929453001266,-48.77180416541359,-60.429831677548144,-74.9554473034582,-84.62464040724257,-73.77262116932884,-34.76418427542708,15.393357114403274,53.35568793328119,71.82066684739534,74.87326467104955,69.27662767095619,61.50771336548761,53.80212116960541,45.78434955254364,36.012262949590784,23.102679713094208,9.943476096238747,-0.30007759253885186,-8.922511088574053,-19.019880657641398,-31.3031387317624,-41.578083833550785,-46.729582254900485,-51.85905038341299,-62.3779761685661,-77.63642566674835,-88.37947271727032,-77.10042798244636,-36.30697917222175,14.97035860879417,51.3596760527299,68.14546554248304,74.23048436846656,74.64218088279684,69.01862525025588,57.31790109740876,43.09954803741714,31.285237211616625,22.61503360636786,14.955178175557224,6.900720746204305,-2.148958089155441,-12.064511219529146,-21.278936303221386,-29.863317029580113,-38.13899130704521,-44.659381617263826,-51.825492568849064,-64.98131579274249,-79.106679410728,-75.7244863902609,-43.772706312784656,3.5217181881195856,42.77829438346508,63.116717289660194,68.72016961993121,66.48238156286926,59.25227238928091,48.33756850095581,36.965143125779164,28.707406014168782,22.250147618942815,13.750949035903364,3.3301203157072155,-5.853707082111796,-13.40010794920432,-20.801147099090073,-28.732893279733283,-38.76005621882119,-51.21393406054108,-62.050094307077174,-71.20284425613876,-81.21898342866638,-81.29446153281879,-54.40815328790617,-5.837758267564702,37.61499710272236,60.45117213394367,67.97208382789483,69.8061416201755,67.34193746917512,57.403837800789496,43.86333774187647,34.42602209173982,28.81713876384392,21.78231003777842,12.396435485388526,1.991217318552746,-7.867672182865913,-17.113288787349436,-27.804190665307694,-39.10580537638515,-47.73849994424103,-57.20346095861382,-71.08267338552156,-77.36422883468896,-58.25971755246124,-14.88911672240947,29.161119405702078,55.104148335603135,64.26927839399896,65.46752242873322,61.622153948543996,51.97433035013469,39.81891112691858,28.776348910050647,19.50919062175265,11.877962908681544,3.9473290969563672,-6.342832889223757,-17.57313404139968,-29.164568240963714,-42.20265152671419,-55.056763657270004,-68.07123226731531,-83.07884343708466,-92.32633434959783,-78.38332445132852,-34.099629799091616,22.04189148191881,62.5437056981848,78.93975219165416,81.21120386217123,76.58309293125762,65.40505320475788,50.79935270929218,36.41577283967233,23.176771149704127,11.173358641966214,-0.8246159231629884,-12.756350575920433,-23.581657642472276,-33.848393141017496,-43.92288095593487,-54.039643443599516,-65.07732047789176,-78.9850214690248,-92.81556418298939,-91.82898246644702,-60.097136882429766,-2.753529498824449,52.78919902547455,84.17185279930757,91.8908650292401,87.71726609288407,80.22638653990484,71.53044760099962,58.63656195126032,40.00618310766112,22.159769107845264,13.385692718365705,10.601739438817463,2.184831575483326,-13.37089262668701,-27.004390849307057,-36.674775345026205,-46.835325374197545,-56.846647648622756,-66.96307756668608,-82.46212829668032,-97.95504656397739,-92.0404833875921,-52.78091801161196,4.133454320297845,52.22680794977096,76.4967577842343,80.28703676230437,75.58391808695215,68.40434055390524,56.68568384335646,41.68256194078903,30.67218947551034,24.61143819793418,15.230483879072208,-0.49641634146952757,-14.73211950189073,-22.975797204789025,-28.469170638122876,-36.61054769456577,-49.0778948141577,-60.391136442650826,-68.70917010514502,-79.12263952798239,-84.91598183760166,-66.80268521091014,-20.854527887522178,30.310940655998344,63.57579112655721,77.96117154877064,82.36517433018929,77.82007875617907,64.13059473108609,48.24241661747382,37.04252280236148,29.022892588152253,18.551620275492546,6.782144474984928,-2.6123829692776352,-11.786955004636797,-22.079228521493533,-31.633803596931408,-40.775731737753404,-49.9105174217806,-59.1368519580976,-71.66892286261479,-86.43339182924,79.0,97.0,57.0
-11.578298886211726,-22.43752978987569,-34.74586084275869,-43.50121970659542,-47.885386774669215,-54.24433134797812,-66.51272754984247,-81.88905801242419,-88.15039914198091,-67.98380535385012,-21.24516059589877,27.69665233311573,57.885700786012855,70.6345766611658,74.89398981429451,73.69000217361082,66.18230860531325,53.22030043904212,39.30606713195092,28.536767015012348,20.391675492117436,12.694772909689851,4.415262111230657,-4.985888990136891,-14.848073203538684,-23.77041791539031,-32.3409059315843,-40.22806843029676,-46.39314170032026,-54.91245136794207,-69.63026467124247,-80.7999545515775,-69.3019472426451,-30.602641497188603,16.525300458106027,50.609545148022534,65.88674610028492,68.67916336677035,64.85708674305548,56.38840433812865,44.895716025591035,34.200632974467084,26.84730053634568,20.105289045955537,10.801600294161526,0.4491986104630984,-8.129776689027047,-15.51189830828477,-23.004006225929125,-31.316658633923872,-42.23593371974943,-54.6830464801115,-64.66086816524121,-74.14237282441223,-83.13715140604782,-76.68691661885713,-41.56367433226397,8.387620272624622,46.386146921529914,63.689639324084936,68.83301378995615,69.69994944729002,65.26345127804744,53.466899278227274,40.52660516596207,32.65792031827524,27.07845287785726,19.250911384099446,9.434435225799541,-0.9775772776778845,-10.519634999667064,-19.9884391133528,-31.18030633187442,-41.90085052247706,-50.048997966105404,-60.95387170122048,-74.57488992661487,-74.93530959856174,-47.44715397885715,-1.0321306000877888,38.79047415443294,59.06912107434909,65.1407288065508,64.93684193449121,59.37130382696933,48.50041993924445,36.449318619513036,25.91181594625938,17.172981932373116,9.756239215042628,1.2113562089418337,-9.587289372932796,-20.817573136410598,-32.802689076015305,-46.024697616559784,-58.65666324125041,-72.28256942739326,-87.03405303871214,-91.4208250246644,-68.36073169565627,-17.77171675264835,36.24006607322562,69.47909643538263,80.52924384478321,80.53045953889773,73.98300657975322,61.31333664082277,46.55469127875839,32.44813313330439,19.61958779379499,7.756554055187251,-4.344370331770663,-15.99746600417507,-26.571639867783965,-36.77674052419676,-46.82123260693697,-57.058087192411186,-68.74376383016178,-83.41818231808361,-94.92852104902347,-86.14822489165195,-45.19575232829064,14.834697613472724,64.74081882611216,88.34663858725919,91.41285407145968,85.67561510678442,77.90423723347139,68.41846226173182,53.71393556701383,34.31431561537584,18.533506241483995,12.469301738511431,9.142131128987883,-1.9278355514336556,-17.845258804399002,-29.994160654864807,-39.47051533570713,-49.86132255317681,-59.545498067207305,-70.75109882660935,-87.70681915750492,-99.44594097208565,-83.91644152063124,-36.945082533378056,19.942025114480366,61.8583612945314,79.18731060564092,79.33046080143124,73.77467982531887,65.59971629832572,52.39642670173566,37.822333100044496,28.683322414686693,22.627775453340952,11.10765025033261,-5.146950155896082,-17.681869767105102,-24.60766624518203,-30.339455658859134,-39.90788758850781,-52.755961181920725,-62.88521647129013,-71.41214677390167,-82.07463891146234,-82.86122632633986,-55.77078112238097,-5.285398537346635,42.25133754519672,69.2307098705808,80.03635670707929,82.08846193745691,74.61999037554551,59.35681907167304,44.407041940431625,34.68046257320101,26.373148107683164,15.050404396197958,3.8118310911573956,-5.115506076812862,-14.733563291669427,-24.949371118681256,-34.267039902792845,-43.43995401625963,-52.49212578336486,-62.23750419647848,-76.14390250960862,-89.01280578370722,-80.55736282422568,-38.98360078422696,16.012980191774744,56.34149227404661,74.87540190793229,78.89196666170736,75.17839684567407,67.52059914024292,57.81564659654558,46.260149290785165,33.32114677162135,21.214996602306876,11.714249832297435,4.068961540037761,-5.432696934502289,-18.752588687567883,-32.15665347328593,-42.517633733557965,-51.62655388883322,-60.73699756178127,-71.26004882536485,-84.90512041538994,-92.39860837209281,-77.00474352842124,-35.37042002901521,15.471501816095827,54.351566533618545,74.66698640212962,81.6356181378838,79.78967361232422,71.92910882183298,60.3751587078623,46.52785964745421,31.821187644564493,18.146872077786103,7.446501978225332,-1.7673817649552195,-12.35977685964362,-23.727281831143774,-35.18072417847533,-45.75839882165138,-53.07065807798868,-60.980143446557264,-75.01505792148124,-85.77692269197438,-70.14483312022664,-23.27991679196307,27.938757494557986,60.028189390731384,76.1406102226994,84.39300112506747,81.7860975425154,67.0326213168733,48.833307233049666,33.69942915850659,20.351782324718094,7.824303634528539,-2.852608078545757,-13.769933756872597,-25.699269161153286,-36.44601663113332,-45.897193515400396,79.0,97.0,57.0
