-10.188978770620537,420.19790987792413,558.4197229996975,479.3267296571227,391.2375148536543,350.8990249903995,315.5464930020741,261.7730649070632,205.68640387147735,175.6496510006826,179.42213661760658,197.05109924132833,204.76291026295183,193.73944874911447,170.79623211740474,145.3091716970497,118.9894735823257,91.03683305133355,63.59803812961122,39.60936844272357,19.376546243276774,1.8373454056693463,-13.6020924039232,-30.124429875771863,-53.140172595776626,-80.21596688466462,-103.37508305711161,-123.40510786783084,-146.07166430858362,-163.50473402373768,-154.70778534454905,-115.63947528370736,-69.46719245816779,-37.723921699005466,-23.437380600860163,-19.282618965376436,-18.77371524264352,-20.256769767949407,-24.020964173841605,-28.751186621150215,-29.954493450397347,-25.861856187507545,-23.42069386966349,-28.29312276541578,-36.581667613833126,-43.187873477143924,-49.16307068162648,-58.14684829494644,-70.52478068209253,-80.56199574460459,-75.31342282431224,-44.052306879321726,4.067270315239588,43.95886248890908,61.98304566209823,65.25862786550711,64.29730092273897,60.65572978571871,52.88503719904715,44.347267287744344,40.17159368774323,38.675072680819824,34.11069673814301,26.97162119940955,18.405620792990774,7.611945067040833,-4.2405874036164555,-16.078064796878845,-30.078734928413432,-48.10280632597814,-62.123467271139,-52.31928527549097,-12.572864075107264,33.678602916519374,61.912711727394964,69.73796075444847,67.31648176366569,61.671740488057615,53.30597692672771,41.97254931563635,30.674078111775085,22.835624455187514,17.94750476978841,11.446479405120066,0.8217184103230695,-12.059076465493327,-25.527460804117563,-39.43625286940978,-53.34029694679004,-69.47328314051335,-88.46371421248715,-97.46160542317084,-80.08241247268644,-38.54943180305377,6.749190344398743,35.79367508979174,46.13512310303094,50.74609427039599,55.095660220781525,53.160210335351444,44.75536629382943,34.52231657374485,26.064082592307088,20.339577255425322,15.880380000210314,10.001062936046736,-0.09982050586360888,-13.760476857358256,-26.55370460420402,-36.94119169422591,-48.65912854869168,-66.81924860245283,-85.56590820925103,-80.95588900960327,-39.954728410730084,12.961671844479818,45.75500507319801,55.70782355612503,57.13275378795184,55.72308144882789,50.23680727813343,41.96348779640525,34.15103930692989,27.159123619318486,20.184668740709885,15.205079460386358,10.738765807647212,1.8566323255756114,-11.301602248357739,-24.414057565358203,-36.428549759111625,-51.205770169216436,-70.83834196591224,-85.1305883852324,-74.67918259675643,-35.85795186275684,9.657046575116187,38.471039596246264,47.57485840009543,48.06941842894733,46.42444293166616,40.04421495290494,28.473612294396723,18.566993389134446,14.795677782829939,14.270252405943998,12.383024207975577,6.455203473108691,-4.0095605975904896,-15.889004282147235,-26.43177674904532,-38.98528213560115,-58.13995393910333,-78.49586401444058,-82.76241741012889,-58.326515097150704,-15.03089351764785,24.527857627162604,46.5781949306541,53.364321204492725,54.55617754154688,54.53788065889126,50.77929605382841,39.41697925098155,25.89554335704496,20.711550804211363,20.02599690262719,12.496380955740413,-1.2736015272600363,-13.385383833603678,-21.60510048680937,-30.821595454315098,-46.21428961599409,-68.00016166883422,-86.3289680938673,-81.69115759534616,-45.95537117424989,-1.663031053049055,25.54493305807458,38.53214901768493,49.67908817226352,57.47776236074356,55.00087037914443,44.36037977271018,34.646248566313034,30.82758155201852,28.335430933469752,22.57499622523063,14.919386992538346,5.803175358019651,-6.499271306924842,-19.474936727518788,-30.433010287057733,-44.58380752800144,-64.11880553446721,-75.37952380239516,-61.17796326332772,-25.27969848665871,11.220163536361822,35.50620591704943,48.44538041153513,52.77845100129202,49.61790732999369,42.405851032974674,35.44281372732071,29.45234838989022,23.680403530344297,18.288437703445194,12.175125727380914,3.5919557455211715,-7.1786801877305555,-19.271570157788386,-33.65535843815703,-49.54583151468326,-65.90728354905661,-81.52200681665047,-83.5903841366578,-56.806346192802714,-10.488909936658649,29.479156122774285,48.37530512656787,50.19695116426871,45.418033636996796,38.71317393094661,31.29563571695907,24.703804768952487,19.662080730356337,15.00923206869195,9.983556993725449,3.360371415551157,-5.605829429502629,-15.283833901263536,-25.576154198893988,-39.10425983753245,-57.39268880556684,-75.76383703699739,-79.45171879510988,-55.35447973369559,-11.55063743081522,29.64980055291424,54.18700726656111,62.615190711726925,62.321006460932864,58.01182282121565,51.12416395768882,42.99277279173843,35.47445381654101,29.61110863420782,23.0017316373699,13.16730908157938,73.0,116.0,80.0
32.190312870365936,24.6871536055083,15.50885099330915,4.206924439899776,-7.632316047772059,-19.742767142731353,-34.94827685605067,-53.32248457307373,-62.5846336292276,-43.31844987646052,1.528820159294545,44.221839031777854,65.89016424933243,69.63702941985045,65.90454675026986,59.59052869064593,50.26661728431366,38.51265006243268,27.978572080312446,21.27758213847904,16.44764861200034,8.768556334728208,-2.7833486486142087,-15.90507229253988,-29.51825966630095,-43.442045056736454,-57.586716691355434,-74.94215475105192,-92.96890577224049,-95.52011111814328,-69.87207581277701,-24.77605961088948,17.344423031073124,40.260555276887786,47.47414205371266,52.24215448069097,55.383223805118874,51.19721004672546,41.79376483673613,31.79264697593301,24.163142711002813,19.0217674416236,14.468294760704055,7.591067526264461,-3.851876840959302,-17.724635454332,-29.718500083517156,-39.932630761777936,-53.13756241418323,-72.98488680689957,-87.81466558719929,-72.4412942233648,-24.149960814911413,25.269327907727018,50.36529485914478,56.48934665190065,57.05514999377794,54.58056748053774,47.98179627036219,39.558871738014545,32.12618020335501,25.083757887873748,18.476044571490647,14.09207610898045,8.762747497769034,-1.6833456386908894,-15.255249049908638,-27.890264453606747,-40.1982771190292,-56.51984365521912,-76.36700054531391,-85.34192649088062,-65.78735186200642,-22.114230639829977,20.27822897804631,42.72579772369531,48.10592676710362,47.82179010472737,45.242895243348215,37.02216694592753,25.09335673203217,16.86822752399516,14.537272230144938,14.020912042696576,11.160226185575782,3.8290243575740472,-7.496764903172882,-19.049861522046,-29.574045946045512,-43.80978552487114,-64.50701524633806,-82.24369157826794,-78.68545363410738,-46.78129118297632,-2.312940703165615,32.88457753712621,49.682515039663784,53.93144091193612,54.683691674498,54.062213353146134,48.29635223843335,35.17726516901358,23.34591608843893,20.63198677464792,18.818602715322886,8.805983378992801,-5.213881439621378,-16.03066357182606,-23.88149347801878,-34.498502323556266,-52.04437776300598,-74.41702116459565,-88.20301521366837,-74.11657772224906,-32.52485456299467,8.38534290944751,30.06515421038071,41.71450158551441,52.653632667124576,57.942062381203556,52.41233704568272,41.05716303197977,32.994615376284216,30.29019859605803,27.02433440496163,20.4532201422558,12.527167199630115,2.580775973199932,-10.40836227088883,-22.758525846320317,-33.863591301865966,-49.96912470100632,-69.1503505293623,-74.26166937569626,-52.203101533230694,-13.902921673448121,19.620476985147754,40.23443939075587,50.53734340787264,52.54769086346375,47.72764685101401,40.254756535984725,33.66415487373333,27.758806548358457,22.09246504643803,16.687806929537146,9.989351130629663,0.6342289856804573,-10.511132972383079,-23.164974370035974,-38.185631241039765,-54.19616055810987,-70.76075776984096,-84.40793664392493,-78.99819807583276,-44.325795877103545,2.7405358860967137,37.22700053715451,50.16072187274803,49.14598954289003,43.623323143221775,36.57972739515242,29.239065742452322,23.115295513516887,18.334166652867385,13.619168670877494,8.314611035559615,0.966006421113414,-8.404045575421183,-18.103627787445287,-29.027350353659763,-43.933721653416036,-63.161482253096594,-79.15726781824759,-75.46851309575636,-43.79222624036099,1.5372654264162837,38.66593429468452,57.98118687886813,63.117430308512695,61.40432459239776,56.23319264584921,48.834428593229624,40.6653735250144,33.6460369542931,27.952003674360782,20.480305952736632,9.971703664617877,-0.6789788483259989,-11.78883100473663,-27.182168649579694,-45.78119412658187,-65.14273422341938,-86.59506703311352,-100.56460063119539,-88.07993942467093,-48.45538416969172,-3.6715288633675387,28.531288047362985,46.53846524470175,56.46672605088111,60.506823258204506,55.25328725499972,41.220361459083946,28.907252606476142,26.094802270188502,27.278981708568605,23.308311874317297,14.309019134401964,5.381212382068632,-2.9343018427316467,-13.520848990345833,-28.68833952517054,-47.631480299844284,-67.26762582843492,-79.66493047064968,-71.37338028386272,-36.86012480257307,7.551551090763733,39.315304782497556,53.27638033065931,56.880877084308985,55.130749218003544,48.88213791693093,40.282135048323056,31.91052005717197,25.20671726045047,22.124873130537846,19.457271114631926,11.939665699268836,1.5132061064954734,-8.51476321646842,-18.813751776691735,-28.958806100089244,-40.13410919619909,-58.57035238204833,-82.08295528074056,-89.44375512880515,-62.729866943244154,-15.353370077533302,22.99067056218692,40.31043388653846,45.26993761001226,45.90239868507199,40.76521568815329,30.763822449074226,22.464380467392086,19.31420521221576,20.430789996045633,20.58489963628336,73.0,116.0,80.0
17.000462955934932,12.910982239062397,6.305368237799409,-5.499551932367156,-19.09176483123461,-31.309613431463116,-44.329837457071854,-62.23615708629507,-81.03081693666515,-82.99980430818786,-54.718635421006255,-8.536209441760345,29.06620339960612,45.500455034672285,48.23421890442819,47.43781145150876,43.54229398361698,33.64178309582887,22.06998017444059,15.707714653213273,14.425527406173806,13.56087203319049,9.551522630148284,0.8385624667452223,-10.985004584389346,-22.073408373015674,-33.03620380075273,-49.263756971705,-70.70368728433428,-84.13540707422773,-72.06094233299501,-34.151733923882986,9.534292176000701,39.59532382412877,51.72102064821319,54.264211605363634,54.7360938076484,53.15610061448712,45.10388538828532,31.042025361473424,21.701062255995602,20.629415111088317,16.81084595326001,4.767175306759284,-8.82745599945625,-18.388163167490752,-26.404293132682493,-38.789163600555035,-58.35803697030699,-80.17970333563231,-87.6141460073472,-64.0060051163608,-19.238741734349627,16.59429157170397,33.77252102831493,44.95746982402981,55.15104895496117,57.420923440638,49.30718502617442,38.08317395726436,31.857353868191392,29.672545198918176,25.396137726537713,18.24902423956039,9.972648757702851,-0.9438499441473042,-14.24063189661645,-25.869551381869886,-37.773529763565676,-55.736568353336246,-72.98659089703736,-70.68005867102295,-41.79975303909496,-3.038652845860316,26.866775918146864,44.121289318904935,51.94269899422121,51.720809395429754,45.619747971827124,38.21157856219282,31.938457600474678,26.078824113454633,20.542612726764276,14.977907287193915,7.560793868763575,-2.4669644581789543,-13.95407667307514,-27.28323992200289,-42.78452050670458,-58.89609240414653,-75.48947139743726,-85.67363205914378,-71.73498364780605,-30.762437026357254,14.793399195929599,43.05531455392345,50.77767133790005,47.777002919522346,41.70385052628079,34.41877389194595,27.29275372112151,21.653785884127636,16.998269532655865,12.194093228622762,6.461735832364174,-1.6146100086160804,-11.205274263538115,-21.011818953887673,-32.82558101088769,-49.17462028743441,-68.7396593255479,-80.85521624192137,-68.96783734050776,-31.040347462107796,13.840254557022941,46.103182599108116,60.56874408401334,63.08571185978186,60.20982793680627,54.266958493647415,46.473779332171894,38.445103710722556,31.958232379919004,26.130319550816534,17.664352671206693,6.794949373836721,-3.66505634448977,-15.703704942207255,-32.4239109583575,-51.235512654337796,-71.20331145249968,-92.26069237438281,-100.28366261573868,-78.67597610810695,-34.96415686061377,7.274424351599228,34.94959609897234,49.99873495466357,58.33161624100265,60.1095254201757,51.783906669528236,36.92385189730529,27.12505914176456,26.51335453546472,26.871923250105734,20.979035774997904,11.58338019467157,3.0192721839711885,-5.615881612209814,-17.406546266593782,-33.87292360381404,-53.44535454970679,-72.13588243580892,-79.9737486085889,-63.79125984596501,-23.891692568175085,18.666889461902628,44.922560936355474,55.04310043809469,56.85490074820699,53.75194578446455,46.48411286777064,37.789630580358335,29.695232551145306,23.943163804665502,21.61309707576418,17.85299286547862,8.996471031275838,-1.4341385290468327,-11.431529274725904,-21.814892056285053,-31.85676663410706,-44.47037810917291,-65.46800389958659,-87.06356814082504,-85.29731091929742,-49.81994338790608,-2.2893300750872823,29.998211995883292,42.469338677045776,45.83479841137136,45.14244327864844,38.10512485644944,27.939858262801547,20.99247222249948,19.338788748584964,20.91801496614226,19.359115450976514,9.57269365171073,-3.1396660363985927,-11.575729063560908,-19.089613914063055,-30.719520681232826,-44.343496900921224,-58.04458422982961,-71.42116358518494,-74.55980741423404,-53.92209784847915,-13.46165461140909,25.376455917555667,47.441880696800354,54.93823436126409,54.566500604203874,49.57899893110261,42.72555733815567,37.359518482077966,33.30666400898234,27.855418508521307,21.73382153586328,17.708277882193656,12.737787358716044,1.5108121464409225,-11.983654468505858,-22.599399989428036,-34.122164408421504,-51.556847679190845,-72.87424375764942,-88.90927992997332,-85.98034527155325,-54.815461204621684,-6.372075897551902,31.61175245894478,45.01207348046202,46.30428380230633,51.43559874261368,58.022545470248346,54.07283691318191,40.03388128209851,29.018715208646558,25.695244384639967,22.948859551239778,17.181578134708147,10.773940413343407,3.532568427008212,-7.548611065120067,-20.883168307150257,-32.6469059394619,-42.898270715923445,-56.075465283800185,-73.39896962739991,-82.86421413946006,-67.15724805763807,-27.60991462771997,14.011914418945112,39.756550337578254,48.82738488574634,49.85064804909122,48.928539659225386,45.39021567086632,37.402589646743536,73.0,116.0,80.0
23.509717149437122,15.986121582648629,7.184271822254548,-4.710671083221229,-17.879935277395028,-28.9597882284408,-42.289286082619775,-61.54772484297215,-75.10500297372262,-64.6859991279539,-30.56851306127609,6.962725304809692,33.01456203503054,47.246527247337234,52.66866367492668,50.379877130165504,43.42027219816033,36.29102402935197,30.235054449001467,24.427827849707214,19.004801711448994,13.105762131876961,4.894250060726929,-5.6720538385246275,-17.54979402081373,-31.606156626478313,-47.40942910149762,-63.67652205332907,-79.79468899180551,-84.81425405454101,-62.006494795165,-16.836769183896923,25.261583497056307,47.07470448036403,50.528043898832415,46.19925871217359,39.676879404698084,32.270526067282205,25.48584608897042,20.279299155980272,15.641982763096802,10.704445390139872,4.391394927671445,-4.327565049816103,-13.996265038605218,-24.0831880153253,-37.02420797374887,-54.748831704676626,-73.75876356892357,-80.44128600906913,-60.125031311248634,-17.716677502749064,24.98038508856171,51.978738176786194,62.15938213370813,62.64169320343378,58.75992475616935,52.14557901923561,44.08723038938278,36.37329344600439,30.349988620845856,24.057987609869517,14.62054429688278,3.6988330044660493,-6.770438163943876,-20.066663515542864,-37.82199465763516,-56.754680780306785,-77.47950660506065,-96.87581621322445,-97.33059798333238,-67.30521983034693,-21.692736271257548,16.89754184343951,40.28975931967834,52.94724216227387,59.682488749135196,58.814285243353744,47.69613695993628,33.11195002247967,26.207063744280788,27.00319251369919,25.85697231068514,18.351529508128813,8.973517534643824,0.6618896453897959,-8.570232152900694,-21.70852588449949,-39.322518536338364,-59.231193841049055,-76.13405307264843,-78.18703644125249,-54.05787945393761,-10.723002877407186,28.26430855776465,49.13906255109526,56.15915488385762,56.43912550739693,52.00013242491713,43.97896245666721,35.349478830206735,27.66798106422649,23.02173647010203,20.974787011128786,15.754261293836752,5.945429345856599,-4.31994958416961,-14.405649566050476,-24.75849120177259,-34.92956845145662,-49.60593351790616,-72.55845297427115,-89.99717692298314,-78.07787625490987,-35.869235793729665,9.315646675206004,35.24303797879902,43.925019287211185,46.12784508320012,43.79318757816855,35.16207105126362,25.422597292319796,19.984991450504324,19.665227123485366,21.145190093676053,17.357664780989488,5.749998418674823,-6.07504349750949,-13.501858299456599,-22.007246573327922,-34.63072489664899,-48.248307035292726,-62.13527523327539,-74.096154522603,-71.33456899348727,-43.48477536511963,-1.0701099727127654,33.647184013291735,50.754021692865095,55.441264955035784,53.502701723186895,47.63051935264065,40.925823707561065,36.18767198578139,31.93486808474619,26.013393975424385,20.320302686813516,16.698205365525595,10.157531349099132,-2.516253098163131,-15.335147693971528,-25.530182115422367,-38.483747295736954,-57.607823868544614,-78.59838611729683,-90.64194587317805,-79.88470522457628,-41.476183811615414,6.837419924911105,37.85709995695702,45.71151847426265,47.09590948274953,53.75248533854599,58.31050672211554,50.55536019556166,36.00967972627654,27.487961330542873,25.171909840935744,21.531930051650548,15.291199636035426,8.920930107312824,0.772190279255929,-11.364764669320978,-24.544214344047585,-35.621850391116354,-46.18285704205671,-60.89466867579708,-77.80458664391077,-81.38096417825653,-57.42741382487119,-14.720676904098834,23.434637428983432,43.76539742495323,49.55590595850408,49.70119242322248,48.31439553613101,43.49956502765227,34.67237601047505,27.2197076876564,24.799061231438362,22.005254706434048,15.778159300722576,10.833527136991364,7.283098334905968,-0.00892178990568901,-13.256676378131914,-28.517716620009555,-42.02562456715788,-57.143559182052044,-72.7875245308144,-72.72821492185813,-44.56056031187351,-2.2389263284258707,29.04828999059882,40.56496112569701,40.89034649977583,39.92785614281524,38.41843343739518,32.09894877546581,22.352218048594036,14.963981086869758,11.198947594768013,7.444119593963072,2.3070029038670263,-2.8829361134312186,-8.859651809131607,-17.409310516426107,-27.739445111251978,-38.65867621417745,-51.76745585466426,-65.6895777578458,-71.27593087134728,-55.42152606924079,-17.019861309586226,24.51131323995525,47.450244914889325,51.55079446075078,51.32112406081882,52.000241513627756,48.010315528820676,37.680925599194396,27.741139735311613,23.47211037728021,23.081057039918303,19.138433923920665,8.158972062608319,-3.8294275519227092,-12.931028567292909,-22.745921261997204,-34.60619143438199,-47.820067694733986,-65.35085934783844,-83.61412796837106,-84.27357285163099,-54.00937092003302,-7.239866939058241,30.16597977060015,47.76071802533397,52.22071224462697,51.9692590013918,73.0,116.0,80.0
11.448040697702874,0.6905466697038921,-10.125071205253581,-24.853958558623553,-43.26927848351126,-62.4398966994178,-83.77593181006722,-99.87557961354915,-91.61247707345818,-54.5874218155461,-9.126050027986874,25.163127014260485,44.73760609937968,55.45445366110047,60.41316887446841,56.58478947609939,43.27709244572665,30.034699641299667,26.006800281520466,27.284777351111707,24.237106472559354,15.58873501915822,6.490655002788111,-1.7675587521818914,-11.868914744508272,-26.40342429846856,-44.97574771315493,-64.8192501009516,-78.90464902335788,-74.07749071175256,-42.58383146158864,1.9961085911183787,36.208059932937296,52.194238400860336,56.75612671122611,55.634400199970585,49.925890511932195,41.444985602504644,32.975377954334874,25.90855026646662,22.369840784867225,20.03289731547229,13.221641033664623,2.8980104003372666,-7.186456467021036,-17.42054993895156,-27.63991098254726,-38.368113254483035,-55.56999188559282,-79.28609808313475,-90.3027135741747,-68.10442275698406,-21.72145891283275,19.119120669044076,38.99424015537749,44.920601501332285,46.074533531236284,41.84599907834797,32.1349863833218,23.29743905805333,19.428571860144253,20.175482279508753,20.90454585783443,14.613228952486082,1.9357381896329344,-8.552142449987967,-15.548635159236103,-25.322837212571134,-38.59291300659634,-52.17585846590534,-66.16055485203857,-75.53459813501956,-65.84953932263872,-31.739338937697678,10.574443476210694,40.330547966183445,53.044535895814,55.41552925776301,52.10322531911036,45.608082107549386,39.3290911910161,35.06084887486833,30.389250030657397,24.18335164172172,19.144991046109308,15.432792276485651,6.978990093179799,-6.522736026902183,-18.397487632347634,-28.71217253880696,-43.41698982414792,-63.854653874739824,-83.60463928146564,-90.41979361194853,-71.3081058817818,-27.226324892261722,18.431917520379102,41.99451630316665,45.91764314467925,48.48349086635475,55.91314715387158,57.44225548341767,46.40675440775611,32.60321188253577,26.532860209031476,24.476176485691173,19.86954998076921,13.430424931099335,6.926092929858774,-2.3691642086167084,-15.266046770383648,-27.994877859488874,-38.52523077059953,-49.85538234231751,-66.00865671141622,-81.10042036973056,-77.41586950206636,-46.024249296684246,-2.296387992370123,31.245739017166873,46.52884769401396,49.851274386092285,49.47152274226707,47.403490092075224,41.22201694595376,32.06486987986776,26.0976726173041,24.36352979910303,20.404712542508996,14.039941518536425,9.868164193265814,5.7696920187635925,-3.291824597924633,-17.735292489838542,-32.56535203373287,-46.01938135442636,-62.0732135297126,-75.29751918581582,-67.39289767942468,-32.58891442582604,8.764820397028409,34.22725640618602,41.26040377459346,40.51069291928509,39.74759355019467,37.19000067990283,29.37464935164304,19.785223372850957,13.622588047435109,10.274732560422164,6.037932032965651,0.792902044150938,-4.436184070675814,-11.033995533128502,-20.31463103062781,-30.792364901109323,-42.15959525759535,-55.952465308617334,-68.75872022570267,-69.3422538883937,-46.11496544666924,-4.165549436223179,33.567060416535796,49.97411531950323,51.386314448552596,51.58676271396615,51.589098182351904,45.48160705179202,34.414451033566806,25.86782841126813,23.22166972844768,22.657480216718607,16.546370381336555,4.458375984895308,-6.6776119816859705,-15.510932887762953,-26.04536416133328,-38.20197745150861,-52.32581921937183,-71.13351677795359,-86.59189272960535,-78.61875045516159,-40.967125837326044,5.4088251816659,37.20418945199222,49.91859820414038,52.443380281542574,51.36021272686559,47.0079759128824,40.24862143827766,33.71616687921728,28.37952777801109,24.47984050811577,20.278350933895098,13.891689423249701,4.947599285425988,-7.103335233711693,-19.210806767396413,-29.59589985052021,-40.81402395645907,-55.106933574940435,-71.44819710017482,-80.67944465192937,-67.24146199006907,-30.133971830221455,11.052701509689406,38.651282021927614,49.59649887557077,50.62423798389772,48.65137318858967,44.09694890295761,36.24254853352351,29.204656485662053,24.982944924764542,21.49260715142795,16.796207164449598,10.392672656361507,2.8382091809267194,-5.8794244403932145,-15.892169153513622,-26.186912742195336,-37.531300882764846,-53.15780629038097,-71.32806220231454,-74.46121974698214,-45.598230810308245,1.4227040684209618,35.509374453522625,46.69680415843136,48.41768610679141,49.78892960957505,45.697728545582976,35.269248441098235,26.819058389279288,23.192884810986275,19.68499739867604,14.985370774923773,9.998455438237059,2.5862461351293473,-9.817614966555475,-24.454430761495434,-37.087382646563974,-48.3903155238084,-63.39888539750148,-80.27450413620087,-81.73030394772753,-52.48426413260447,-5.283392156029685,31.870941567813986,49.86413598914663,73.0,116.0,80.0
20.018649489541012,11.262583265824336,-1.6290950548662848,-10.671728979556244,-17.884549175114266,-28.96242403811671,-42.53721702293804,-56.173521862022,-69.89027112379873,-75.317623576604,-58.15404557005178,-19.275834894585657,21.035930888278592,45.512454842282395,54.502893396756235,54.930177147186264,50.426249609731,43.61129627154444,37.94005704739142,33.88626737853513,28.683321992096555,22.464154321181425,18.145816104804908,13.718740330216866,3.3141728150410694,-10.328691455700259,-21.283638539897986,-32.29942927358525,-48.88282529206404,-70.08040661635043,-87.54925182853404,-87.94245585738228,-60.467102785418966,-12.836019520118395,27.970901759785534,44.37559318305295,46.11203112892126,50.41491311894076,57.543667513437356,55.389183406700354,42.02229223364816,29.96711216986397,25.92543166764293,23.50244271512915,18.048503297491987,11.60983862956531,4.679125480590661,-5.851146402646081,-19.136632213637466,-31.224979785820977,-41.479851535138515,-53.99998045958636,-71.13657032583473,-82.77077441330377,-70.94124945613582,-33.546153303219924,9.162049699434515,37.42961598245169,48.28698978782013,49.88692725713621,49.13597249606467,46.12053836070187,38.64937614156024,29.76303331560639,25.401692876331555,23.679394790420837,18.560342505715813,12.550799711266137,8.927160229291422,3.8072676174455813,-7.069546746636762,-22.221907979113553,-36.43775859994848,-50.301199567453615,-66.88548477702574,-75.95073611309694,-59.60017571134248,-20.063139008242164,18.28194940567767,37.77886606989156,41.33240985230373,40.20716587862661,39.429147921001835,35.461376843411955,26.49037960263842,17.55151249790689,12.542171216325675,9.239621062095091,4.542119889873821,-0.6996553954675231,-6.101554039625908,-13.460026716584169,-23.308858699084638,-33.897739040403486,-45.900350400148824,-60.111911934866484,-70.82505885527138,-65.2964244434992,-35.105683212836226,8.296501667233589,40.6523513031885,51.19603317896159,51.23398022324725,51.88550216359562,50.60697817054874,42.48571875174814,31.398342498742608,24.532969280575507,23.183180081381465,21.711214725353845,13.39207520781658,0.8897196210224076,-9.285945479511124,-18.281983450282056,-29.47233299502934,-41.92711292149037,-57.30300136757616,-76.74543018539048,-87.51575180324663,-70.26373798167532,-27.192283030672773,16.692651725877738,42.554248109425316,51.25522435536195,52.41569862885948,50.468233389881256,45.17491657505129,38.26470753168669,32.02941969223957,27.13013279789104,23.423903417294795,18.670724948849514,11.617537595450784,1.7283541392466586,-10.779620266099654,-22.31893307044932,-32.61401115269369,-44.587030000789255,-59.811408637661664,-75.53581383503008,-79.65241387875236,-58.32950147474672,-17.628049663089698,20.829165216739504,43.33635620644589,50.520367060292564,50.21371934558429,47.71223184173681,42.048341633498076,33.92601574519265,27.751356763337597,24.01160281197341,20.308935000376735,15.107069129635411,8.303479113645563,0.4677653357072104,-8.676914310302152,-18.865151450793125,-29.24041121661172,-41.46634051433281,-58.602896741901226,-74.86295950393888,-69.50136866619046,-32.45331438182379,13.658546966888736,40.73669198036615,47.442829517661664,48.917937001591454,49.4564838515335,43.034571387361495,32.277281477490455,25.443410609975803,22.342670678613793,18.382519584319873,13.598928377443261,8.274067762920794,-0.4894100853768451,-14.05522028779914,-28.39886345154213,-40.29974874358193,-52.15638519166719,-68.58337951898262,-83.27604974351803,-76.50274436014541,-39.398008756768235,7.416990453295422,38.7949682214835,52.60453465094101,57.15797939064798,55.35391813246857,48.94014395625519,40.84272329235993,32.493730322774226,24.244475779264523,16.756664275247125,10.88234736196482,4.9088795827940475,-3.950136448896316,-15.082554181893537,-26.404941960191913,-38.857278588434,-55.97672416751187,-77.70602405782388,-93.44983419183933,-85.99454184445214,-49.33737147956832,-2.17273053505053,30.460900964787168,44.4297960435431,51.43999762482811,57.61076809592703,57.285359457392005,46.46020508720889,33.30499987415626,27.56704068876886,25.824084418906548,21.702782787164978,16.450099659096455,9.650891822740126,-2.215200271304235,-17.412562154497202,-31.17107541588125,-44.47562702435475,-63.45189151614327,-84.45374077598333,-87.52766897325226,-59.02246561910246,-11.91946195973937,26.75790995824582,45.00982689765645,51.63996122457633,57.361411461917896,60.61908024951565,55.62217677493253,45.53660726475873,38.578352327028796,36.671993092018795,35.00507168375524,28.652303165783856,17.38049839584925,5.638193768649677,-5.120701394864301,-17.256542993825366,-30.40537758813095,-44.863285037760846,-65.71149609870875,-87.70822973394277,-87.92168886772365,-55.48489081943754,-10.65915696818703,73.0,116.0,80.0
35.92763052479529,27.9056577429171,24.968621142952173,22.625166317687142,16.640747842019458,11.324516403115446,7.859487011948316,1.3221770936623496,-11.24020682098278,-26.577864146985803,-40.24808669807896,-54.91784734337253,-71.14950260237818,-74.32262743352186,-49.69426115337026,-7.701046917220096,26.066977190921804,39.94834372842071,41.063701756926584,40.002317698849254,38.82738881535003,33.25444421306751,23.623144629903834,15.694443335429026,11.611190179850773,8.047558533876085,3.011959743338042,-2.188397568865272,-7.939526250746491,-16.118161812637013,-26.338379600403318,-37.11723297681688,-49.87272191157734,-64.03435713328899,-71.51843302691601,-59.0383527273044,-22.89084949398221,19.732913504419432,45.73766078819206,51.556341557932825,51.247978568374144,52.03550892955384,48.978915333921485,39.217740185504354,28.783342953399565,23.704342328953334,23.154077995757174,20.110521604049197,9.857144906570818,-2.413328106652884,-11.779806434733096,-21.285840342214335,-32.973305967458955,-45.88427745155153,-62.731514328878,-81.70336241568967,-85.93077920405929,-59.573272517259085,-13.410889493114189,26.32263631030273,46.41292422633733,52.01307265997644,52.16370420119793,49.273177471004864,43.20377521262921,36.35295156476114,30.452548793954975,26.002727580160975,22.268384494237036,16.865098069357437,9.111985918974234,-1.7504285425005217,-14.339710538924143,-25.300831806635156,-35.78440750236709,-48.6530383392681,-64.62765293050545,-78.68996511952041,-76.34099366093922,-47.67919911919473,-5.385102491415216,29.172881047434757,46.69439853490553,50.839338925925425,49.67478246598088,46.49206457682823,39.75599129408245,31.812076921628247,26.51986383997413,23.033796010255802,18.991058791733685,13.277525296900208,6.138115036499772,-2.0166347241626594,-11.570690786583276,-21.832370627758177,-32.43148050631059,-45.86345069380747,-64.1114581006392,-76.52552630836001,-61.62585250923477,-18.51497699901664,24.085491262980707,44.14207315770475,47.85361811894437,49.42865618026913,48.457166916263596,39.962089440522796,29.689946736802963,24.41347372152392,21.371515059527024,17.014706495169897,12.195283987840682,6.254445758470263,-4.016092426301868,-18.34643773918263,-32.10002362407992,-43.47984951946459,-56.383215808979486,-73.73932087121183,-84.41576500036152,-68.5005920945099,-25.469370376390938,18.630034544964754,44.18756619131415,54.63403283349368,57.25297491761556,53.84093080758791,46.67133128859102,38.43560415473873,30.085398338885025,21.951956126008234,14.898667557455674,9.322022496723331,2.6942899595003693,-7.042554512748884,-18.37382940171243,-29.745513485199805,-43.18236873673811,-62.021980743366164,-83.61457861204282,-94.35185907981474,-78.03187359949425,-35.49345096608004,9.428344596501947,36.00203806781761,46.64491758999781,53.401425156390445,58.547626918190474,55.10518979105869,42.30862361074422,30.771174172952637,27.05925684433121,24.931128528640045,20.192026328849813,14.821863092216446,6.808451198159541,-6.503695342631964,-21.651430208618432,-34.81016323331093,-49.18304641781759,-69.98659228404134,-88.17885304275356,-82.4990019374662,-46.129907174546034,1.1288553016306493,34.01665978212075,47.48674066814089,53.20336488441835,58.891826504317386,60.08995334158179,52.85604630136178,42.93309313893908,37.65690567681869,36.42725480567692,33.785461553879166,25.74179118376036,13.848815764773896,2.523341355201506,-8.419444778396603,-21.042946496446618,-34.257471166547774,-50.0754325797305,-72.75357384309129,-91.07342856353247,-81.49806421039506,-42.47231127468791,0.7177002697282691,29.292688374989424,43.70613215743008,49.307935815838306,49.00453182292793,43.983333701438845,35.41296198237864,26.930594532190096,23.93605169939511,24.405089829770862,19.713440544678804,9.049419575589193,-1.282366562594572,-9.420896851695462,-18.63459717377861,-31.054856676722306,-45.12597105249955,-62.52657159398581,-85.63178667178256,-103.57702751029404,-95.58398933474614,-55.70787555944166,-5.712372590718155,29.263108354945192,45.24333251115759,52.6993046226232,59.12422756154524,60.22562164996089,53.18797147843402,45.12418310258358,39.725377823243825,34.528774707793104,28.517603696846134,22.198183982413624,12.562459276293579,-2.3375293679122446,-17.931759400821697,-30.638843715442828,-42.10274014687999,-56.29915440782567,-77.3141996012891,-98.16153783744635,-99.3236613124525,-70.53096666346002,-24.06514270745509,18.59163829486403,44.16406598332313,54.6359104459137,60.559228786393014,65.87914288541508,65.51090904423549,59.33846650818448,53.93712250160328,51.06897488320523,49.371349264011826,47.51740987875189,42.05552262046339,32.84023081192667,23.602783074685583,13.687828675788028,-0.5540614371432998,-17.84388430627821,-32.7709247172464,73.0,116.0,80.0
51.674270547463664,47.783303172189314,41.17960842338224,34.527078024891416,29.00203069945188,24.954311214088403,20.950952022841193,14.872685303057526,6.331086954493811,-5.397912536904048,-17.718905192574386,-28.23523372376481,-39.16863732169621,-53.00903370287716,-69.36519249824661,-80.4561535986372,-70.64607874207636,-35.83208495221512,6.110663822606826,36.006822095639116,48.90519930079143,50.754252738576895,49.01104129674964,44.93376747952516,37.34991010955169,29.96300153461631,25.44518368287552,21.99954305779687,17.524225742763768,11.326738056644947,3.8984292733802093,-4.630180450006682,-14.522452623590924,-24.805203170208507,-35.850240923993574,-50.752508580776016,-69.24320874878778,-75.75343231286271,-51.148785567578045,-4.684244768089143,32.4045803922041,46.12997287062723,48.220110437202,49.7597824622912,46.72895580469434,36.73553234179315,27.606590140909525,23.56634150873295,20.249512741544482,15.625569044835652,10.722290729477864,3.846365812748631,-7.921326429673795,-22.563442682037163,-35.5608735914167,-46.78157446491212,-61.0903021742267,-78.4224425830894,-83.19241160408595,-58.013804335088295,-11.515085832554043,28.104635106899707,48.313590602045494,56.06118927401624,56.83034396907024,52.010738741897356,44.32946903935218,36.02172756566608,27.69076989824272,19.747985854718262,13.191626123954656,7.670113899512013,0.18972239781268374,-10.268642988091482,-21.638514384422503,-33.24608641534055,-47.99711031901586,-68.38042100012699,-88.64574043203561,-92.87724214262455,-67.69407449489664,-21.477312311227568,19.31030294752015,40.148964315368204,48.618893277399835,55.30436598475311,58.71606575156643,52.0481652903289,38.292855304958984,29.00546154013272,26.654055626210404,23.76077256516736,18.676409113594175,12.979203144133631,3.468417426131567,-10.947926720510354,-25.668536421728703,-38.5206904502882,-54.538577697574596,-76.4108384682401,-89.80220317741245,-74.7034223486388,-32.28733716539728,12.813550342665057,39.53300069574939,49.35467094848343,54.866439153764915,60.03806321390412,58.77630274306288,49.852836865088655,40.78595098922446,37.102664804852786,36.05464596523604,32.073727971777416,22.48341018767699,10.408427521820327,-0.54479198829016,-11.895176812683928,-24.852225549377835,-38.288336907313294,-55.978777191520194,-79.55529960676844,-91.93181401944194,-72.39962100820978,-29.183271122499626,10.720979207385918,34.64827707816068,46.051063563673026,49.756171416944184,48.00351001861914,41.782275552312015,32.694763617239865,25.363583513747994,24.095842624731784,23.854846359860833,16.987557978735165,5.804044896224712,-3.7651843977480226,-11.795184949116404,-21.92985800083506,-35.00246906669543,-49.59210784165503,-68.76476264596613,-92.23924268506465,-104.72110256205642,-86.82171201443833,-40.927417030126065,6.555604318753749,35.49015063003713,47.74013935032717,54.660243801885855,60.323136045495254,58.82700657074721,50.615766477740856,43.36071708121455,38.31579877957279,32.83408221699938,26.771798667108737,19.95597018377528,8.694784338272324,-7.040381314752011,-21.895679693094497,-33.942227534296705,-45.688228428479064,-61.65078169621718,-84.10835740789534,-101.37411495817045,-93.93070897117002,-57.96168923088298,-10.50167336320099,27.9373566690986,48.30906247385831,56.40224243253215,62.306575010400095,66.57836444773542,64.04640721848756,57.47997950791313,52.919514048449635,50.48918675302853,48.97569196293069,46.44882837447913,39.61136270804471,30.07384728520482,20.988812506279956,10.097482255560186,-5.463255082358628,-22.59316217504142,-36.30354295924499,-47.343757419743156,-58.65998826523634,-70.12682258818995,-81.82706379910609,-96.85424335203957,-107.50398223101085,-91.58715094192395,-44.092281582110346,8.21880353717139,39.03006058307153,49.91624062589105,56.08962829366462,60.76338666517489,58.08223393331306,49.40278337819619,42.00568566619497,39.19663490986607,38.940597099075156,37.74848915852455,34.928029935510935,31.023018964518037,23.929132293151685,12.726329126513027,0.7429268677233217,-9.557986982866474,-18.5450465997451,-28.10024637701732,-40.048923179758404,-53.699085719083406,-66.9975369541727,-81.42497869651649,-93.68897564057269,-86.61151383051039,-51.439738320807606,-5.7990760770566325,26.68110780150667,39.894402098191016,43.41383748311719,47.57442390616316,51.573973034630235,48.05969319950755,38.424855434672175,31.99603807999313,31.611217512440813,30.977047272329045,25.963995544834674,20.11381049951211,15.891615725145483,9.775658910447344,-0.6392739694294902,-13.135262375433065,-25.303670179397113,-36.225519646941166,-46.18310826872221,-57.8603145625415,-73.02916624536076,-85.16670020052904,-78.76344594845297,-45.718002244912135,-1.5411644542165246,28.494615146929654,38.99557864722092,73.0,116.0,80.0
51.4387065654397,56.93569790658835,55.921899595641904,49.94782495482522,41.94819153018012,33.60643726162753,25.32241967439261,17.666738513237785,11.597482048105212,5.835971581298389,-2.588558582570944,-13.559705518862108,-24.89415756056186,-37.006878499201505,-53.33992338812135,-74.8082726774907,-92.33228318545758,-88.78615784066331,-55.45118600666465,-8.016684365051715,27.355617344694696,43.25083953420554,50.543350974738296,56.97729869302328,57.96356784755798,48.322946774997966,34.72902719267499,27.904313621110155,26.139286717744625,22.381735794473077,17.16166022926919,10.799065495135675,-0.3324329230441174,-15.3966344298765,-29.47182878965479,-42.49724151892744,-60.52373138481202,-82.18088784222579,-88.88492062404126,-64.4461567049695,-18.252309761758298,22.785333332845738,43.56148439038585,50.93693188339988,56.58585722477596,60.59982126096203,56.7535311717733,46.854286068200764,39.15700311694402,36.78178486585776,35.419369592868826,29.846427394966796,19.01263761130096,7.110449994413108,-3.652250656870288,-15.535527411348985,-28.652134819956483,-42.67228639401545,-62.528251025638085,-85.4731241652922,-89.8870725059125,-61.17862072152763,-16.304768861379877,19.273962577033192,38.96520372542323,47.773078660078454,49.75631440939834,46.62720354774032,39.31852928399936,30.11245849775835,24.383867583246,24.36638175977341,22.662706001332513,13.876553204634202,2.7475371769289407,-6.0956752024516465,-14.368981981068476,-25.495923627973216,-39.02812663609758,-54.45638366723329,-75.4823985457927,-97.9740848103494,-103.16619948194756,-75.52934682309741,-26.075347049187204,17.10477672704136,40.26482658671392,49.84727294064616,56.60779506794435,60.86248145001342,56.801296998909,48.19183922065304,41.80503128498359,36.845484170129254,31.086514840978833,25.002941432912007,17.3112341619647,4.404627454344937,-11.634664257506529,-25.595061341153553,-37.21049754819261,-49.62364840280962,-67.65521050486713,-90.54067821971661,-102.40172319456228,-85.99869583726404,-44.41955512436804,2.2273594239966723,35.66671353034359,51.39521113652157,58.066901066879495,63.96787781252634,66.6334967311889,62.21986199109497,55.84773037098907,52.07857447857554,49.98811034289143,48.51777570592488,44.97394936224704,36.92814560567749,27.394142828063348,18.22970611993642,6.067470780269869,-10.521734676691867,-27.00442427300357,-39.599310118521984,-50.53209581376668,-62.01798199208941,-73.3602660065097,-85.78243098301479,-101.26425174594783,-106.51113062976836,-80.38034038265896,-27.921545212724208,19.82329788678399,43.52334846412478,51.7062215402817,57.84868550115066,60.90065514765698,55.87476640577839,46.86736647207873,40.73255963815173,39.035397521482004,38.791174944529885,37.05448178294485,33.947994661754734,29.43165860883483,21.017284049040647,9.17460699911244,-2.432452171334031,-12.224117537079769,-21.147853358041672,-31.26910435660377,-43.93265341828152,-57.59145643814608,-70.94262482108248,-85.74950614759572,-94.48092651050239,-79.00204422537647,-38.113985348721904,5.621166673215316,32.23512208848809,41.325623785511695,44.332059462471584,49.08287320159471,51.53268151616194,45.51750248389312,35.88736567179117,31.444313305025176,31.78240049212538,29.9367752964504,24.12084081336623,18.811513442933062,14.517329272345235,7.172535071203586,-4.178290663580134,-16.742383527586036,-28.60951901553825,-39.12861032130817,-49.22453890271139,-61.95519094562155,-77.43349290355201,-85.9299896991553,-71.7404119803875,-32.88059093317303,9.374358748117247,33.08769896198425,40.24452311799939,44.25063428191442,48.37715576518148,49.98152441212725,48.03653705612337,42.853803843854976,36.91331288982455,34.11447015857184,33.49438388444878,28.721989213389584,19.522806971666988,11.846884746752236,5.4074326398290955,-5.39324428644125,-20.383465490039374,-32.141878413646786,-39.84131323509068,-54.1157645987695,-76.91089644607152,-90.14279657039067,-74.41036004039621,-33.75514537135811,7.252410406767171,31.32914746109514,41.474837076714266,47.61352342683214,51.67574589710408,49.55759311520151,40.969866347045524,32.1395605351042,28.214879378989156,27.829167700399793,26.239996297577044,21.053353122432178,13.166508372614688,4.861871528376628,-3.329763292784723,-12.320533294044512,-22.635367912779643,-34.52129596058887,-49.42019772603278,-67.95931279195241,-80.57658986481488,-69.041056166832,-31.03744583106879,10.030683597863284,35.10714617225496,44.504444995175604,45.168541079143495,41.40471324706783,34.534681645716795,27.41168733110443,23.01432496574293,20.3073378261338,17.66498648572873,16.008470148985307,12.950703061084075,4.67898126534342,-6.448749937440829,-16.830531143210774,-27.859593847596962,-41.156482580609534,-57.490435901697886,73.0,116.0,80.0
-4.3675788924878916,26.42991514385725,42.39095413150427,48.941158327903175,49.33491025081845,44.89496452453897,36.668668804336434,27.834199441379333,23.96842832458982,24.47789756631906,20.790959656118698,10.579393630500963,-0.06683464017946936,-8.365565393303045,-17.217817195649236,-29.26730512944289,-43.16119056307446,-59.84495905604529,-82.44091298183871,-102.25419722412431,-98.66500917462689,-62.278899180086405,-11.874487813909889,25.836731000822255,43.87917425152094,51.80407570225584,58.40330738093551,60.6146371512003,54.373225703876415,46.02610960345836,40.37043251182703,35.28234441798119,29.325881062175714,23.129162642965046,14.179596273347265,-0.1744216219654338,-16.007840381702284,-29.08320311477496,-40.52837993036372,-54.05449563849249,-74.19047763832978,-96.07152577923007,-100.9097708273021,-75.84194245426214,-30.476247550470816,13.756123977184895,41.82012499347506,53.728711480914484,59.75922524054411,65.37119955564741,66.01091510607831,60.244158558791234,54.480883226174036,51.36478872231474,49.55518558057499,47.89323062194806,43.06943288342624,34.13377872065594,24.791989989434366,15.202993704428504,1.6187297075377953,-15.566945087104033,-31.036014079661044,-42.76434148828964,-53.791742278028046,-65.35061017891074,-76.6529737122047,-90.11757672634825,-104.90654541964813,-102.69065931747033,-66.76649304413436,-12.246016329940101,29.1995010800314,46.69611625816939,53.454216761755866,59.37499892979175,60.28094132845626,53.31916481370619,44.6149597233222,39.861612493136214,38.99440163296779,38.49034193745339,36.246533468481054,32.87857777188788,27.48779851610814,17.79156477664271,5.663888527516957,-5.44020861756243,-14.810285765438955,-23.85314669718325,-34.67507946561949,-47.90189426153603,-61.41593386573071,-75.07741894316568,-89.67628697551346,-93.11544509967139,-69.08295022053927,-24.580950370732428,15.460227952945523,36.248261955335416,42.27571919557515,45.491281496494636,50.41954808563986,50.68733980776668,42.64426544553546,33.85926599133371,31.343194930172686,31.727077221555906,28.50934695316504,22.360489233181074,17.629806571826055,12.861239057211145,4.204225494401277,-7.805671900932836,-20.284406399197987,-31.794669625912764,-41.97522399338159,-52.50226495166876,-66.35147869073096,-81.31300619467092,-84.70240092126731,-62.47426157754801,-19.749993547804333,18.54361103775939,36.216375784739775,41.332236582016286,45.54877371055069,49.18365171501451,49.7900972444223,46.81934766173375,41.03265495178619,35.66920247431476,33.9650889719162,32.76761782732764,26.259071433547522,16.97240240609018,10.098958812825778,2.922023228106386,-9.567508862360533,-24.416832514693308,-34.42935103376515,-42.81925136911896,-60.30975784589491,-82.80715263557039,-88.96619348729465,-64.31874144972373,-20.803884951216112,16.155769051664667,35.20288499842646,43.37448062449695,49.151705677585355,51.86035557411672,47.5441640134715,38.118154056761234,30.433168399915605,27.94657213759599,27.671316732025637,25.124169492842228,18.94882997771983,10.736143467520849,2.5182392965160916,-5.807987291792543,-15.158505411451795,-25.880647415295222,-38.408756598134275,-54.55311537692233,-72.99233931579077,-80.39289882638563,-60.06771728267939,-18.258021199398183,19.192253904801458,39.1349626721399,45.3128623183869,44.46410528958773,39.66422008794653,32.32374690547247,25.82396654615572,22.18300420113346,19.516376119209095,17.07355621001501,15.505689434786197,11.119446399281278,1.5281951875744284,-9.548766302684411,-19.827460938453562,-31.45432515709676,-45.50625141182703,-62.828309590186926,-80.23301589933843,-84.2740196398455,-61.9120058417205,-18.47599971320238,23.69646712734948,46.07464471778184,49.94688554405127,48.79048225129157,47.42395510795891,40.82814122386782,30.11428230533914,25.071290231957374,28.10706619820479,28.665127664546144,21.05593925826258,12.138357752695724,4.868056443475837,-5.5647385923385,-19.863196176633807,-35.75573334145413,-53.84820446651011,-75.2112789213263,-93.56964739389889,-91.1036729920579,-57.16320918289869,-8.317541129841183,29.270576573032884,47.2938317241734,53.771630854868505,58.36525101865528,62.13388065729875,58.85516417110534,48.0349095044662,37.56429079169881,31.334438221394407,27.881719723871257,25.123398558023194,19.985343398430615,9.593994819019068,-4.4496470604149625,-18.2811344274857,-31.925446829457176,-48.03864620220081,-68.11516071820597,-86.66325922558582,-86.46947121610911,-55.67931040519526,-7.949106497330915,31.17729492577156,50.535469790282335,56.22525164975975,55.29151874251058,49.685980852014055,41.793950386482834,35.66532075158616,31.19735887171006,25.016971878052836,18.45082151504071,13.472291406167272,5.463339439371426,-9.570201201405919,-26.708050978120138,73.0,116.0,80.0
-34.7104907657104,-45.893450506294904,-57.11447709941861,-68.6312754888111,-80.12766456323804,-94.71803554261733,-107.13579202397372,-95.79772624159712,-51.47177118327283,2.1664151679888253,36.388533071987524,49.01581554658607,55.25212209473727,60.46221383763753,58.92624155124604,50.63076382354622,42.73425616141881,39.340568675046455,38.97077651214421,38.02032947719031,35.35846345145297,31.658822828838545,25.145319305230444,14.352627550295196,2.262202052846583,-8.290690879072567,-17.36403286780744,-26.7149332956731,-38.30788772260091,-51.87990889088871,-65.22370216436774,-79.39916183245079,-92.72760407435078,-89.26365959275572,-57.318357435664154,-11.508913036729576,23.549073488571466,38.98067033986363,43.04823762120254,46.882258518909566,51.34631828447309,49.05022400592426,39.717266256508324,32.440692024156164,31.505697038006883,31.31123952130658,26.803694545690167,20.775742837502307,16.46071630643302,10.841420071790543,0.9408846587290753,-11.457164463982771,-23.74233438803308,-34.854611476976935,-44.83563908719204,-56.08965027725509,-70.92103282260385,-84.25212683462561,-81.19288835981827,-51.336057992812194,-7.058648485506076,25.79248079141136,38.28368173237207,42.44835384145951,46.80295816303453,49.72122208811884,49.29671220057422,45.34670430544608,39.23993528555703,34.78277843766672,33.887588319343685,31.52082970154998,23.542421921593295,14.694834804977752,8.343527310747724,-0.07201507773513346,-13.979188543319237,-27.96291547994209,-36.50597309828631,-46.6771619857808,-67.05853905719351,-87.29283792816139,-85.01365259682154,-52.549231632895946,-8.518221845009302,23.42567542048907,38.167768926501815,45.15087647716412,50.45675724496899,51.409892577010275,45.065094754491554,35.439433416533454,29.210698657312847,27.871567470180576,27.29778780241144,23.68645813001449,16.66936254621453,8.325056415269286,0.16945633969202237,-8.377208173655843,-18.111856480380276,-29.26386753066096,-42.60817287818301,-59.97172955966971,-77.15180478154656,-77.71473692006036,-49.136368943739846,-5.966337443152338,26.771194525531175,42.00421004564456,45.56625366708314,43.44244495340122,37.69018389711867,30.19199645804982,24.51102992231065,21.42000281320888,18.723792249922557,16.601499636174438,14.756664668240626,8.799392847509683,-1.7321943340857482,-12.5399649462336,-22.958449417776194,-35.2440322254269,-50.14927255939838,-68.25848994292605,-83.53681485672774,-80.73657186428211,-50.71884310714894,-5.068231609245642,32.55799752953283,48.5373028188441,49.6216228424799,48.582326837269356,46.24277321764079,37.787174398359355,27.67255371148455,25.432660248366403,29.060102470781448,27.137980428994187,18.261149126807435,10.037890352854397,2.3525974511572327,-9.422132542525848,-24.327784533267284,-40.668996743773654,-59.73301016248516,-81.44805865856621,-95.87046460704215,-84.32820096484222,-43.288722729785604,4.5067799356285105,36.31322900952674,49.83974971259861,55.03287708211209,59.76538521003813,62.15880586469066,56.21592126068896,44.64068361577123,35.35488759462157,30.138836007887623,27.12231697502879,24.049254520963267,17.562708500383724,5.714278884580723,-8.561329341028328,-22.13541349044696,-36.2121827956958,-53.46304836742753,-74.20268617055659,-89.42295335184082,-80.61995327406262,-42.463224583651574,5.15736278853568,38.73435709072121,53.158892267336725,56.4900338351852,54.10357684424881,47.45619307700185,39.715458535731656,34.37299079316946,29.647486942855693,22.98409391268582,16.928774779960435,11.780024669855385,1.7874947586834529,-14.684210398113873,-30.925301910556705,-42.095766020363094,-52.89041545563785,-70.67683405597302,-91.59065730514149,-96.07071972142278,-69.18848760601031,-22.283869624992032,19.189535398535796,41.347734261394336,48.35009679325506,51.28830899653217,54.572124946460995,53.01663274609182,44.25624090221964,35.06928762792938,29.896066432591915,25.75665279095449,19.6910905347131,12.451141635626161,3.1117120853499722,-10.254154716763866,-25.521785228971986,-40.49352515250482,-57.043723394429904,-76.1549455464484,-89.51879258212682,-82.46641491050596,-50.08900823374244,-4.9083282324374435,33.487218664941864,52.78826514383884,55.69183583331168,53.546259486649625,51.92256798718782,47.880357606796615,40.698956700876195,34.11253196500775,29.002035670682382,22.688301041538885,15.819701378875054,9.934863367869298,1.155526528971868,-13.622254117382603,-29.90266342175272,-43.84509869636299,-58.66397443150951,-77.93225664381784,-95.84170443604758,-95.34737906396894,-63.13240084075138,-12.12858120488645,29.06778259462908,48.054681059835026,55.358757364990076,61.79810080272721,65.83573202215375,61.55576480728442,50.23806798051388,40.14590015129814,36.31802865357126,35.01322697176673,30.27406399237886,73.0,116.0,80.0
39.70491628730517,43.6621855734405,47.924954089710354,49.968255526857526,48.502471298330676,43.67262930950944,37.59260163495287,34.25420524183096,33.685056795316626,29.722241926145223,20.76940106014719,12.694137507727971,6.4073284853857775,-3.600350837360876,-18.404050859005185,-30.946899300854827,-38.6956504588082,-51.5410663671706,-73.89058221148642,-89.79193775694253,-78.33639668497499,-39.78023996894701,2.6086657622739504,29.153224323680128,40.52218580142071,46.85601050188785,51.3996514058435,50.29131931919098,42.2931506126527,33.084841908089466,28.439451367620165,27.853962897732377,26.645341297292266,21.946826518939417,14.283940747568057,5.947693971991622,-2.2126720954276835,-11.050626362138862,-21.180880779908723,-32.814988123008625,-47.17939391495847,-65.47573710883563,-79.91673273647392,-72.37966183186862,-36.906473594467535,5.293216633028007,32.80929562958532,43.903913090211944,45.38023932309117,42.11552298790895,35.551531945382536,28.234767757182702,23.441846834391775,20.66363998951277,17.978192835430846,16.198492300360613,13.626946797596611,6.056215119697521,-4.979937417093168,-15.474731291760866,-26.26821194927768,-39.23854574410203,-55.10570357969245,-73.532498535464,-85.29289238695873,-74.76871765402491,-38.130805905879974,7.594849866988595,39.45570951746854,49.712607645818416,49.22481240128784,48.309794467609315,44.470348040333135,34.559537661468525,25.984181319509222,26.36588571458281,29.459890725912604,24.9533518819511,15.597514883224042,8.019591368638253,-0.5635520463611119,-13.539726849125394,-28.884764474615935,-45.814992676023905,-65.90659098025428,-87.1617218104116,-95.89637075111479,-74.87531068502489,-28.86139088173827,15.8332342701524,41.7515457946708,51.70788963727098,56.33073710460175,61.00729807800374,61.4117011856759,53.063189282701174,41.498244156643025,33.50438746286841,29.1254236091862,26.368476444513224,22.68508297074595,14.649434540948041,1.631678484961746,-12.576859585417347,-26.025297437418285,-40.77379929988454,-59.23938642118233,-79.92179668048003,-90.08142695480393,-72.12016399316512,-28.435136121667913,16.943283434719678,44.59744185238439,54.89388817047591,56.30733358327885,52.54071059876628,45.126744799417466,37.88440433126232,33.13980692794298,27.885069832640674,21.021089433639197,15.538918435288274,9.649047071305283,-2.4985064715594216,-19.765075442256748,-34.641056750979196,-44.86395817614841,-57.15282138502776,-77.03906235816095,-95.59694895249967,-91.56059340521186,-56.584572724025016,-8.752871240765394,27.67333848201314,44.43958089894223,49.202022929975314,52.312191893835426,54.91792197404843,51.038342574492866,41.288593095653766,33.198582982192136,28.796598475111463,24.216819785581777,17.6743920052654,10.104649740552917,-0.3532783953952818,-14.631854381778151,-29.863748009147862,-44.97187021043702,-62.44766475503498,-81.24495181935261,-90.13236310374965,-75.44560818588127,-37.48760160709708,7.672638902850757,41.19703661335358,54.847024709028794,55.13353177408729,53.066805604703084,51.16522370703645,45.98963923917231,38.58342715817202,32.59573406949542,27.375053529963534,20.621886935920955,14.089942876312797,7.9512082972574,-2.568455585626725,-18.467135387783337,-34.144804650535036,-47.7873989386943,-63.79490023597049,-83.82536588637123,-98.4899446954405,-89.30947019667649,-49.07421650875252,1.8599763932824134,36.65705197227212,50.68124547778667,57.1547020693733,63.51561475384909,65.58968564619197,58.70549881145061,46.81675128466615,38.411333460783105,35.99885838239914,34.14250419980421,28.063612051834745,18.959852611532998,8.623328454255423,-4.394794144746735,-19.63604818670324,-34.80711951933319,-49.35072927458533,-65.61921650750894,-82.67508448468999,-87.10694305491579,-62.749670955084824,-16.633911908493122,23.996295639650747,42.866446391772314,46.33043274799723,46.92850413091318,47.67682794098336,43.844633100698175,34.67222848229583,25.24593535120819,19.332144952914827,17.155695252748522,15.65800472731969,11.078447766620608,2.1685084554751612,-10.396362541435044,-24.37428469675822,-36.63626013018291,-47.962194816776936,-63.16567710576341,-83.5273236721055,-98.43616153586328,-88.64423397679131,-49.89935693786412,-2.8100532341928974,30.023682517682207,45.844917221565986,55.16785754302876,62.71605137544959,63.41315976133607,55.22070720557752,44.734245855315386,37.61550075141214,34.530206166068595,32.658481085436314,27.596034822617554,17.89358967896031,6.305011736519936,-4.119906939099111,-15.97859825314725,-32.45239885833192,-48.92770398704529,-63.70977796314187,-83.9542276891134,-101.39801320396516,-90.58536404288469,-46.56163577317419,4.176697985610525,35.60752202960394,47.679747630600104,53.54135078781565,56.30822331487632,54.030979351521125,73.0,116.0,80.0
-60.344523062229655,-78.30957239766968,-85.10437283254367,-66.46143026008473,-24.741843962783783,18.987710055705712,44.40489762405789,50.002371620316296,48.9034831269473,47.79417891611362,42.09951152233553,31.43559219814614,25.160745176608966,27.563213476388636,29.10521587899729,22.33678511612082,13.171977579378803,5.91452242841215,-3.89723842387028,-17.838038282424073,-33.55397644690562,-51.241918600479536,-72.2674431170362,-91.87776781359207,-93.26898657601026,-63.16107037662176,-14.628998329767764,25.440253431305734,45.81139174694393,53.16948167771153,57.710334725698566,61.89778932985143,59.84327668573875,49.637607442784706,38.71450455641663,31.95929720383365,28.250960423724287,25.547514949351537,20.939559573222407,11.280012585691793,-2.5318037098874986,-16.496853437956965,-30.024682871507085,-45.663199673513006,-65.2832686136032,-84.82259482240308,-88.23474273534487,-61.30564435140258,-14.308352716241,27.093286177241122,48.96074667185648,55.937038790630666,55.70589662915798,50.649158304609884,42.818601236206256,36.31331230967972,31.84429910299127,25.947175721864866,19.216453964253212,14.155095083314482,6.934771938718193,-7.26317087408691,-24.604913934459265,-37.896654465199475,-47.80859974847933,-62.154388149828556,-83.39759539551243,-97.62365373837824,-84.25886343241869,-42.868928042517176,3.698204649010493,34.40464155415306,46.51241971340848,49.98882030287437,53.35447024070997,54.66329202725846,48.510236290836104,38.51168343502538,31.68133177180858,27.661533126451864,22.48411673013131,15.606985618417916,7.506856579182447,-4.171810954213823,-19.07259924093146,-34.16440149625606,-49.667833151399066,-68.04347614423268,-85.53448688649843,-88.66998874312196,-66.36896981191042,-24.26768568860552,19.20738892402789,47.13911509029242,55.75690849038921,54.44975908899671,52.65023929015071,50.08787564644667,43.89286241608892,36.62463059782217,31.157955302460774,25.578826266648214,18.5875883589515,12.438370500068684,5.572861370807426,-6.8032092713971135,-23.25577898893486,-38.16713388890472,-51.94583932803156,-69.34049393620994,-89.34734266203664,-99.0782762986099,-80.45703200829449,-34.07557451262503,14.322998597205117,42.3769619690674,52.73935666987081,59.02985467777274,64.87530057771093,64.5272495068186,55.401207312079926,43.73406381495918,37.23941959282903,35.717408518305454,32.869439153370244,25.597298984551063,16.13436877495749,5.191349100056932,-8.672600518648679,-24.109493393824902,-39.00941837512257,-53.75656915329124,-70.78473995649577,-86.14796582219476,-83.31616704332409,-50.59396163615786,-3.155234384217112,31.750617438982385,44.82336360086908,46.42370248119713,47.29387528744239,47.2293815376649,41.57022302188045,31.73423681325837,23.10565096096923,18.395198898219963,16.849712174456897,14.758950964963107,8.940733489887027,-1.1428705267969064,-14.446671441993335,-28.17028770276265,-39.82329169069786,-51.75347832582557,-68.7027576205713,-89.23515919896424,-98.84127070024358,-79.88257178977149,-35.914626666216286,8.700391383373207,35.94747917330986,48.7630478321736,57.64701784559307,63.89644683745804,61.77733391705711,52.067060292979704,42.23310345736696,36.36465492938153,34.07260157750988,31.671510065263966,25.216882832516017,14.54705279804438,3.159414435464302,-7.1530814155665565,-20.327560647279878,-37.51363317142586,-53.097370661713434,-68.82479231152281,-90.35684779790809,-102.09696879101695,-80.52612062406541,-31.082721563021163,15.771140947825836,40.491830461255695,49.5957921017547,54.81777341390107,56.09558240143307,52.884697130688814,48.726233842207435,42.928400994697725,36.40016035729562,33.372447657455126,30.498283291895405,22.254870776927184,10.253116077763984,-1.4950129841616908,-11.410338669464194,-19.95099850845995,-28.418842733882133,-38.93020322393681,-52.218317816779276,-69.79099802294704,-89.43915549360034,-93.89973401182803,-66.65407129048378,-19.04059851195124,21.80972091024861,42.707064062883674,49.52018965334541,52.58059981958412,55.141503702289384,52.876607998947016,44.19724243115984,35.61085754769951,33.2776499412742,34.18013288309845,32.46875546344422,27.25076152095166,20.266538486627034,12.147599452443577,1.1963458688045994,-12.881355343673475,-26.94116627934701,-36.89498718950804,-43.457783779542574,-55.81924644719823,-76.37790023743553,-88.20439264495617,-70.54472453643734,-26.484816201701605,17.353122567592173,41.84164836601954,49.04303532317657,47.71984072508277,43.639080812676234,39.586518425363955,34.01757294363157,26.96490119371492,20.587012332243294,15.439626910421627,11.232176532405203,8.33905998327948,3.8071396595554785,-6.781240112720582,-20.913927117749935,-32.40188573719912,-41.26079296080726,-53.353752617561526,-70.59028247493279,-81.89969628499924,73.0,116.0,80.0
-29.042452775289952,-40.814758642245465,-51.156243561278906,-67.85614702015711,-89.236469825188,-97.19065095541703,-74.43894728594914,-28.744350640137856,14.685414653410023,39.49702244292958,47.87646905176158,50.85018427236824,54.25689536790677,53.70318125336697,45.63478074006083,36.06534485855567,30.42247866179483,26.398942512145478,20.597593989177625,13.472754636064295,4.58286251124927,-8.283542609243245,-23.49902097633507,-38.47871684756844,-54.646084439747085,-73.64440302623099,-88.6164029490708,-84.95319440548771,-55.551601376506014,-10.945093147387743,29.35043256755035,51.37077310495115,55.84145293302663,53.805948927389906,52.18734701073328,48.65541515571536,41.70542077334811,34.86149553928885,29.70328287446726,23.626287508818784,16.66096885340359,10.757955508242503,2.6806812022720066,-11.416232377741958,-27.861208717753215,-42.059420621845916,-56.447959768335906,-75.18798130229206,-94.0697245329879,-97.16206147041363,-69.08568987485674,-18.93851780381181,24.886197858331144,46.545734803001075,54.546571186715056,60.93889099042091,65.68904445400223,62.662703686615934,51.872744985982024,41.14611097222931,36.530239744735134,35.296027620231385,31.182165672452488,22.965980377347247,13.207644221070355,1.4851339669594568,-13.08434945177624,-28.52100781618661,-43.1763626446257,-58.39204468568972,-75.91843245300106,-88.08185646703755,-76.81402243858567,-37.11611917313708,9.128350397730578,37.537092667062936,45.83042964685514,46.5440359215539,47.614150744872845,46.26060993144819,38.91729187337229,28.924456528632483,21.311391896391477,17.746482796599956,16.491753182929436,13.529398536145862,6.438760515387636,-4.736884019179993,-18.534288316016497,-31.754852627667038,-43.011007325841746,-56.00445872943967,-74.63664508981329,-94.07266004344856,-96.69834001336378,-68.8691986536893,-21.932154146225287,18.595321778094853,40.618677577099234,51.4311971035594,59.96463522071773,64.31986476020984,59.452323082247524,48.94053853902754,40.08813873619166,35.43801783884627,33.607674230577,30.31828566163211,22.45759250001284,11.14984614340768,0.15695484841968083,-10.446554944459505,-25.08068367459791,-42.37490621280947,-57.21818108253423,-74.61100792431141,-96.02079775291995,-99.7809259104902,-67.94744012736513,-15.913374716434948,25.312021230609595,44.043584777575575,51.30194259170044,55.753051678254224,55.46380230618338,51.711230901427314,47.31555209345359,40.88983141448183,35.12545119337914,32.86354575192045,28.731025686766795,18.973871185475698,6.702855835829438,-4.542599181766591,-13.987941312303608,-22.304717882923896,-31.188024212884354,-42.456546677894295,-56.76347547294767,-75.70161140275223,-93.35085045197681,-89.38912771513668,-53.79510240645857,-5.523199474662091,29.897504994856128,45.61322690017645,50.457608348541434,53.48326337947354,55.2056237822379,50.869374744450575,41.30677906909377,34.249989286883064,33.51942535581139,34.09494314651633,31.253273994700432,25.34073619949005,18.082697792282538,9.356162586070175,-2.635158892284839,-17.139654352712686,-30.373130466746076,-38.84527439055959,-45.9964427659129,-61.324626690279246,-81.78888112675932,-86.62786121980652,-59.5675115722796,-12.543894761153373,26.662570045383617,45.27237249839603,49.23684548967689,46.6157942602615,42.48209300926928,38.214346317184265,32.03311894706978,24.985127838633378,18.99923711041709,14.105338114669108,10.290175708845414,7.447969603785101,1.4295175568675957,-10.805776282382418,-24.672268802776117,-35.018288755625534,-44.161378347954184,-58.012153356560134,-75.29548648045244,-81.30602257948995,-59.91604111604272,-16.10426179499878,24.307826532522643,44.53635608547087,51.39116798950073,55.804653193862514,57.63424629527228,51.72491971035993,40.73215616068799,32.48729261692232,26.62797273766977,17.796852304302035,7.462123747691593,-0.21283680976116925,-6.097964884384128,-14.54376536252048,-25.09907827041483,-34.898668005664156,-48.312126013550646,-68.91112946881697,-84.26315388363605,-74.34805591046342,-37.16798274238173,6.514379011938344,35.890370927399275,47.831896362577474,51.604475652501016,53.15228954308861,50.373765004433025,42.812892188798294,35.40191283138971,30.284413887957147,25.844336511592182,20.718510181186648,14.627485888667092,6.820508553660291,-4.425315737607114,-17.720333837785695,-30.589247089700066,-44.52705721778548,-62.070923478154334,-80.64824631220978,-88.09269005478535,-69.44847282113776,-27.941953805150348,13.708451693392698,38.12473437683197,46.97020384801586,49.645720877530515,49.28933964590358,45.236649222880544,38.88918750417575,32.71317826154185,28.20612669474524,24.22740912218085,18.76927487420744,12.202976163432478,5.831823707135672,-1.6287454319908865,-12.516674254774614,-24.70940345190152,-34.793586017739436,73.0,116.0,80.0
29.120156065389367,20.239215841015312,10.119414790733213,-2.4855559773253155,-17.564548185383313,-32.844629899205394,-47.37825804272344,-63.285097909920346,-80.70283773180455,-87.96768407528566,-67.72119634533036,-23.07826462066962,19.745143103963294,41.54097210218943,46.248011542976975,46.77996718955976,47.733529847839705,44.73202229724924,36.034715293378056,26.341255291469395,19.875332867411647,17.311166266352213,15.97481767620996,11.938061175243906,3.591480344563491,-8.568029155794388,-22.56184271589787,-35.134356978305384,-46.33957257957647,-60.78156193868623,-80.74404129708392,-97.48935015365079,-91.81701974711972,-56.15295750696785,-8.59372509258378,26.79473139003154,44.35166723535512,54.00011103942993,61.95853594726816,63.896949772648654,56.62913341921491,45.99823499337678,38.31127640000768,34.77331887155582,33.01031635531453,28.55316880810579,19.38778132907448,7.806374193863046,-2.766930300425472,-14.128522070005674,-30.100343891783698,-46.93118403715388,-61.558736840061854,-80.94391738682467,-100.18756578777635,-94.22632697518824,-53.566865063702814,-1.804829869508638,32.79878729337362,46.67323398986754,52.87168237648388,56.24526413535216,54.52784151893556,50.535531156729505,45.68972754601697,38.89814347679458,34.22296359745199,32.178698391663794,26.4357874686465,15.488015033411463,3.2595483399875063,-7.4328335563392685,-16.46483651771727,-24.70125688125549,-34.1728375943214,-46.21711406993369,-61.736781267474555,-81.64036262040396,-95.38551569655627,-82.00383208485421,-39.8364843412479,6.769706858235571,36.23066161205047,47.619605360753226,51.30653525742105,54.32168770957875,54.71667822291242,48.36851388328264,38.65642651776662,33.49155552210173,33.86083111785942,33.682849940962825,29.775782883278357,23.330751588262626,15.79443547061211,6.269584359599908,-6.698391764206503,-21.292863941529532,-33.36169974206144,-40.61928149438895,-49.31531391216642,-67.39850269248686,-85.87402273986358,-82.1663663810527,-46.80181879968397,0.6152305640396465,34.11087668167019,47.48774585249808,48.90007762964149,45.407103796356544,41.34521770270283,36.65021594191931,29.972898578081086,23.110485755670098,17.502787837648192,12.853474107267601,9.467771569333904,6.287455455470348,-1.5334245815419862,-14.969683407463043,-28.076236031895736,-37.50581770583858,-47.50300087716021,-63.06128740879231,-79.08266764358984,-78.26707667634301,-48.62449274347766,-2.8715695395329104,32.27660185927767,47.27130240737035,52.691182180831646,56.86210045134892,56.819761763124575,48.69438118658767,37.86037600091836,30.823266836523775,24.484689826773952,14.729257162487942,4.894301121372196,-1.911132123088982,-8.14300315225779,-17.5693233090489,-27.975755476718305,-38.06189953428133,-53.71480258689217,-74.84687063311387,-84.60892378327867,-65.7807146160377,-24.065376744890994,16.99152335142039,40.81059433114775,49.32798772532789,52.26659513047971,52.95285053977823,48.5018200479158,40.45011886083359,33.73329775037693,29.013434448146022,24.4639632711446,19.056189524884648,12.6357687270109,3.9471978762853017,-8.207255585192739,-21.501419694887918,-34.35586307227523,-49.19477084937557,-67.66907830345569,-84.71264942061772,-85.75150270234292,-58.994262299013485,-14.829717399428915,22.800963544905002,41.840086183577,48.07717745842172,49.891208413799994,48.48653920752066,43.52477798140268,36.99114645210971,31.228125098382524,27.118094756882247,22.83679821698534,16.913125570629852,10.328817454333468,3.927624770757784,-4.411612034935468,-16.106707565281003,-27.881401288546567,-37.44901048507323,-48.52652410295866,-63.860506079154476,-72.67819845051876,-57.57252227771876,-19.185073438889567,19.586594824390666,41.10151881603485,48.6971511725968,52.719281627942244,53.49268911699507,46.40010013220303,35.21408621625983,27.870308308377055,24.43172353020374,18.999114592896216,10.106670396328038,1.5817737344724725,-5.900057157461926,-16.278268023916045,-28.486979972189463,-38.95014775723745,-50.113237987681984,-67.57896853668421,-88.44811707487999,-92.11833558397971,-61.158361795132826,-10.206504649124497,29.765658671187957,46.8787768853415,51.455459940111574,53.01311608064604,50.24806469199175,42.053508042773,34.87524355044387,32.98704167531531,31.066266506902423,25.34952956002076,17.79467840900359,8.461124093916252,-3.575722017697791,-15.719949973233206,-25.04529353309037,-35.25090201958905,-52.393014233952876,-74.3824636944336,-88.46331487805585,-77.12180843852379,-38.084204042422144,6.160506287372164,34.74129444197893,48.30285401447732,55.30514309688276,57.776828498575895,53.229293618216666,44.463474007024175,38.15491503006335,34.187658721088305,28.372410396111476,21.56328706270183,16.06041184295572,9.465243184135836,-1.7763757380885834,73.0,116.0,80.0
53.420579751196215,49.320253828878265,43.84072292680097,37.11509526784424,33.60484912981037,31.13627615341057,23.665729952094587,11.908143878595332,-0.03333250561424287,-10.183968697953558,-18.86264949282635,-27.20858297310355,-37.378571738001305,-50.25049379091313,-67.15673735229441,-87.1754822560441,-95.00120080019124,-72.00971049362455,-25.541458560454675,17.47043061032446,40.98161225855897,49.01287303594277,52.16896999221,54.958949614483835,53.60336342682643,45.54675063985405,36.444057023479914,33.25233728095667,34.12480975773097,32.92795028744256,28.086814831884432,21.248265850620474,13.347067510928834,2.8683860125739375,-10.913425035740344,-25.22925212943028,-35.88099368021417,-42.483755337856536,-53.553487568547396,-73.6134847222551,-88.01819497970361,-74.82942247395353,-32.98834329298944,12.44941883318332,39.778094160976025,48.73500189418445,48.16154200196428,44.188317770414685,40.165584600804785,34.88853767423617,27.90455376730193,21.35571593280442,16.076655260367247,11.713222646863617,8.701922972368932,4.70904206809176,-5.025587112556699,-19.082012877342603,-31.11273442564668,-40.03300766891444,-51.37897374224213,-68.2491372261708,-81.43527209349483,-72.63188587909148,-35.87240091915674,9.330507324831851,38.40785223593834,49.238886076182304,53.97893643901994,57.5738400692257,55.25027058419334,45.42570484937481,35.39216290105216,29.223856935316075,21.985332903344915,11.665556829569022,2.6199106391639186,-3.54312441246034,-10.514667291818139,-20.67021924358063,-30.75486406318106,-41.72936090401634,-59.71380933287843,-79.84436322105138,-82.38978463254003,-55.16813497098778,-11.077854694604444,25.887509383790505,44.40317472486226,50.412419218113016,52.7947615144479,52.27958282626856,46.30092704934966,38.239500039060076,32.24547523830102,27.749561304974815,23.00369935795749,17.318943980458652,10.46013676854149,0.7501254731531485,-12.07773113037871,-25.20956303478064,-38.2952451981085,-54.208037392809516,-73.22341782557659,-87.43797376540452,-80.9132060654654,-46.983420225845514,-2.36105756452078,30.204529968526053,44.477715982608224,48.880470132152766,49.871450803994215,47.36572017858674,41.68223233318121,35.16405438056134,29.90622222363333,26.01011815871385,21.28911871566639,15.00161986135452,8.496257090871811,1.8597036604476624,-7.518529513579688,-19.695200258614296,-30.819565899465783,-40.22634230453835,-52.68293068855427,-67.91701096274912,-71.28318084161059,-48.11019489563603,-6.874334452740864,27.79049676208743,44.19933233728826,49.96511075125343,53.537129584251566,52.29086831191843,43.19416561117198,32.484465233161,26.72478611894421,23.275502115917636,16.662595629544356,7.434543623403632,-0.5213859795482049,-8.497705617595612,-19.828181929008558,-31.72132841092646,-41.84001346208117,-54.34633291690823,-73.85703434270638,-92.45122818801195,-86.76718136842742,-47.07370608115454,3.5552228727180872,36.85154658245283,48.855890811575115,52.120367516570454,52.83280940403673,48.28017678464976,39.49844784615933,33.89224122986458,32.75083281079019,29.759878673966423,23.2755048264272,15.359067218024046,5.222627086024265,-7.266809471264749,-18.695618073689374,-27.572453812077615,-39.372940756929104,-58.62163251523769,-80.06249330506758,-88.40197040599205,-68.05417024029059,-24.560138604365605,16.372796848199652,39.79463375415053,50.74131068516894,56.59725475824427,57.222345706107454,50.80844299572771,42.20890685253687,36.983632142315884,32.779671863301985,26.349328648975003,19.850921179708,14.463699452247008,6.772665121816416,-5.963827383310578,-21.913990971460574,-34.913599132085935,-42.04650780138731,-51.524067146661864,-71.67141606304446,-93.86811696457231,-94.7194960652976,-62.089907288506446,-13.360420414407143,24.342250995645657,43.494871634176434,53.093884729512574,59.000341703539235,59.874991712547725,54.989182192690734,46.52717481425843,37.751575425113835,31.95978824800179,29.627747048863323,26.87059684235671,21.241151029993226,14.186283417329065,5.112331060302992,-9.274503866886345,-27.87724600971867,-43.34693583328213,-54.76977210987156,-69.97273853233884,-83.59243342447361,-73.45330295436553,-34.63381237563941,9.038706227873728,35.159375986379594,45.45137767771497,50.51283947340681,51.01284686475836,44.60309767105388,35.5235898872552,28.302338115814138,24.233530780142058,22.212959352279046,18.538660419732054,10.909563677280273,-0.16377733011569373,-11.992386403952084,-22.4068425452824,-32.82336070241667,-43.490238520753806,-56.24782433193708,-74.33457155600838,-90.82424977474129,-86.84958259230751,-53.39199540750011,-6.677302980086877,29.33142811042506,47.096358693169314,54.7552116233258,58.678304437767416,57.20137301514777,48.704713200311964,38.04436859794482,32.14080515808992,73.0,116.0,80.0
-81.86723542819408,-64.46352237392534,-22.370434622158225,19.996060618430445,42.91669631768222,50.76439028106945,55.24861715025807,57.76411883596961,52.97533680641822,42.16814291877316,33.32672947074032,27.504431500740747,19.17172585427651,8.737846883270084,0.6260245397899292,-5.248654522384006,-13.209884565940287,-23.727511307931717,-33.55326964594447,-46.06442954862919,-66.01787044774491,-83.32120401343703,-77.48938785320905,-43.069529080742306,1.2149697888134898,33.11163954429247,46.939555786505224,51.261590712454456,53.109697492824374,51.090502392572695,43.924466960518515,36.244045771934736,30.88437959861542,26.457461276893866,21.458698244146177,15.500005874841838,8.036760468679843,-2.737516088810499,-15.951268735811263,-28.885688552000335,-42.4895856694542,-59.53333867696801,-78.44885595150537,-88.37455329336434,-73.59789665418786,-34.039291656628706,8.969518126113242,35.97187223588154,46.31891618298338,49.453971980209765,49.5480278170046,45.963331717489446,39.77419615056802,33.45293773783915,28.720830409409416,24.81848602187558,19.59350494187426,13.080927131533029,6.679126187058494,-0.4576792177160683,-10.894819629468087,-23.170036090530477,-33.566486918747536,-43.28783985291246,-57.19036738190162,-70.9949276371448,-67.49088027218593,-37.0108784389355,4.7759627619381195,34.32298470866825,46.410272885663446,51.147840193496414,53.95325998446249,50.35139149502821,39.85133207020176,30.24733440378865,25.79080004599027,21.804188978621593,14.078450585351725,4.915551518624271,-2.60379713224615,-11.436886456094665,-23.41948646558973,-34.751781279734814,-44.92227468836615,-59.245401083724424,-80.19977688419638,-94.33214964102548,-78.30999020376738,-32.0457076297664,15.673140839712199,42.04032319063373,50.1685075977932,52.64501637242708,52.17786208658976,45.89816869394244,37.262940763954866,33.34753325272046,32.31090233236766,28.13282099645105,21.114597066890465,12.7316902329586,1.756237545843904,-10.859605555092696,-21.395797905475774,-30.35134478786846,-44.189326424900926,-65.10039958158549,-84.67095242229792,-85.78814624641446,-56.88612172723699,-11.348905912808192,24.967116743546736,43.80485005832725,52.818310018686404,57.467178201561495,56.0201367887833,48.19576406584467,40.30836710922746,35.90105623199993,31.1345916585682,24.331446971195888,18.272117576508087,12.666326811254342,3.626529521594424,-10.453040127103934,-26.279676934709567,-37.41196849559916,-44.00026170701404,-56.218883665736506,-78.78588691664903,-97.33166973230058,-88.5062474143633,-48.322495472445084,-0.5072326800673014,31.50999021568935,46.80919413327438,55.163487940510194,59.874620144247615,58.989666816103835,52.784763043266985,43.86048797422903,35.666534231290626,31.036759895483407,29.086069063766285,25.49986208114232,19.298464768468712,11.900156650849246,1.6191002941744521,-14.50008223726967,-32.953467181063175,-46.761577482264826,-58.53469858337978,-74.95850720784762,-83.95253821497667,-64.51807098762103,-21.158415118364335,18.7656526554324,39.20916569762526,47.20053557379297,51.31803830642113,49.79769201724796,41.980923789985106,33.14680845685507,26.79555803487617,23.573574004412407,21.489035890692797,16.7557496695555,7.990732719474074,-3.668833514649552,-15.120948850843103,-25.358351290866576,-35.889762045195866,-46.76435518328345,-60.93366585024459,-79.98104778321633,-92.61533784996483,-79.93297495311161,-40.08827122793332,5.594008000270381,36.12404460705274,49.90589507345152,56.22732359843758,58.97681449122455,55.3741207883705,45.50893162765978,35.619028109479665,31.851873511448456,34.4038121693532,35.40339016349243,26.94944113369562,10.872105411300664,-4.87205310328104,-17.443126425298924,-29.66013380695646,-43.014776842799634,-58.5576983917549,-78.71121856614764,-96.08013081030424,-89.9193392851878,-52.50937390682529,-4.452464536516656,29.254416214244454,43.98533273653348,50.19168576034795,54.99626836455441,57.09809077771685,53.37626145095653,44.682314327597986,37.517041427233295,36.22377881718066,36.011652820475724,29.71895129288278,16.604799815685677,3.696474184280926,-3.5902053919520047,-10.921101464229025,-24.942084789090647,-41.20112962043621,-54.85500916999029,-70.67812752140699,-89.77096976482422,-100.67129603440819,-85.28393971965858,-42.61300263415954,3.4576003296360547,32.13457357630676,44.65223996863951,53.192295412109736,61.000146520692226,61.36882116746169,53.43209129088303,45.83543835552237,41.71493343614604,38.0159838446756,35.49017349177302,34.02490056369526,29.188387294603952,20.385202926779385,10.331905903739056,0.9310318263400615,-7.015651524084287,-16.9637802688325,-31.167094330776678,-44.495939412854405,-54.33651088724245,-65.2864497680884,-79.66004814988987,-88.27958406041566,-75.26088804612522,73.0,116.0,80.0
-36.21954196200073,-46.76436569408298,-61.8003434255296,-72.5809617514724,-61.241699475117265,-24.908959082805328,15.25259959622095,39.28413903152419,48.053928709402214,52.255547223104344,53.79599278707774,47.76512743809869,36.61262159819116,28.515935261211947,24.88663268736997,19.96795857724231,11.36501751341026,2.591846121296583,-4.806769971020754,-14.69285278918721,-26.925956690047023,-37.63818181449894,-48.36272174573879,-64.81457797675579,-86.07473780624537,-93.51562298273454,-67.09565392682246,-16.95549773592209,25.803555612802054,45.64563357176033,51.100479627132366,52.96459932832011,50.9837768571686,43.27921150517677,35.50459710001257,33.075885993667704,31.544967342443687,26.266881504455238,18.86756643574618,9.868056867808795,-1.873011265103702,-14.248225694191012,-23.909128471737713,-33.57282541493054,-49.67028830642939,-71.53233284249893,-87.71725030294112,-80.47183211753895,-44.22528340300726,0.93585365421115,31.98926076989434,47.023503956190424,54.59118983192998,57.81620378774049,54.22466780454444,45.60108587204401,38.764602862600675,34.76371282707006,29.279413234209038,22.404751384561852,16.761065099959946,10.562468266478142,0.027122515899372732,-15.119413658335576,-30.206037696393192,-39.44441832137571,-46.461500721215565,-61.921596522960776,-85.64441508887255,-98.36725832087814,-79.45564105304312,-33.9283021184295,10.843418333949097,37.212136261730464,49.6075927548074,56.96697854297532,60.25642322216414,57.64731609072062,50.34683066052695,41.2572109214309,33.90409796143297,30.370833358884333,28.374354886034638,23.89147785430776,17.28298102981929,9.39089917109698,-2.4149897890084353,-19.95639737548597,-37.56176938658778,-49.952763853685916,-62.84736417392166,-79.4139030342552,-81.73023631917088,-53.40531957691395,-8.068804008015492,26.680775630786115,42.22443835746316,48.71989681528108,51.63508672965775,48.0012531477142,39.29972315362956,30.992932878984913,25.565991950200317,23.026948826350424,20.520359910985945,14.62391272228745,4.8118296818743715,-7.140400582891169,-18.121864923336553,-28.361474874217915,-38.95150937877484,-50.31423103669777,-66.12486108838672,-85.16535986081865,-92.16346916349019,-70.56844066344671,-26.30407355444734,16.443022369551052,41.444697472292916,52.14369581260823,57.45591073326242,58.7178483192144,52.97393427126939,42.315800903625494,33.74194541150258,32.15567256179078,35.31710051734213,34.06611804465663,22.75172847968862,5.992257096142317,-8.738895928667361,-20.890149866621478,-33.39011644897758,-47.16516487185499,-63.89833743318093,-84.81773897171647,-97.5958245398773,-81.85905956673093,-38.388985456289426,7.425472421269585,35.11026120272898,46.15714409426373,51.663695086804374,56.048431559905374,56.69503391879316,51.17326079621361,42.110537546989534,36.59418438021529,36.418442457618525,35.020515620042524,26.43182828978595,12.452772224063802,1.0578778512383493,-5.262055513165205,-14.266873695587353,-29.8010156119901,-45.32583121614882,-58.94636335752068,-76.1159011985459,-94.58090183718623,-99.53041866639214,-75.01570618817719,-28.383835136166375,13.89467949550362,36.88108282941186,47.10292145293112,55.74459223045005,62.158227506493425,59.62116675483066,50.84139990786253,44.422306037494735,40.66751967943339,37.05483346053365,35.13634223234271,33.122771813296175,26.937385256093528,17.507020028086174,7.4755535371986355,-1.4601329529787894,-9.44907475201461,-20.75549353991894,-35.386093524439765,-47.578143059590616,-57.13709437442942,-69.23326728444704,-83.46599686917976,-87.27043274506907,-66.57059197544193,-25.797779124832072,14.81042032503939,40.43796767077507,50.533847843698275,49.75718681904017,43.17114528336509,37.705522878560714,34.922802266601735,31.162453973430495,27.67510383968719,27.208295661578017,26.5202195316058,21.411928183577206,12.272271843028909,2.278768362682457,-7.3205205331185494,-16.2678700086724,-25.305453852152816,-36.6277099054228,-50.90459473293513,-67.8368171924744,-81.41981988252714,-77.49909038437707,-47.11823008439908,-3.2609169907011655,30.03111015351887,43.0179103644679,45.03957950064207,47.13163624317288,48.086828774925436,43.183679589676515,36.48259870711427,32.769763775416294,29.57253564488126,23.47093137263426,16.50705703024612,10.034560090969563,1.4102827080612466,-10.890701024813426,-24.72993765384925,-36.35651517368442,-46.97783767098942,-62.95882753790439,-83.9697636007555,-91.51663890055977,-67.95196383645937,-22.320981663220643,19.367299967476104,41.67702826738735,49.58727054868503,54.3844150320942,57.545256633569416,55.45931298524735,48.95980335981267,41.62704209223328,35.21406517996255,30.025271210092818,25.344300238223596,18.279706602698887,7.601356183057095,-4.170010512296486,-15.075358935335826,73.0,116.0,80.0
-3.989634147239319,-19.801522335812827,-33.568022657879325,-41.22888633559073,-49.70721288302002,-68.46142508730705,-91.60654669983701,-96.56640675682547,-68.00574600483765,-19.684356569487726,20.483373238886358,41.728691760569646,52.05637044558607,58.447319796137975,60.11561308610612,55.90751257667962,47.75247734470188,38.80687436617686,32.49273340936418,29.85308014577126,27.410187462056992,22.10663883501486,15.18806113126926,6.557538610885872,-6.995671552175685,-25.419633978720938,-41.63808505731027,-53.18743284676879,-67.65569370814325,-82.67590180783033,-76.70705667155978,-40.76495128627818,3.976357358497584,32.84709916698724,44.541033398131354,50.012866316640554,51.35754653318991,45.74984711111805,36.68314659414371,29.08993848404088,24.59989941592409,22.489053583021484,19.242376303466543,12.155494731966945,1.435971248616807,-10.496890207404888,-21.05704230725883,-31.4099443702022,-42.03863464997177,-54.264195099653755,-71.69969777869518,-89.36886938199774,-89.14617135892946,-59.17459648224072,-12.71047724631256,25.653335694332853,45.54208160141004,53.99652836611429,58.3809052322977,57.83023458108488,50.12443635590689,39.31530413103033,32.4936236308827,32.9146950523748,35.83555369870275,31.807542242271573,18.077149770660366,1.3438135796462638,-12.367738815708822,-24.38928829845334,-37.22026956719454,-51.54496400295265,-69.6961545253246,-90.32724770780301,-96.56603242003912,-71.28919719009876,-24.120369406795806,17.617680401441003,39.51430360950048,47.927863989428104,53.09290972189427,56.78304609257478,55.742718909647884,48.632713548446276,39.877559485133546,36.18376873610474,36.50323289276311,33.37220706310701,22.64417497633153,8.556211637699565,-1.0668844268422024,-7.191693984126169,-18.25291149324921,-34.613356908511804,-49.2208409280073,-63.40159884654883,-81.74951206385059,-98.29460276060473,-95.74636863549681,-62.747384516744034,-14.620192497826476,22.559239360168597,40.532306769507564,49.52190893515289,58.1610608074405,62.48649622298565,57.2990327322623,48.53095644548294,43.24749776264463,39.5854982528098,36.270577149831176,34.79721772951139,31.824089936847304,24.408507433765838,14.58848675514609,4.7134172461672685,-3.7267573837452517,-12.195897077942417,-24.879423319053583,-39.349139566670004,-50.39703970217625,-60.18862222748855,-73.45279058847832,-86.42578387953544,-84.07000134623965,-56.084523371759495,-13.120852981375753,24.004001323267868,44.74950939097507,51.232012299535796,48.15869908576542,41.220908912409726,36.79356965621959,34.016097173647836,29.931114397436435,27.260166198493383,27.27428227131555,25.583828315087434,19.044333639350576,9.366750897779093,-0.5405836408407119,-9.987426118305878,-18.766218136767268,-28.283538570677454,-40.43678732280874,-55.61278434546214,-72.62329278276815,-82.76890505634212,-71.33358589601619,-34.72697089426603,8.295431392267728,35.724222846094776,44.07852480321753,45.44327803936118,47.83476204039598,47.26276955811394,41.105422491034666,35.08513576008524,32.02241611540386,28.111925754296713,21.38938497170437,14.669092337518098,7.887028026081543,-1.7818517574886426,-14.921239674486817,-28.401868781617,-39.294501957683565,-50.76922256397186,-69.00456399582478,-88.63911029424847,-88.08713047782096,-55.95164636594619,-8.800585340835271,27.925575393316507,44.865060979220736,50.998280833963484,55.64842381102043,57.55703714119211,53.87235930943605,46.79989936953926,39.660390617776784,33.58032204371996,28.719785641506103,23.683261281635037,15.501552099378117,4.168814190688733,-7.400514008409774,-18.247173748872914,-30.58489870109586,-45.48111600701401,-63.393942730869206,-80.91910308340036,-82.46380289806915,-55.130086645881185,-11.247653429695173,23.499321665992852,38.5612218963512,42.61002212998975,45.23442000709937,46.77094123206357,43.61778078182126,35.95132161118232,27.932248185287488,22.090354226017734,18.227053043960808,14.787243259638513,9.075737574226466,-0.8349339453303228,-12.915011949548331,-23.41767726084538,-33.755401031063855,-49.774260813872765,-71.56398338349632,-84.04304754213697,-69.12536818540819,-30.230734445962135,8.726732542961063,31.661555255271484,42.76280173567661,50.430033270890156,53.307265481846756,48.7976017149507,39.90138977214161,31.448691760020914,26.13892409738689,23.21840755316228,19.432241709739525,11.710102924939468,0.6917369598506554,-11.778239952926292,-25.089280505936017,-39.314941667590176,-54.713884096010794,-73.24393492479514,-91.49744088468618,-94.63634940771057,-70.35890245116923,-25.918438471062966,16.420653718998125,41.9639693152774,53.55033470442127,59.64194539576023,61.25118815652786,55.93984783455681,47.40825256298373,40.90624432867241,34.97000719039537,26.231159289565074,16.929268432691764,10.395342157213369,73.0,116.0,80.0
31.905932366457403,33.92342310956447,35.72130480877632,28.665161467025854,13.158529561577685,-2.987466876283361,-15.855672489501504,-27.974294981374634,-41.15724833895835,-56.25098821002147,-75.83494131167735,-94.65373200798817,-92.69014135217658,-58.75792502021617,-10.414174287594422,25.99532602306556,42.77578223505436,49.498686972004805,54.43171695546418,57.107969255414915,54.24184472739353,45.92811418644886,38.133181703485135,36.156543549000524,36.27339058052349,31.028168149494974,18.54109880219971,5.104593110164963,-2.8338090753176397,-9.603302294509541,-22.75151445269237,-39.19459577043617,-53.05384697232959,-68.28568408517059,-87.31950106674222,-100.39065165908632,-89.2030423603922,-49.13558895680316,-1.9168610915327822,29.482527474585854,43.45423424136737,52.01618336043692,60.228096208061906,61.920835098594075,54.669980524537664,46.597676037151224,42.1908878558387,38.49938811636921,35.69338093557255,34.32593684025091,30.110639535962825,21.685137980685145,11.668683243630706,2.0875585686321725,-5.960541705851041,-15.35644029608377,-29.178050783508745,-42.95886874698146,-53.09174473316804,-63.58911544826201,-77.74155634210854,-88.07928090498629,-78.56312054825591,-44.27549514793995,-1.0164896485414316,31.734946084964765,47.86610134236921,51.13058316533556,46.21611722030836,39.54767230458535,36.03426501983936,32.94446657937795,28.831255780827043,27.121006765185605,27.182918155941106,24.204936732505594,16.40723473306081,6.464076465415713,-3.32486689717133,-12.584518962822157,-21.32098599833728,-31.49758103017147,-44.49653417892822,-60.53037428927223,-76.89214276805714,-82.24493972589651,-62.885046388971396,-21.781131815448617,18.40781895188087,39.7067193855197,44.595082280049944,46.033877833981684,48.27420014013402,45.89467542270967,39.07020717561864,33.98920908642854,31.187089775853497,26.37033223342611,19.339741944437293,12.846836773551567,5.480606516587519,-5.292380906643617,-18.983179310913492,-31.808832843452024,-42.25035283281763,-55.20221286374169,-75.31182354792345,-91.54737826470264,-81.7996605380059,-42.63952564435236,3.72465521580473,34.69313063813684,47.15606580862522,52.378900142221006,56.68649808573213,57.057514862237426,51.99878890988951,44.653129218259764,37.785084778268995,32.05865777458249,27.416404889035093,21.734193285865484,12.437121145565262,0.731677292807394,-10.54127744132872,-21.561036574005048,-34.62356903474749,-50.323603075293356,-68.95281558786117,-83.89685371451769,-77.52440884207819,-42.99598392185533,0.6574999084526432,29.726332221984812,40.29101666544792,43.330492338223046,45.958407430053406,46.44494073783519,41.713466945443834,33.487495979507614,25.99977737623046,20.812290934307295,17.296297458704306,13.496665148025599,6.647381431128744,-4.29847618795739,-16.187451945642653,-26.188265972576765,-37.564739461157664,-55.852741186266854,-77.09177793912068,-82.9647207474194,-59.46532443516201,-17.888656965847176,17.144841568985886,35.57971150150227,45.217738527907656,51.96154496403004,52.72540088340838,46.450860265124,37.235725690313956,29.560528876963303,25.15677084254952,22.39745892164979,17.647046972896412,8.770843152058045,-2.8184784383214225,-15.528260192066988,-29.118928489017378,-43.57672441111148,-59.68489851553509,-79.0266205206396,-94.74095498005593,-90.56140479408288,-58.71602798823928,-12.489642795111122,25.691878640210163,46.316718591277436,55.65111352431797,60.720972881761696,60.40749506426133,53.49690692556293,45.246110480377,39.33941016835638,32.755552022640515,23.383305895612885,14.747650123541971,8.788389419549542,1.4329863388424433,-11.740912636999235,-28.601646403264933,-42.36257714644839,-54.5468042090472,-72.98918472229619,-92.33317373153247,-91.2334061405239,-59.69429758366826,-15.031368899256705,20.183404984200873,40.15170347870626,51.80760387755534,61.61448135595756,67.54524177233135,64.61703724891024,55.95116684581588,48.23891811764018,42.71624298733605,37.647541628165925,32.62831871155946,25.25112826135453,12.953512861625777,-1.3304462595865592,-13.165705955498058,-23.269437249760042,-36.33071908608263,-54.6974626535097,-75.16140574074109,-91.2522204530846,-92.86957541519718,-69.28492960694676,-24.96630669082332,17.312383424669072,40.717948974369726,50.003491284511796,55.02036497502218,55.86193223543053,50.29549938725817,40.34907113311543,31.74263379900161,27.563746381342913,25.619325481312117,22.984177789632348,18.700806913354924,11.628870678208754,-0.6753043319854879,-15.478516766572273,-27.086990712617908,-36.15724826502495,-46.14873209945452,-57.53495369025676,-69.20079657327915,-83.39692390290746,-99.32498413338065,-102.89044192590966,-79.6926797318126,-34.84594825614931,10.243072211984785,39.65653024250441,52.91640085482672,58.840811435796056,73.0,116.0,80.0
-70.82440369427232,-31.6967819476302,10.101675040562935,38.012512006385414,49.9153962721803,50.329966072872,44.12728626719146,38.212074495066744,35.292060447819345,31.73991409422491,27.971250418683272,27.16341473185133,26.81218597191463,22.386864400290293,13.599299037386043,3.590923809380003,-6.070633738040032,-15.115671101006944,-24.006005704996824,-34.953322583638965,-48.820320278925685,-65.54328881153849,-80.27262294930564,-79.53767224011503,-52.4601374160863,-8.956864775581893,26.788564052911923,42.241751863990594,44.89923879686611,46.77399956917268,48.27137710686007,44.10336561735995,37.23379781359125,33.12293553938119,30.145101662909262,24.416092270967937,17.3783418684219,10.954838455632162,2.769987628542157,-9.075523409084102,-22.956950117573466,-34.96661101077971,-45.40344344410835,-60.352803861195405,-81.40017910494603,-92.13914969438534,-72.85745122635093,-28.73417783596957,14.817350209271874,39.80753109584385,48.89205270746372,53.76046750169886,57.37452722572597,56.06591060591845,49.942759354939724,42.56368858812378,36.0028598837671,30.645856290716083,26.033634932703958,19.449713051253948,9.16011590744253,-2.6451266428451703,-13.64074455394443,-25.069166878916725,-38.87126600445855,-55.45193429647397,-74.3091669662862,-85.0201709718888,-70.02648918813682,-30.067884945940946,11.185072636026861,34.29962204519063,41.435568179382884,44.084261385602744,46.50975589805445,45.64456695205751,39.497164418511495,31.11136369943249,24.270730306527803,19.682423742764403,16.348137383684154,11.943834212176407,3.84056279398401,-7.841469948962292,-19.251281659603464,-29.053268733920984,-42.0129045148076,-62.2972056657494,-81.3149920076688,-79.23429797375294,-48.19469781735157,-6.212986871875492,24.03655750668882,38.792475263907285,47.51048267545257,52.9668423453093,51.516195903133514,43.859961852456834,34.716235978286164,27.970781932126606,24.325195721607102,21.401023340437384,15.486721436328693,5.608488658422336,-6.411861364452711,-19.35154605750497,-33.21836802827471,-47.95750929733982,-64.98672573602259,-84.59088621657712,-96.26285791466526,-84.01692798852346,-45.80205286480371,0.1622787633926101,33.3789734258146,49.72911953563808,57.46701184124015,61.350039411485334,58.95259173353725,50.95621533769709,43.33834876713943,37.707184104718124,30.256224413118,20.61179495519999,12.839453701978664,7.066637947074948,-1.7054417180664065,-16.539196218612464,-33.08789228610886,-45.660383150718395,-59.066097421096124,-79.27637584740434,-95.06518032106581,-84.92630361230653,-46.95113711364559,-3.260214497505888,27.33276164537533,43.97789540404879,54.73800072939769,64.01809572877269,67.65658071544368,62.36640176849048,53.43966293348607,46.506677969768845,41.238352203280755,36.22763426855605,30.919230940758858,22.186651208964086,8.785262745953537,-5.090252167134725,-16.086527133183157,-26.52960655387077,-41.145853500916424,-60.63272766689895,-80.61642571291141,-93.76689679799082,-88.88554953421726,-57.813742490154716,-11.42461156652278,26.17369341874479,44.28075665194229,51.71651652713107,55.84071965038425,54.921590096921,47.65250463582666,37.472260724163334,30.10855547995134,26.9276099373888,25.011309501078475,21.92132358489407,17.06794729081144,8.639903752144555,-4.99283406531762,-19.280153378501055,-29.78766986822305,-38.86015258022994,-49.3579800387511,-60.86397272668519,-72.877894146464,-88.19911245198068,-102.47153735852723,-99.17376286991865,-68.1501449530687,-20.86045894241906,20.64554633133651,44.84604363266534,54.93941914572077,60.35461647962315,64.83984142809972,64.23177688981677,57.9427499324588,52.93329720898679,54.597802919456356,58.99755108568336,59.538009534074426,54.60945531514551,46.842146978815066,38.205446070784326,27.945197980690146,15.506786443295633,2.45026027200359,-9.4410770637503,-20.807814351950856,-33.85206276317043,-48.51393961495757,-62.510061310791215,-74.2915933232818,-85.84309953748183,-100.47666076147166,-114.37633840837559,-113.35517409652347,-85.36948073228183,-39.39524440178473,2.1732111968916468,29.350024752269267,45.41747633585239,52.99612720707652,54.82862159783387,54.62786858735797,52.93920216590531,50.75761874792603,50.69476299431126,51.24815129768093,52.358729536480084,55.6448503422532,56.25441349764805,48.65765167261151,36.13127424552656,24.79332436405103,17.093905226037723,9.695651055541125,-2.5171313834958706,-16.15279862368276,-25.11464958748769,-32.01334406395891,-41.1217557193761,-51.52572666284554,-62.87406519547865,-78.02141327050042,-94.10959570001371,-94.47229302609465,-64.84391311700425,-19.001101274759623,16.532652371949833,33.5310810142949,40.55537014960244,45.34844039175393,47.94499269841813,45.69447492449186,40.90730302787974,73.0,116.0,80.0
-16.77135264509792,-28.794142649308448,-43.339425999810416,-60.844041068046536,-79.06368454116901,-83.85479927544465,-60.263033700615765,-17.071220584368973,20.028154138343073,37.47725075058301,42.27066707793093,44.873193250272706,46.774191738439,44.36224090539307,37.09026143057983,28.891684952100775,22.73619323794824,18.667924825809894,15.313333108876096,10.065210524454018,0.7017478645216558,-11.343384658535532,-22.131243922132533,-32.17897798819762,-47.16651231146259,-68.73179699276733,-83.69536258103095,-72.87671792330934,-35.98340350221667,4.33298593374213,29.532487282290756,41.571587309332095,49.5812093854523,53.35226183502793,49.76070210997483,41.15429765190299,32.41815574911476,26.660112261768266,23.567809619361245,20.130798862944154,12.974466241543762,2.2744671192229213,-10.070913786443235,-23.25871704610095,-37.377070898972406,-52.524470052607555,-70.59008151087477,-89.54378612073567,-95.686651424897,-75.14788715013775,-32.22631868287544,11.620436828426989,39.567043521016025,52.459500181473516,59.02282808422389,61.42471718873791,56.981847982014955,48.48659114164558,41.64200297095543,35.89260007701035,27.533185192158392,18.031758293378058,11.138983238641005,5.080572060350951,-5.407479531493449,-21.50205476247948,-37.14615315954514,-49.01208694028621,-64.28704264143424,-85.2914389196767,-95.47702931371711,-76.10508669535206,-33.771512812464294,7.278497746351885,33.26220509311219,47.34049369824506,57.61646848701762,65.94385648854234,66.94712068965376,59.814048851189426,51.147237170002605,44.91533970382946,39.767063320713376,34.81250132173643,28.910751791685644,18.685531481467827,4.585134801659065,-8.564404955954924,-18.942605809832724,-30.17098573836974,-46.40276093183258,-66.62368302343779,-85.531518920675,-94.774024518386,-82.56808358651978,-44.95412279305821,1.2738289162747574,33.25069754577774,46.98255629815604,53.23022008764721,56.22636229243965,53.416888795664136,44.745039696330885,34.86854356941869,28.854638019118887,26.390254726811527,24.28782227718684,20.723163124038617,15.145431294227512,5.159732872662728,-9.366081655546,-22.70351503778323,-32.37325039847542,-41.70694072335945,-52.65737733448905,-64.19385935638213,-76.88151942107793,-93.02119571646436,-104.10524614016855,-92.97682223202405,-55.17085183668627,-7.447106260035398,29.50126463637795,48.8140959268719,56.61592402932666,61.85988765166809,65.37921443700708,62.790934118520894,55.984531058205135,52.72943517348958,55.93075163395992,59.737467023990355,58.60122217917791,52.51652493117768,44.43012620356148,35.47060064734561,24.539852910690094,11.697465995867315,-1.1384725859725984,-12.675889262781707,-24.342219781597578,-38.00526282120483,-52.734568338661326,-66.13793608274008,-77.46646016748142,-89.7165886029415,-105.0323215887901,-116.38018547603114,-108.12844722313332,-72.95815825031036,-26.100640290128716,11.456251216604652,34.95376303780152,48.41141127590957,53.927114186363625,54.8839812887506,54.32713194501593,52.20649936544643,50.511167168861874,50.89796281613323,51.38543332936773,53.1519395747447,56.453648781816824,54.93021848211434,45.23216104698147,32.54149784391893,22.215679543304134,15.217474896696723,6.722082209820236,-6.685387352423514,-19.27521124298257,-27.047425870465094,-34.37904258917383,-44.08924780168344,-54.60466303370596,-66.76496314126656,-83.05211864267193,-96.80028809425964,-88.98698457682671,-51.992708915628214,-6.828838030954081,23.119969427825065,36.110417940913024,42.03121778559862,46.47116535879527,47.81686889297413,44.33550509084721,39.752676647660735,37.111713796556565,35.121303701189795,32.35345171879877,28.20634059725796,23.386073252274088,17.0711323709344,7.399869139923853,-3.159423171000856,-11.437400771445368,-20.09185202875375,-31.867731608953257,-43.65448642052931,-54.27052061251872,-68.53879179180232,-83.66126841363355,-80.9303989622228,-48.785411901834095,-3.0281015564590144,31.445705239355217,46.59185906305381,49.81244398152218,48.6472295712867,46.37405491181587,43.706844926398425,38.98050271248404,31.499748414328316,24.868648416613826,22.02297488436411,20.382241657095456,16.333544086776048,8.078987021768524,-3.489342866173681,-15.826056171031194,-25.95173798561531,-33.776916605291255,-44.28499707342908,-61.751771866668385,-80.95327351792751,-87.0747219782756,-67.81112065620938,-29.34563557651972,8.442956329693725,32.09721298795537,42.91891364614481,49.7323844053688,55.136504560781724,54.843709376750965,48.91943107728951,43.13904236562466,39.05662517324792,33.43825675394781,27.512367926772576,21.27649121175291,12.998763545101813,4.710319465295822,-4.889124364749014,-18.977695426452442,-33.58095805032166,-46.35394659834013,-62.0296175202554,-79.78938770637221,-84.15920825981746,73.0,116.0,80.0
9.534317835913352,2.696281744827751,-9.638433712376361,-26.41279668468127,-40.790156376954506,-52.68216441151733,-70.1392624922999,-90.43355860828098,-93.2173079677809,-65.23203340280412,-20.794692555895534,16.434926216939733,38.17039182847378,50.43216120726524,60.396864686870664,67.21628189854854,65.49615052713585,57.16030787998358,49.10274179333135,43.40178268974357,38.310643513216,33.34574980373891,26.50863274943045,14.823803749767498,0.4905666360922157,-11.766310824398632,-21.863152820494893,-34.273680297960425,-52.017782669794094,-72.52000426076249,-89.67540488343427,-93.94831359286322,-73.96401200366991,-31.323463453115842,12.627689740417898,38.68920651245414,49.13269733275237,54.52079727863662,56.10367683712028,51.3874144073159,41.729596871115234,32.6345367674867,27.91460885984187,25.871435878003044,23.427953694653258,19.37885986354996,12.841894260116522,1.2447022878679914,-13.609454363599202,-25.77164363318832,-34.94905583674873,-44.71212937737889,-55.99531416796181,-67.58720041217192,-81.26081886752299,-97.49951063898776,-103.78913286388459,-84.38833676022146,-41.33998449592671,4.956080750520342,36.7978528323516,51.79886872921667,58.14671867974841,63.265003202435935,65.3536782254035,60.950003976820376,54.359603335477054,53.138855171221934,57.30312302623514,60.022897003329525,57.23021679270122,50.272722439818864,41.96391800610843,32.55978169915985,20.960413802148217,7.892448475669728,-4.596152010225886,-15.91731083985156,-28.067107580034197,-42.257005620773796,-56.83512434161557,-69.56099974350643,-80.71933599544386,-93.91179711493831,-109.3291114145212,-116.69774608282864,-100.47236263145248,-59.52763064210139,-13.725545559459219,19.511292132396974,39.75197346818663,50.72234862727923,54.47778292412108,54.84636094767415,53.870184482948986,51.50894091028047,50.48066222509396,51.07074961993114,51.6327591964316,54.13643455089323,56.83568107667065,52.84935197703436,41.56788384545515,29.173330235996126,19.964458344705314,13.211138956189998,3.2532923893487924,-10.766390213057425,-21.92158697928195,-28.96395900483475,-36.983023575363276,-47.099313809309166,-57.79867058938755,-71.06315261686788,-87.98290292926376,-97.61649566553103,-80.82570780964488,-38.4523846009207,3.8937558902410268,28.218628335416224,38.14002930461122,43.43773669492952,47.337481899938126,47.23413875603741,42.893606350395004,38.79899773852727,36.554467577682054,34.443706845960556,31.287385723075896,26.853200672811628,21.831931734011913,14.6147032200253,4.227428172721166,-5.7823097512729955,-13.679357015860862,-23.222964604234956,-35.46210699559651,-46.68412934166241,-57.8293779926293,-73.42186745641774,-85.65857930737285,-74.46779416618347,-35.74084824232162,8.87513301318661,37.630447186165156,48.31836667829902,49.72361306829727,48.02628270287191,45.67950782340845,42.65362497800398,37.01673479394331,29.27695113044661,23.680127527590695,21.615538022533332,19.576867704104703,14.397509243005269,4.97757119462009,-7.10777011743672,-19.081794572022872,-28.30869325120071,-36.24761064283039,-48.617891061137726,-67.65275174415022,-84.81650388480762,-84.273451294731,-57.87386549718189,-17.496527175474107,16.93740835406337,36.172835604573706,44.9748557295734,51.59218190196112,55.79483037730987,53.497109063218794,46.996053566890694,41.93986667399436,37.634331295047296,31.648927440915116,25.8721977461975,19.052395699588267,10.52619394712666,2.287361160380948,-8.534821307778113,-23.416700896637987,-37.31527098395162,-50.377068950634445,-67.36552622074801,-83.36315572594009,-80.25591365236517,-48.49243535851109,-5.603476320644481,24.45626480311905,38.34924945931248,47.32816539576588,55.302526589123325,57.08823166070865,50.34760581242975,39.632959641107725,30.593573787997332,25.118976224109186,22.250320597780295,18.75150083206989,11.015418803244525,-0.2750870073844493,-12.8008965831049,-25.9480827675123,-40.388849912884766,-58.28126139807844,-79.33410966800058,-93.2991970323772,-82.57541281057975,-43.4285061922079,3.4865235773506797,34.721936534439166,47.80450972150157,53.680941885438074,56.270185608604834,50.0985274458506,36.01532973925432,25.51572227907413,23.98579295192109,22.481649637457895,16.01078616006584,8.583896634106832,0.4735122519132816,-10.082798904405484,-21.860767368267954,-33.79846051887512,-46.9167410187347,-61.92667485595726,-78.15802562778796,-88.62508152374315,-77.71256972907916,-39.45020469693612,8.162920973754483,40.70779652335363,54.38487961212189,60.5719922246073,65.7082087331776,66.05287164174231,58.47364075238737,47.994123305581404,40.88870370323506,36.63470506485772,32.464914504869796,26.915170587908527,18.22458978210986,4.95939306407568,-10.917238395339046,-25.660855625082082,-39.15371340911884,73.0,116.0,80.0
59.65493529310344,64.42812039722712,64.72152057301389,58.89864309891555,53.243678579888545,54.0525875058348,58.52737632400145,59.80763910505207,55.502240827694976,47.938280197516285,39.417196136404364,29.448853782106607,17.248478925925085,4.145592517706996,-7.9335223833837,-19.234977265104412,-31.985743732821565,-46.543918537852306,-60.76547703778153,-72.82202386225931,-84.16409359625231,-98.36959517591592,-113.00545267633736,-114.94302801478052,-90.58112749707696,-45.71818261851767,-2.54436400556689,26.470901207993684,43.797748128598016,52.407328778619835,54.76079622880114,54.72120892270366,53.26007357198133,50.948405918318954,50.60708260891566,51.19705502353013,52.07445610458517,55.18721470942812,56.60454704177938,50.10498203616972,37.83529697760139,26.098638804734243,17.96502596087602,10.901734964503285,-0.6308809961846056,-14.550471116545493,-24.172710596951323,-31.00407184943736,-39.7828780155027,-50.12440473926769,-61.20420743965067,-75.75349263852753,-92.39369085644472,-96.0731520792182,-70.32356594365179,-24.989341749060788,12.940903257813833,32.084713346481514,39.83832512437445,44.77126673537263,47.85007856429752,46.252702553592336,41.50265024514126,38.02504022690324,35.99819785203063,33.67769427727112,30.099284384518935,25.475628633796106,20.0927556055434,11.85088286875024,1.100794800084962,-8.177965395673153,-16.083786343011226,-26.62472436840603,-38.93026245086667,-49.66561236629125,-61.85164701080348,-78.14207260703179,-85.57483185057237,-65.50191780913187,-22.214055524148172,19.29762826090037,42.23460938766883,49.30425809997127,49.39758172336208,47.365533787344496,44.94647527338702,41.36350888919914,34.84341832708346,27.256529807784982,22.828970542748813,21.19856227214787,18.499837877003454,12.084269248713253,1.6507946438667134,-10.7230253153199,-22.076823699045644,-30.522806381197377,-39.110186128059546,-53.586936281158984,-73.45370794422091,-87.15603514660201,-79.15459987195484,-46.71447940010654,-6.229511665500339,24.063613739871226,39.34955757618507,46.92367290599167,53.280685448059366,55.85379695302127,51.769132326189656,45.25247248853012,40.819704124616976,36.0185580883499,29.919263820568915,24.13797169486858,16.65091334097282,8.130717602098688,-0.35910892770608493,-12.589130339630398,-27.719690238889722,-40.93756065161225,-54.798509043585476,-72.73172505897928,-85.28864219513804,-73.73895502654895,-35.980181241729866,5.0280937957169085,29.701859153096905,41.00493582890379,49.902506847179126,56.69172876914912,55.92371095120287,47.3602881989878,36.68858293510168,28.653226415783053,24.112101908026506,21.5094238297307,17.012470376634337,7.995570576052219,-3.825134344289897,-16.531945141364503,-29.914451934665284,-45.10451533550731,-64.24954408205564,-84.86451431044898,-93.37911558150596,-73.65660791709314,-29.39875156784957,14.697119372572834,39.9357211324975,49.81140052589819,54.93845351285752,55.60774970592193,46.44619199353316,32.075162307785455,24.366273468405957,24.031726962776144,20.991357813459167,13.822149040000792,6.430856808592697,-2.3308162046680674,-13.45113253300893,-25.273172552285644,-37.410648954522976,-51.056204087896774,-66.59711436670365,-82.38273734615278,-88.3331766901406,-69.11150268404506,-25.39675977418787,19.77587100728973,46.18536190223676,56.43447600240964,62.19639983927463,66.56423516434668,64.60624978739035,55.37565505114983,45.48909444595918,39.51312562196627,35.50009339488796,31.063626215784065,24.822246259869285,14.860267001932643,0.4497515889791735,-15.382284709441084,-29.60662672983389,-43.10597456842273,-58.40574229010329,-78.95724996480705,-102.33881497863356,-112.58500891151577,-93.1352322812075,-47.944006364927354,0.44745103213196935,32.25057551875406,46.57911654617433,54.57384362324575,61.84976655920113,64.65643684040239,60.61556765805147,53.252234522711426,45.5809105921854,40.74022634656124,40.196792855037174,38.11656547600917,29.970749502956952,18.41674533466839,6.497646089746371,-6.657768659208368,-22.73268239903819,-39.59149703097684,-52.996364691226134,-63.37019573751405,-78.34558832881173,-99.40725737431926,-110.09410082130198,-90.32689899797398,-43.95989960621971,1.9146270360529074,29.679386441815303,45.68172126421659,57.99508804797965,64.2008367354202,62.97747582370922,57.006534453886474,50.78000398965291,48.23695447693328,48.9097241230275,48.0681718555925,41.27191428658519,31.174492105598606,22.460696352656335,14.336675016746355,4.1618389907457605,-6.952434069384692,-19.766618930647518,-35.307969078335155,-49.49461398701088,-59.644328842635524,-71.58586374214818,-90.73961130926752,-106.3495238097651,-96.58891589361336,-57.13491180522102,-11.83600602862866,16.269889871218744,28.938951927179616,38.71255794251945,48.135402168962,73.0,116.0,80.0
40.26029638270777,37.38106675294381,35.41007245720265,32.80051010350346,28.818064186492972,24.06148129238229,18.09480705005682,8.841997773445632,-1.8666658071393865,-10.422027278482338,-18.75461886352818,-30.19769124331188,-42.20858619996535,-52.75861710760687,-66.34247486942733,-82.18635235852574,-83.00990262262242,-54.43686197544367,-8.910630531091817,28.018044345065,45.481253071884915,49.747484276638204,48.90970658224732,46.6889359656198,44.128946037716275,39.797764783279895,32.55759063306877,25.54020016853576,22.237429081105294,20.678485428424718,17.0993949416254,9.416504490718056,-1.8410069935725732,-14.25175269817726,-24.790637306990252,-32.723585532115735,-42.508911015253595,-59.08758452194021,-78.77591367371411,-87.5946713871556,-71.8434356438672,-34.87786843574061,4.084158033892517,29.84961090175021,41.89020366925144,48.85028860292444,54.65187482502776,55.296335670689146,49.83231088216397,43.751407005303115,39.64645318972512,34.26685322060448,28.26208623907702,22.229002160089948,14.154920436627359,5.79134671718318,-3.3604397349958672,-16.928605687752356,-31.789414778814212,-44.60288065832397,-59.65710193693888,-77.73705915412931,-85.07873890976263,-64.82755335148379,-23.233836871319237,14.115900406669654,33.77633068347698,43.55913280061594,52.337905757933335,57.40747144731887,54.060865784875396,44.210095979807896,33.99330757614441,27.015957246689933,23.28670616652828,20.603490673597538,14.857738402851565,4.745073464910485,-7.435809321930067,-20.313083805180565,-34.018271185043176,-50.1780206506471,-70.42453492286562,-89.42226969077166,-90.95067223477447,-62.523916141665296,-15.43211850307759,24.154106398508493,43.82306847020191,51.51099446873061,55.87420490285425,54.03843812880752,42.294088928014524,28.782590271932236,23.93056897956231,23.759900245368286,19.118108154718854,11.670086884102982,4.1545680557780225,-5.355225763208491,-16.86483402558247,-28.698535958855143,-41.15936591910876,-55.35730957822556,-71.34903632596658,-85.8453062361847,-85.82121605352383,-58.287899818092306,-11.242702561388866,29.633033409032294,50.25906941018844,58.182049829747,63.76786738948163,66.85775051645241,62.48796943199287,52.242890406056425,43.36631678136117,38.29446738285966,34.3218264551709,29.518933851293426,22.412916571609024,11.093634239360481,-4.180251380295133,-19.677790804501583,-33.48828477138041,-47.19429036111839,-63.69165846687099,-85.87956707354255,-107.59075597573914,-110.33232400872541,-81.92705508916731,-33.15757763438714,11.775028360616105,37.75702223761149,49.07198146612041,56.80313495314399,63.358407316589,64.09957075229276,58.648061201243955,50.9714774742237,43.71135784570847,40.27965113112305,40.09615069956148,36.36903049326774,26.78560761790314,14.976601642638835,2.9362699853591194,-11.008653443755568,-27.719696621529025,-43.953367156031376,-56.05774013966321,-66.86632270571447,-84.19924661324544,-104.63709870258778,-107.96495424512099,-78.68296819991285,-29.392844914287956,11.862773228721906,34.94296158727156,49.59704186197703,60.58939295886887,64.52832469581679,61.578442652816534,55.000100534357905,49.597284520046195,48.23703486101354,49.10760454557641,46.738344527069515,38.43858816565475,28.418104852919356,20.22811169876339,11.605183451184136,0.9965698382656878,-10.361209587185188,-24.069056244802525,-39.7911164695787,-52.745165043905246,-62.50224696125913,-76.46731851516186,-96.56834639234857,-106.91991198430598,-87.5834605863372,-43.273423829510634,-1.5382568736101652,20.907261095609957,31.70482922460403,41.62133440849511,50.24328346292578,53.62615420045731,50.41435448568261,45.92820927191824,46.60809361884487,50.96150485814471,51.65573022006813,44.531438861696365,34.11437913404659,26.413731473955004,20.765460403573282,12.211681080989068,-1.9831073766439984,-19.385442234432464,-34.97878556708402,-46.94982398551761,-57.30955853323722,-68.90595286184552,-84.3521308641086,-101.8743166657878,-107.40800531605367,-84.4630270166003,-39.59367224780913,1.8646681506085623,27.05547095951336,41.03611150329967,51.118562127760256,59.71091751633163,64.47747496308169,63.89297212284171,59.51062911220268,53.64904822861399,49.75698947518424,48.92767886242891,46.96672904037514,40.936740462436426,34.45189896632759,30.232894038431045,23.378776550715124,10.526351755382423,-3.527698459474407,-14.981279358105072,-24.764740713668882,-35.117823190322625,-47.16885801890425,-59.44603174579644,-71.49986899555807,-87.00116683538359,-106.78649029669158,-117.40021709248212,-99.60531558494431,-56.29058006407476,-10.257667945973374,22.83623043846036,41.58144539614555,50.25878383293605,52.91503783735922,54.11835829541502,55.22964042018356,52.39424990290175,45.882482066183755,42.96878766789312,46.517610092501656,73.0,116.0,80.0
