-16.974171590260752,-545.9896861441189,-709.6850416968484,-632.7355741510482,-576.7735060272062,-581.2077306130694,-574.792834301818,-550.0151913303523,-542.5442042457233,-536.4207393273044,-462.13908706891294,-302.5653213423725,-138.0240210154255,-35.697656985125356,18.074794107483836,58.760327617288915,93.45747512706905,114.38620788965356,118.76146525992374,110.46621355078854,101.63141478876841,103.2716074945958,110.0409126064999,111.48447599630158,107.63512578463288,100.45604062560366,85.88085199292208,63.798462235314894,38.02807732008813,9.475081041500463,-20.13468954693207,-46.20078800525874,-70.56532738052535,-109.15805624413048,-157.9298928375437,-156.10374771097517,-52.02599087590916,98.77004204841501,197.4131100542308,227.72958669827673,231.62809752441012,230.41291440295342,219.76750566174996,195.53556618663205,160.0632039151655,122.71519513673013,94.58601625940082,78.73130934961766,67.68255832434016,51.014031616486186,26.583933922061405,-0.20813471536079545,-26.477681300758675,-55.69353688144439,-89.04963287534636,-123.6333208506908,-155.81244220351093,-179.6528153980461,-200.3404343494908,-237.73167327144205,-281.6904509853484,-262.37462141971093,-134.23338000848912,28.490107287556572,124.15106686762228,149.65682166061555,154.39932778169532,158.01989568594027,150.57524724472898,124.58379291955728,88.99839147194693,60.937436214679494,46.42217809239616,37.66635437074945,28.32934149069982,19.971623705843626,11.070672752895366,-4.758459264516942,-28.181469331820715,-53.0251420007063,-76.96728012090686,-104.16578839055768,-134.7648327974251,-160.2006729245888,-174.38489698452352,-190.86271908820135,-230.0550673016385,-264.718520222649,-211.58978134228576,-47.40334028509393,123.83216880376521,207.17137088940575,219.38008802081603,215.0620469192082,210.78747553190354,195.44527302758974,164.19227836117508,128.76279928259493,104.49350569164078,92.12201380483967,81.92396424245004,68.20955398549862,50.32522194305767,30.0533751318523,8.720011791249224,-14.842914762646442,-43.250440018047186,-75.2208236249109,-106.43453800372643,-135.57101352127458,-163.5824331729784,-187.4053506098887,-208.41530611295596,-241.48894778219227,-275.51837470318605,-237.63966250272955,-83.77020957052423,99.41218015434522,201.18336202005912,219.3850528749799,211.61564384837874,206.6387057320018,195.64869114380852,166.98246129928344,127.40750999180445,93.95882082804044,74.83270468805239,65.04999770866407,55.960985946456304,42.313158049531346,23.730047460462657,2.306638457798042,-22.023730589504368,-49.778695768592954,-78.49763802479356,-106.1310156952401,-133.60871377311562,-163.1762894981613,-189.8774727286571,-209.27937170546954,-237.16511008599048,-279.36387025452774,-277.20572785973343,-158.7254532259811,34.11226085794535,177.02694692255827,224.77297589025213,226.22395367269357,221.82716043583804,209.9812918561108,183.40003311235577,149.12194206113034,119.49006264163518,98.3638287578607,81.41877199486905,67.491977585134,56.81382751727674,45.325296793799296,27.593062898382524,2.7997314203109043,-25.5952858216965,-55.56636643980782,-86.15343612003974,-115.28854282129736,-142.44490551880568,-167.8199382942767,-189.02376901384702,-209.47912865667195,-243.73747045779805,-277.5306382158111,-236.9667909647445,-79.50838805145979,105.98563573361533,206.34025291281063,222.99800642716534,214.7231956566295,203.19194971405847,178.481466806731,139.10563108655947,100.36584348125879,75.63677153319708,63.121189316265585,53.813004887154264,43.918758773597474,33.297171529790766,18.54465669520188,-4.2829142295512375,-34.50406996594813,-64.93269610500458,-89.38529895526611,-112.03571689037221,-138.23629210727202,-162.18461979052506,-180.8698067452428,-209.71332305713068,-249.02253298158513,-238.2388759995665,-114.91321924980848,66.51871280941621,187.32222637556907,220.54773456405067,218.21857647761388,212.64326143263673,201.9118983633682,178.688257668057,144.3097369461898,110.55131929824097,86.19803179280517,70.00605147621012,58.14188522747407,46.02403668111442,28.530858936489494,4.3936400627514915,-23.803841973788195,-52.39886293623522,-80.17063871758128,-108.00398235374625,-136.28778872858808,-164.28816878956175,-189.28522995748264,-208.81884711122586,-231.94884265776054,-273.2179124826906,-303.3621096106005,-239.26823952732911,-61.9361649536629,117.74933362482464,204.50508506300807,220.64235383374827,222.4010554619903,222.98614833783046,210.74127823985944,183.97243547474685,150.97648696954474,118.83669439283874,92.07729849774022,74.13666835062295,62.98723123292284,50.74743304682459,32.2654758902451,10.255314763139285,-12.679629102220911,-39.068508755449194,-68.68585895316696,-99.67950788946428,-132.83374189329126,-165.22606317999032,-188.3020336033114,-204.2893692891767,-235.99521284426706,73.0,98.0,57.0
-85.15693968518318,65.24957755133873,136.55893672543988,151.4209422707016,155.74984187726787,157.59279862139445,144.90150421006348,114.51230947293845,79.51534582344294,55.5324369338944,43.75762777256299,35.041812794416664,25.725965304869664,17.725904164756688,7.4295470222602225,-10.966977982906597,-35.48020781562753,-59.910480212138516,-84.30672551783647,-112.90769341225132,-143.12662872818038,-165.3202335401044,-177.76609703991255,-199.63820488188583,-243.71888847084884,-261.9022053092153,-172.84319341817138,7.383305358641902,158.1530773927162,215.28979834485293,218.20242739680816,214.13778867892188,208.02203426522885,187.80962022830184,153.57930471663357,120.21612573410914,100.08739838386707,89.33843179276049,78.4165591420328,63.418156992980066,44.61928158929537,23.99520461258635,2.2649565294045684,-22.494460419350816,-52.31426390690055,-84.46677176633096,-115.00945029976872,-143.8151961479149,-171.09707938214385,-193.26409127132575,-216.13839368856364,-253.44753868752548,-275.86031096538704,-203.7251554316963,-27.64875940629509,139.54396579677368,212.60271332258802,217.59533574827356,209.83454215843918,204.84708155225206,189.25980662771556,155.93554791898225,116.45529070192002,87.00187477334246,71.44148870794935,62.68291763738143,52.585842690101195,37.36570574621421,17.76607065583701,-4.350649608858967,-29.758933830106685,-58.10961829339896,-86.62117636862986,-113.95275095449897,-141.95625420321653,-171.61814582301548,-195.9504674697198,-215.42238742152279,-249.07465179705008,-287.4051734713085,-255.96728626600142,-105.25883551080442,85.04787738564934,199.35822827117525,227.2532555496403,225.06113159852873,219.72021475350974,203.76079597684117,173.70348700653318,139.67104954996557,112.65348067993037,93.20845021350496,77.01570810038383,64.1709675013905,53.844756772547555,41.00582884233329,21.031194518862108,-5.18529596264279,-34.11355710337973,-64.42650296524369,-94.7945731799777,-123.30173104856776,-150.01982802237393,-174.47975595107314,-194.45190852391602,-217.48050207233354,-255.9059364566322,-277.2859232355719,-202.04981179218393,-22.42085713648533,146.0525116836724,217.08651464242246,221.19020043192253,211.97462560350286,197.86297072199227,168.1409367762602,127.02670938265366,91.5671212137354,71.1699447060752,60.41870617321803,51.00832218620065,40.99580009521206,29.681203529364556,12.867399885750835,-12.462760984381942,-43.68705212433434,-72.63283560906805,-95.72979377220491,-119.2900078867398,-145.80966440091925,-167.7522493662707,-187.29829004326658,-221.4415346349167,-254.9696884993612,-214.53476899875918,-62.840773240835276,111.33490448548335,204.10328001246955,221.20446325415858,216.6570251937998,210.4731094491799,196.65832287814067,169.51303420507264,133.89954182181353,102.46272006186864,80.86056842766253,66.2974938958565,54.92036561218933,41.6748615707455,22.177564666471923,-3.5092218816766025,-32.146744515508864,-60.478395229799034,-88.1705283762268,-116.135851668423,-144.4813441033874,-171.9977270165078,-195.4182152634653,-214.31358131099782,-241.9416731045753,-286.2859044955425,-297.95821081470064,-196.62463220426804,-4.017351030881436,153.3492272251421,213.49823223360954,221.11010929616114,223.14597553114095,221.16514205678718,204.18987681038394,174.6995071569824,141.37425533016787,110.37109277910135,85.91983356079263,70.5118393506095,59.92895904726504,46.057578665016536,26.04114952258563,3.788579624042919,-19.849264922462634,-47.42135679873059,-77.49160836183492,-109.01985303234689,-142.60960125596384,-173.17028627371457,-192.90548972250576,-210.7762112615548,-249.77101053279986,-290.3731845206177,-250.24504568292727,-91.98127544219817,90.67134206176101,191.30839012627058,214.94216961554042,217.0224787009839,218.16632995579982,211.05048194633412,190.23416982909146,156.89653440183972,119.59315472632281,90.87427371058995,76.46554047087452,69.96321515648386,59.20410092447486,38.92000694496382,11.966918103879602,-16.296148267676248,-42.025222833165074,-67.56253513487452,-96.19329552249717,-126.65247966445672,-156.42315910298757,-183.12807590220308,-204.2247153671514,-226.91163421222936,-267.3095905160612,-302.74433300405525,-251.80198392034632,-83.13947152990362,102.67663402071332,199.62254918725387,216.71356378346192,213.22509346661468,211.92777186350568,202.53551602710598,176.91337119303802,141.25540653472433,109.25628709389794,87.94699593047326,74.47231131138726,62.924140401755515,49.424969523119174,33.9589478931196,15.81060854314322,-8.972435058822125,-39.29059505512655,-69.39857087425086,-98.40520253797044,-128.1097698052249,-155.18845863884377,-174.40783464139304,-193.23328755416614,-229.80585848981514,-267.96024989062937,-233.61455803891386,-86.25501029384893,90.59956163882008,190.2021948571146,208.52094288993106,200.13110432782833,73.0,98.0,57.0
106.44097147445355,81.28028803077108,68.62023929661983,60.17015074585295,48.75317908100287,32.04153990878306,11.620729819204769,-11.294991478392003,-37.7612954150219,-66.4404934957525,-94.62354032587947,-121.8248212258742,-150.52242160928697,-179.5727494730903,-201.42805914091625,-222.92456058736087,-261.9354147120354,-289.5091083762514,-223.701770993027,-48.202414710582154,128.73878202368255,214.00924664734515,227.5236273074103,223.89040480299434,216.6602268640058,196.25983145880357,163.67039214474238,130.8910224051193,106.48641644281153,88.27361357448135,72.90620891013717,61.09249169450067,50.666130680427536,36.045070234165706,13.929142595505608,-13.372235582705903,-42.75161523091195,-73.29907883721184,-103.26101277363749,-131.16736518775048,-157.4360819590372,-180.6938629558043,-200.04272732644648,-227.0869645126052,-267.10673763417384,-268.46679516099545,-157.35996811526408,33.44809898155772,177.02544657210638,222.16030267705474,218.66149818858264,208.93182527976015,191.09817015474775,156.75003217573018,115.48396791728209,84.14196019164571,67.52165109402479,57.77077801311022,48.146552006271556,37.99979024485484,25.593707543055125,6.4435614212230625,-21.183863200942383,-52.64725750074979,-79.75718544564657,-102.14391793656998,-126.8885344459303,-152.9290588617872,-172.9604874428826,-195.15916569703953,-233.62774662288447,-254.54089281874207,-180.48090675050918,-8.782220413628433,148.41565353357407,214.269168907472,220.38130181002708,215.12197702599113,207.6476911671172,190.21788311609777,159.56174449937205,123.90271914473533,95.25824295184658,76.10395188338103,62.86801599214701,51.542283080724715,36.767128097321816,15.28794931148964,-11.660500213695677,-40.43893587758998,-68.49739612438042,-96.20022114918248,-124.30668045505242,-152.62140024684953,-179.3621746796451,-201.05756442569768,-220.51956962493585,-253.76689141931337,-296.97599404094854,-282.32804209375905,-145.46348997837677,50.36524763167992,179.99709471913408,218.18072149257185,221.48305846638974,223.61662886285055,217.96797836370516,196.56090562175248,165.13090847486583,131.98027588161304,102.45103620400526,80.57296753639054,67.31980529773585,56.55641838586068,40.79563404186694,19.66206206930677,-2.7596609188555323,-27.393291147026407,-55.97361235472202,-86.39701480315462,-118.57903407107938,-152.17116836184206,-180.08889547211515,-197.1945853460934,-219.32151898439201,-264.2333768450611,-290.9456812146571,-214.77258734812818,-35.502294386045925,130.14783529942295,203.47625481815913,215.9343578495483,217.59836103765062,217.34857167240344,206.5027946627976,181.6676426295989,145.9595927059441,109.94550343954081,85.29909707305613,74.31958048007668,67.73265256526973,54.289063031896546,31.60103748938195,3.684090472275667,-24.010201425591173,-49.205190642699804,-75.49714837033972,-104.93121493659689,-135.41528086413257,-164.59288924180987,-189.8031369536442,-209.84446768192345,-236.46406668439488,-280.9702002734971,-300.62879787010434,-212.88252133799696,-24.88826720115113,141.6335692711117,210.01201502534724,215.83984137049455,212.79877781242408,210.66239970567077,196.78502576044426,167.0613421682558,131.09309582556986,101.99791067307297,83.50421911262268,71.18326958738221,59.284236746265115,45.111686081708164,29.149538910777817,9.454388017754965,-17.423584904652255,-48.188634407732756,-77.77879745087166,-106.93077800779639,-136.5039164693177,-161.589374096698,-179.05685726907723,-201.522196764864,-243.1247868645457,-269.2074133581477,-201.24152792924627,-32.27253807773621,129.68098343413862,201.57075012850567,206.73066812803634,197.778960792968,189.6683417399002,171.46009658383613,138.8256773321086,102.98708547453634,76.64147718506653,60.4772480108183,48.36439884559236,35.47689686388534,19.39566150453648,1.150175309075392,-17.31713237603614,-38.23065957084037,-65.48749670354306,-98.05449377953772,-131.2796647573644,-159.31879059884207,-178.91236667695586,-200.04932340978795,-236.76050087372448,-261.11700027779256,-199.12038002554755,-38.28094652290663,120.46832390121696,194.6844343845536,204.96897562060929,202.9655098272397,203.37462953813457,194.75440179264666,168.9932482055076,132.5686999073124,100.26899252769871,79.65596568682969,67.09903452224684,56.1010425583448,42.672319810444414,25.053292402494122,2.0834036125830453,-26.978929787953213,-59.57139991882326,-91.7704702052922,-123.49889347460788,-155.20265004532644,-182.56665423492103,-202.5130837801493,-227.17152123646218,-271.7716129361951,-300.9878169692895,-231.97221476015397,-56.63366038245694,111.49390317664742,188.31241652638636,204.25230349891214,211.00193793418367,215.16378021846435,204.22238042891183,177.66242592908685,145.80937569408854,117.5067157891534,94.38421760554854,74.2216192503785,57.184523712007795,43.9903938232312,73.0,98.0,57.0
-30.261063039273765,-61.181470935743775,-86.4187657827016,-108.8274556659336,-134.66111919273013,-159.4193818254376,-178.24987388605064,-204.7347870526179,-244.77254489860545,-245.6400260697446,-137.2901040084566,43.72609812465963,176.98514804472993,219.41475764307987,218.94284503434196,213.48757442947337,203.95549117139194,182.5861134028077,149.1581235347033,114.57710285864972,88.88324922594836,71.8340364089784,59.615303174646925,47.86060000238171,31.266757295991304,7.925416843393299,-19.956859953361086,-48.646150134771815,-76.48788158662136,-104.26933909901956,-132.50474620548417,-160.647572816381,-186.27417998941004,-206.38359958852104,-227.96765694104812,-266.953307753946,-302.91577490035945,-255.44987702221806,-88.85965990898943,98.34182664424057,198.41720081425797,220.21142408793727,222.06407716110292,223.412125470715,213.33978796065284,188.09290307035403,155.4418595466356,122.89540463911727,95.18214009795703,76.00522674657958,64.34678327072496,52.709705991786315,35.04575192599858,13.227528994444574,-9.487791966904725,-35.30795561697967,-64.65357363388696,-95.44562850376346,-128.31397347787328,-161.2649445623269,-185.93551446340555,-201.82840064240156,-230.21685600697663,-277.6003788506823,-282.29942689238715,-169.7013476501579,19.47413234618884,161.02746912740517,210.50892987968842,216.37906976417216,218.10838723159486,215.58803686810262,200.75531031594204,172.13504206864093,134.98547192088859,101.31561052833943,80.94943365024965,72.55713965846448,64.85463083422809,48.56312235447737,23.837010003285336,-4.562243431158577,-31.461364479696933,-56.496325242243586,-83.72752135088666,-113.75173643017283,-144.07026668488407,-172.43939597648443,-195.94395979656022,-215.95683669856612,-247.91176263788623,-292.96863242330386,-288.86707064065604,-164.62288985156857,31.150956964612824,171.496080241147,215.13211446485784,214.59098720839324,212.58937087224683,208.33252873622533,189.61563867182429,156.65774952802647,121.58469163283372,95.67815955412917,79.58303169626154,67.90688490502548,55.42712624218923,40.67014655102953,24.05157301561506,2.4350986176908416,-26.21242870259102,-56.93343339049328,-86.12385103181799,-115.54176261767107,-144.52202373846833,-167.23047786486467,-184.06207092108076,-211.76440425765531,-255.57104587472273,-262.0835740345053,-159.46445611049788,20.875570061385126,160.38061040747007,207.22185784772438,204.08641839208335,195.67369722638114,185.953879082107,163.25243073378715,128.0884935038109,94.11904197867383,71.17423093014094,56.81885160645395,44.879981647308576,31.181657217969573,14.2265467052162,-4.167885544086015,-22.89298084811967,-45.38770019006198,-74.52379588022262,-107.82749078832396,-140.18408687633917,-165.73870493608567,-184.01971034668475,-209.04785714346175,-248.01900160488293,-254.99713326853336,-159.8722706319055,13.276635519691542,151.3978504732702,201.6067525720239,204.1616851710507,203.15805816446627,202.40477678045903,189.07325063677376,158.93432023313753,122.23205340110404,93.115266811256,75.51267781066163,63.99250821210128,52.579132069588084,38.05793180952407,19.02780986780236,-5.71924041324344,-36.23842754618831,-69.00662796284725,-100.90564683508399,-132.7552344046362,-163.8367214373528,-188.93412047627572,-208.16886030962007,-238.1342884779527,-285.2690579912179,-294.17594755248115,-188.7440407991539,-1.4114719501418467,143.47226557922096,196.24305394848074,206.0141730416456,213.05964763619878,213.89924428706894,197.78761022917166,168.49833727119605,137.05315289689437,110.38672462414436,88.31922395417773,68.89431902400402,53.054955263753826,40.39405586604511,25.110707645961977,2.0112050884120762,-27.14623232812502,-57.58611601276144,-88.14251573410098,-121.08106798194049,-154.99678469895431,-181.87959261991608,-201.34562726102237,-232.9773880359747,-278.78889052511545,-276.6697676707425,-161.86708999337446,16.240600643007735,143.24905383627066,188.31968242387228,197.89653994856198,203.27705166870297,202.65280441703092,189.19971600115102,162.28423700636947,127.83951152941937,97.18440473262665,76.32348593762441,62.27424530699672,50.822199904309684,37.36578206361164,17.48207999901897,-7.796853707394392,-33.57257146687357,-59.708387811080044,-89.13250245343767,-121.51406270813717,-152.6412296157557,-177.3802703779991,-196.844486322853,-225.82446148993384,-268.6494978353762,-272.9673120069104,-170.4089805862877,5.619624577952249,139.86378245860934,188.67344143287207,196.83225057324026,200.92974866804028,199.8232430868831,184.26944705977732,155.36452541415366,122.70084573277101,97.3162092140998,83.60910544880714,76.32302020132582,67.02914245481003,51.21613433453634,30.360028646273303,6.54449917707295,-19.649273042335825,-46.990174016488936,-74.36278521538985,-103.56543984854956,-135.1087502398863,-164.13445679904123,73.0,98.0,57.0
-243.24958904759217,-287.59490735424924,-262.9444536898768,-117.52942357642293,69.758231547576,183.51415260962946,214.06188748360134,216.78943150235202,218.2802235064815,212.74739108989056,193.81971011264278,161.83409539133862,124.3172126187043,93.87638653587405,77.67519595190008,70.83482441296181,61.18319764000597,42.1105738940577,15.758627197267852,-12.64786886225858,-38.71614149120087,-64.00643840894708,-92.2128384129825,-122.5886140477451,-152.57092980781908,-179.86852890115998,-201.66318452739412,-223.11375949804992,-260.96648882904077,-301.03643826693377,-266.11161955728085,-109.73535255300581,81.8082853011752,192.57681933767776,216.7271212006515,213.55806297696594,212.24457781265454,204.69389366524675,181.1722103985432,146.08327583737167,112.9289396782078,90.2121265034216,76.02939819966424,64.53398840138152,51.36162172845292,36.10927815275599,18.53317615013835,-5.237020939417743,-35.15891676296336,-65.50078315229572,-94.5097645558974,-124.16446525785994,-151.98075881640813,-172.2383842299091,-190.012810247795,-223.80891694545275,-265.14417036476635,-245.03371146460623,-110.46419871255908,70.01379344164516,182.61923468107753,208.76471104971722,201.32706112406373,193.55277245372716,181.0514369432149,153.90228966003585,117.48544689154889,86.27019001344328,66.4399867754222,53.34487474069251,41.23423468234252,26.587219169206207,8.940797841776059,-9.473463836205447,-28.78709710017887,-53.143736390495796,-83.92073065150949,-117.52905173922842,-148.49766893707655,-171.42864822097857,-189.69321379660056,-219.61813995602117,-256.89134835266015,-239.61582216515635,-113.35167367131889,61.35915490179468,174.26977088222063,204.5970074848913,203.38308020147022,203.46582308731908,200.31277096739916,181.8828720093174,148.29640296854495,112.61235718811905,86.98961422754118,71.87229442192367,60.8746062048121,48.78544951486042,33.06816699309367,12.521526108490127,-14.035761224755117,-45.683728814001476,-78.33076541036333,-110.05071822307778,-141.9891625205046,-171.94407932847756,-194.67165809215146,-214.7383249165029,-251.01883419000342,-295.83637702877405,-276.9632119726442,-137.8934731546578,49.594072032454214,166.99032106554705,200.75123158069837,207.89313062949014,214.61891404402516,211.098100263209,190.20638730179584,159.18865910330393,128.74972457723254,103.66116072042315,82.44532630939615,63.87506861560222,49.23779281096419,36.574978868401764,19.29959006496462,-6.017623892980576,-35.9610709122908,-66.32604396260605,-97.33100784291032,-131.05607718315457,-163.8537645751576,-187.70798953633118,-208.21786430988718,-246.23946278908807,-287.10276280189964,-255.59439263758892,-111.5832728505711,61.87989113858158,163.19390374018428,192.5294402389094,199.57827097331045,204.1177988568967,200.22323739221886,182.68779464664019,152.64671765464823,118.11782328594272,90.17909862415581,71.77043729474133,58.87415863729931,47.37622560585958,32.38122626622611,10.50561732374896,-15.33164317311068,-40.943315601014575,-67.79782404731186,-98.31642037526308,-130.87928119256432,-160.61342457934157,-183.13949070449294,-203.3987757025436,-237.79949198491255,-277.60654276147716,-255.52921615266413,-122.2506702972116,53.02180647845413,161.59219606024416,192.77312593956822,197.96239929004273,201.6773289033786,196.98408020834734,176.97264920959728,145.78464029386288,114.23168463112023,92.23660337038291,81.23172575153119,74.16217164803048,63.15376358384423,45.571552880379556,23.750988212284813,-0.809889710355233,-27.514133292736492,-54.87368606598239,-82.4915531143302,-112.57193234032866,-144.04261945150887,-171.16701149455707,-190.22294745395286,-210.50869041826954,-248.3856197721284,-284.50262544088866,-246.79640028697418,-100.17096680019256,73.11841141062897,173.06400567787384,198.65023002871914,201.91771473058714,205.70078987073626,200.90515235360706,179.68982588516675,148.49163124552774,119.32759556818574,98.075596142195,82.90997182782215,70.13636817171943,57.42336498987852,41.97176288144022,22.084806333932075,-0.14776631579291627,-22.8896441227601,-47.93218056143773,-76.4344305225415,-105.82604670612628,-134.8570872177821,-164.42141882738042,-190.2347013817022,-208.45060939695776,-232.72748233382129,-271.61411212342733,-276.79063277205745,-176.90080484825546,2.891690171179964,148.99214235273274,205.75200389520762,211.7285016349166,213.04791501674302,215.48272911686522,204.86310178672304,176.44027234545544,141.95947121869125,114.86863011383831,96.93033729336742,82.42270848286631,67.46110354078561,49.82902364008431,28.98178066113504,7.575557126204212,-14.22594453343113,-38.99444981473561,-66.85560613772455,-95.94896591524675,-124.67830557109627,-153.09291690834533,-179.04623301876478,-198.33947431349912,-216.62712649483322,-251.09113756398114,-289.5488481319037,-259.82469584978276,73.0,98.0,57.0
198.82299817692507,191.05340367486812,174.80398841193144,143.7076180659037,107.3881975159216,79.4547888997712,62.26255367681836,49.939662163547936,37.356887511490676,21.71880048799005,3.6088926234522924,-14.816574426098635,-35.12797227005412,-61.4722599903479,-93.56156866340969,-127.01798163356789,-156.0875802005845,-176.60450793230666,-196.45005861631998,-231.2791411032256,-261.24443829870154,-214.18822146372017,-62.37830344043867,103.50548993750279,189.72987189209135,205.16369901636097,202.99255401925018,203.5319775538531,196.85332726984313,173.32899913472156,137.49275422827085,103.92542931348552,81.78616866251518,68.5597138976483,57.647714225567434,44.67924676457498,27.679693572385492,5.500283053330017,-22.806877792436715,-55.19385543254302,-87.5474323966099,-119.24259182287088,-151.09102531304308,-179.38437376989455,-200.0449028083432,-222.81256735332641,-265.16077467874214,-301.0564959162877,-248.6605014492345,-82.61128396701172,93.83252104247278,183.0268604321213,203.35833344436213,209.99772499408746,215.26917400658988,206.73573361759202,181.76249237889624,149.97263007578258,120.94158006445367,97.2522435721648,76.76589176013266,59.209920646417665,45.62690151521502,32.34576484739605,12.761738618208836,-14.435393437550196,-44.775395671154925,-75.100880557876,-106.7920198930309,-141.00018880327767,-171.87035159708347,-193.09297948168944,-216.79180780411,-260.26537631008415,-289.1716121797769,-224.09594969498153,-58.71149370187399,100.62934475347751,176.8110377561172,195.17224542591285,201.22259701712863,204.22149827691862,196.61618980569514,175.0849928641427,142.602348424335,109.01566346309919,84.01986251114418,67.66540740299433,55.601487318428454,43.63395046233579,26.769487508919717,3.1871412777284416,-22.79544289404869,-48.415110277898115,-76.22388084850542,-107.69298054731546,-140.0109019546116,-167.92606147735412,-188.59353729343607,-211.2737523875651,-250.7288204666619,-281.3354699391905,-227.83591683657028,-70.25343761466327,93.99603909485951,176.4341131786367,194.97990639131135,199.1954248354495,201.69319257183304,192.78584891861965,168.69859352269512,136.17861032801818,106.62211489057822,88.13699199996829,79.18436193446165,71.63601215010095,58.68771640594313,39.589373875186205,16.918133924888735,-8.351731556314236,-35.42865902396797,-62.75081804956519,-90.85378329676958,-121.73052885534797,-152.6077074454901,-177.43199557170652,-195.11499065697927,-219.36735754503582,-261.50911777137173,-284.6529456856172,-214.081262142411,-47.21179312509317,111.64242101195583,185.84674023463626,199.98549183142205,203.0593916971292,205.79436113733345,196.42639863025533,171.15148787699988,139.4171119372266,112.35287158664693,93.24756258467171,79.09971182339038,66.55050501344482,53.38625776350324,36.64524887480153,15.763983800834803,-6.648567268318098,-29.764853410615387,-55.87501649660332,-84.97296600971637,-114.19558616421335,-143.38466736735754,-172.61715415249287,-196.0641973473298,-213.87125339172084,-243.24773950542357,-280.28107818304574,-260.28372012680876,-128.63857088943723,53.21622376868291,174.05162651429706,210.02066308371087,211.592659285478,214.19594634543088,214.31477641084425,198.19907491967047,166.36698788200673,133.04028848199724,108.962900089352,92.62824224374859,78.24621470880676,62.729188893178275,44.05596046917636,22.739450831503152,1.4416630505144858,-21.01300898408463,-46.787535903201395,-75.23609721417218,-104.30352280976875,-132.9271849332306,-161.05668292423553,-185.37251048581763,-203.02196090641618,-224.36494156950965,-264.0310813415756,-291.83457859573144,-228.69877404134678,-58.49324522479705,114.21152939565272,198.85183997779762,215.51587248604324,217.98156878736717,218.23327377698567,204.4722677976515,175.18994308344188,141.16305850391652,113.04480363089237,92.37242346525822,76.1908256744896,62.561276489543744,50.037601794573746,35.38186280147688,14.745358210083305,-11.354478318946141,-38.98548179904875,-67.14266915193706,-96.46581541254068,-125.44227171458036,-153.17149866634105,-176.8032471860423,-195.87390485357548,-224.28141097348433,-263.44458783337876,-258.6552610679367,-145.6660544600495,34.89835232365074,166.95989571177773,208.7863702438249,206.445155439797,200.51166973495637,192.57402592772323,171.6500308991506,137.96874527558035,103.3490877761725,78.37694916824952,63.574185004162175,52.84248036407989,39.4594879348426,21.30296009475787,0.22124047382214418,-24.98730595651475,-54.43835776027247,-83.40465589664076,-112.80194787726576,-144.51546930863782,-170.87506636375568,-191.22785058183493,-223.19936157388895,-269.82583569154747,-276.81955171776104,-175.01521903073584,2.6014552920103178,140.07109376187773,192.68603188087138,204.0280283793839,209.62154190527662,209.04052686526902,195.96797619944593,170.5545013199492,73.0,98.0,57.0
42.06799056544269,27.54734735792247,5.543152972788806,-23.102043585778905,-53.55243931630942,-83.98615220873423,-116.52173280980563,-150.687309684403,-178.93536326604325,-198.58941870215574,-227.40486581626487,-273.5037010152758,-282.8593923676711,-183.26430757121392,-6.636196184951164,131.6021668026332,185.531761762193,197.09987360582667,202.70666276421107,203.39098321259345,191.81351641276564,166.51362805433146,132.46016132853137,100.71467207689409,78.6042785242987,63.91125241421858,52.34847956455462,39.464187611926,20.541997452162715,-4.315500203923311,-30.181674913682755,-56.08385955494604,-84.98707015886704,-117.15575475859174,-148.76798791187758,-174.54731418788438,-194.1303759114471,-220.82583291822505,-263.3813094671075,-277.66290835875634,-190.46443309238617,-17.799100033065017,127.24599065717923,185.7826658844826,196.31631656202572,200.42901756622578,200.6898964516588,187.24866094010258,159.68987644150252,126.8398752865161,100.01014301694634,84.87877507472055,77.24211542677087,68.61383225862302,53.68304930935999,33.32929833687706,9.866928478787699,-16.054222198983258,-43.346805819489155,-70.67391480231412,-99.49110250517414,-130.91082435865914,-160.64563428153812,-182.98004166288987,-200.5313681431715,-230.0719963252126,-273.4192128389729,-276.45007204039484,-172.42608840877153,4.811627682775447,142.2803370774203,193.50147266134613,200.72620620299045,204.31931295824995,204.7995584777172,190.5197918222238,162.0665487228476,130.7947479036576,106.085754443136,88.83102402707138,75.40973080837966,62.927977872319886,49.02988935177858,30.94747162562217,9.329679860144147,-13.178235993312928,-36.91148651929586,-64.0946014522973,-93.4932451017532,-122.5541939819152,-151.97483888352778,-180.30108239416893,-201.25482675311852,-220.37425518569364,-254.91815364096047,-284.19165234635875,-233.50430505654424,-75.78342386328247,97.69631059822072,191.4850383619767,211.60191475402112,211.83633253342327,215.19109776855473,211.6765046643765,190.11847614158714,156.20051270464495,124.99133161504274,103.72788738166106,88.45870092348761,73.97681759108616,57.716362284478215,38.036720812533,16.53893647760407,-4.784959588896673,-28.10073503591637,-54.8126750772797,-83.66099471997332,-112.60657917089478,-141.1652139592081,-168.71175474793435,-191.04177063991548,-207.9316902713894,-233.9501524443584,-276.4380356256971,-286.0889349032805,-187.61554402005711,-2.980437739737021,148.72789337569787,207.86683400800905,216.23996736062045,218.76485855163818,216.08523841670817,197.2705290915986,165.25398639513514,132.1790242658127,106.43700401081946,87.34432093100571,72.0497330360893,58.919032168459275,46.22523424213176,30.124825132856074,7.601387174999085,-19.320400489167277,-47.00452875473751,-75.53754007522355,-104.9401010681651,-133.62012962314537,-160.63944664715476,-182.42670349320244,-202.34460501354826,-235.70070099304982,-270.2914104038993,-237.98617668215564,-95.39540065921611,82.23809766465125,187.13669463189112,210.08594940427747,204.42370094196392,198.96942835665578,188.1511703759265,162.83670804524164,127.44784830037136,94.91922711617188,73.2636134667338,60.382556719821515,49.46798405537327,34.6356403250752,15.472558510536173,-6.509063897932973,-33.24926293450071,-62.99659095415441,-91.62700857895865,-121.91893911824042,-153.0780403310573,-176.8381395029322,-198.38447744272463,-236.32827916741985,-279.6967238701928,-259.8431801658754,-126.6165119490717,50.80598731787475,162.89517284339613,197.8181557207222,205.79825418826476,210.4923891941882,206.63640985114972,189.76991747316399,161.5211307621452,129.02251137571514,101.89734736251268,82.80303877564775,67.85054420237756,52.812554219886806,34.91421583531488,14.961989664691025,-7.192202256619095,-34.65428166382009,-65.26742873002479,-91.85863880301461,-115.84286405520427,-145.3923744419977,-178.43564034568675,-203.3855553652408,-224.31757953594686,-261.9395434048598,-295.20358875627227,-244.08634330152836,-80.26760798459983,97.5253929652577,189.58949675866907,208.293968471339,210.45229265005668,213.83948735579784,206.20463815015137,181.7928109360996,148.1324994822352,116.40445951022086,93.26998032081782,78.2834867427227,67.4073758635073,54.451886060818865,35.80812775851062,14.574097023468935,-7.977940862300524,-35.17682221529724,-66.13793143644268,-95.3782070342577,-122.39281501617906,-151.09250561571827,-178.28791670170506,-200.23558989075707,-228.91942188732997,-271.73332147170174,-284.66011214150603,-195.93109916539711,-20.549481511281417,130.63873610739165,194.6220562128664,205.92992083057695,208.08490287585352,206.0757801069639,191.3479966209172,162.77457470083925,129.45968287673492,102.16363970057962,83.39840204538994,68.9481955654514,55.26630644972176,42.198690783162384,27.38637467763689,73.0,98.0,57.0
-168.0188247555822,-187.99905692889286,-207.01929674045365,-242.3679264287212,-282.15190785510947,-258.51462195128255,-123.99320374591974,52.92131171602567,165.03623820301584,197.57479235357627,201.4827733125582,205.38199117660935,202.46957886756582,183.3517646115405,152.76571814404514,122.78632613943901,100.46932249450926,84.72429718552475,71.79144836279772,59.200526223103466,44.292436999053386,24.93863305942972,2.8465225869213917,-19.791559770362777,-44.37764907409509,-72.51263599058387,-101.95053817436101,-130.95637779415694,-160.53138794847231,-187.28325342564833,-206.15330541280457,-228.4279324080051,-266.6370549166048,-281.1105419689435,-196.79757901155244,-21.611611104955337,134.6863503070868,202.45851765474666,211.8099962330767,212.57392276761652,215.604919612648,207.39848409773373,180.93709668556394,146.32509294125688,117.85919527050098,98.99251789074606,84.33021831943398,69.56170040930925,52.391072600234516,31.85747014449682,10.396281876282973,-11.191457097808549,-35.49043675542545,-63.02295888650203,-92.07979358054358,-120.87325204402006,-149.3543662309715,-175.9145542412245,-196.13232267933,-213.60262443883144,-245.34950955828361,-286.39946246553905,-270.5636241367254,-138.51394043355137,49.24391258942008,174.71621871854458,212.7058515811876,216.8419563070324,219.16437128796716,212.47193019222078,188.9039938491203,155.2589079773535,123.88243345052489,100.38846731346354,82.62444624696924,68.08605515730564,55.334120931986114,42.12494115069181,24.290002115405187,0.07651968542685739,-27.31213860371204,-55.10044816421365,-84.02146881646833,-113.33643364608227,-141.69457185913754,-167.62989754864287,-187.7637647299133,-210.10757196426746,-247.70557759854444,-271.43833936729806,-207.1320447668822,-41.93528526881642,122.65865199628112,200.04382995986137,209.24867288382578,202.66989558417342,196.98197783881488,182.4117586873546,153.1206536984129,117.20587678825186,87.47419483643387,68.90758780260872,57.35318199167948,45.721451713949314,29.431598312159444,9.450732013988125,-13.672734295071571,-41.79268941522086,-71.38664713708368,-100.01779771305632,-131.19169318225585,-160.91335417502387,-182.48357875148747,-207.10020634639505,-250.39060085442148,-284.23248627906054,-232.42141574235063,-74.19101426857343,92.70007647931119,178.8506024417396,200.979333086749,207.49982853788148,210.60743738527484,203.1106533687286,182.58475101548063,152.1063041523769,120.32519735095224,95.67488186828409,78.25845607881543,63.68603213506346,47.96579788064868,29.27749455156442,8.922967352241352,-14.504698069380412,-43.498410354840225,-73.5657955497475,-98.66980272659228,-123.59745339755327,-155.06723204599578,-186.84195609329535,-208.9152389988691,-233.00121206057045,-274.91967002576007,-292.6774247857095,-205.99343664756833,-24.26283919874806,134.48609343305688,199.7909283205454,208.85684725445162,211.66276620571855,213.3351138883074,200.71500440344784,172.51324365800807,138.32924498958238,108.74658680371766,88.23903803534766,74.95866744234121,64.16388795826825,49.60541831608294,29.752947937943983,8.317398438643943,-15.24902700312818,-43.966764268362425,-74.95089357810117,-103.22347461025896,-130.45244943584478,-159.45458518746216,-184.96574493426107,-206.99951883309467,-240.51377585324278,-282.032457590594,-271.3899836264983,-150.06177214470557,30.545728750500686,157.85237831377978,200.70759474108604,206.64210757565968,208.33766917292434,203.38659309116886,184.27404834303326,153.07581773005944,120.65441059348419,95.98197559150748,79.01746090405997,64.94915686756207,51.44843376791627,38.302129328223124,22.095478525137345,-1.1488955814634583,-29.770771545094867,-58.04647755548292,-83.28664109793034,-107.35860848548315,-134.12505272822983,-162.55124602009468,-183.58051704245779,-196.4215434303684,-221.56469526006742,-261.34944445066793,-252.51776758385896,-131.05063511266238,51.947099640505115,181.78609479058917,224.23464194925236,224.32599210434154,217.95209502982823,206.6778174257291,183.29812272096308,148.39929740730582,113.64214711033561,92.71220734112072,83.24423961746092,70.29234051427056,50.1152442655301,31.417683880804947,15.657274831622521,-4.322600266917437,-32.5554658661944,-64.52353322339495,-95.21573848093772,-125.7046053572014,-156.7495431498505,-183.0870274263291,-203.45302771129747,-231.69827927822027,-272.22571116791045,-277.55219698623887,-181.86948647351662,-5.868778748333981,144.71563416091624,209.02407827349984,216.31337879567891,211.50554374715205,203.49968584458546,180.85993644392386,142.75602905251554,105.75508225844503,79.90711712509307,59.1213472738049,41.294527869148055,29.780554496782738,20.007353279685304,2.4403546716930067,-24.555008512253643,-53.14122852302607,-78.68389218059795,-106.3851177963173,-140.30514998730692,-172.88007174546922,-194.93050429128158,73.0,98.0,57.0
-244.36107210092132,-84.28208897469113,95.46031927522385,192.8198019068912,214.96711979891984,217.59342915960858,218.77809637499655,207.3370108325431,179.65868989007137,145.50731454605784,116.30479350529949,94.80882419342197,78.16788283918022,64.27455271410273,51.731345223903226,37.621567453740916,17.88094413333638,-7.709493926930405,-35.3007401277092,-63.31270382749154,-92.5414678324148,-121.64258702617853,-149.6068973646667,-174.043878126689,-193.20030246109386,-219.44468667896774,-258.9793772097884,-264.8042932626831,-166.89095848382402,11.320234869039087,154.92777131041814,207.08116683785352,207.4060391401675,201.1705472514527,194.20367948017292,175.33745985479717,142.81860897975122,107.54285323727976,81.02746025840898,65.15115736986276,54.303143880872895,41.53914022436718,23.9237663743877,3.20061729987981,-21.310759941953943,-50.4521078557005,-79.62880857952555,-108.69340572245598,-140.38371156359992,-167.91553406044318,-188.31516300577,-217.68393814054747,-264.1017726956715,-281.24617826101655,-195.11294471798098,-21.141950000067073,126.96290323069503,189.29991480568364,203.16470085848962,209.03202630838794,209.77692436118642,198.47261165945966,174.52327803256355,142.5796544779026,112.29307547074549,90.08313871061475,73.94418179859949,59.41574275400537,42.83854746301111,23.53022857179407,2.6422648223389955,-22.341140300584478,-52.45524172358378,-81.3516930964683,-105.44867518306586,-132.00414633671718,-164.8173337572204,-194.25741401257397,-214.52045299906342,-243.6241694522324,-286.26966137626886,-280.74915189895654,-159.04473736414528,29.385360960535678,162.7826934145237,205.28589045837884,209.27164400829233,212.88702107273616,211.52525368861407,193.85319345007815,162.72930492360476,128.95667506842142,101.89138660503639,83.82346614682662,71.8599484727947,60.57113204534814,44.267297323338234,23.609494314013357,1.9064835863247955,-23.00348321234863,-52.96570747618149,-83.47828884314362,-110.96555822026562,-138.7426958387298,-167.49032302091007,-191.21079957883214,-214.81844106785513,-253.24044311363568,-288.0533565068702,-247.98975596723503,-98.73553402023514,76.48178653995821,177.42395694121998,203.9104248528164,207.26632301621743,208.04006567358724,199.44594772732904,176.123148132553,143.29043257182235,112.56753408033117,90.47581443348501,74.8541713133804,60.97660471557469,47.69214507230132,34.15704031630451,16.172522259936255,-9.113461857096745,-38.18922882123627,-65.64525894749266,-90.18660542140543,-114.69479498153184,-142.46400343258213,-169.81214575915908,-187.5432234855861,-201.36208868977278,-233.07180191191222,-267.8360947369973,-229.39264555389616,-79.17687913708863,98.70165678606104,201.71986206633017,226.27979876893883,222.60574348129558,215.5766695798668,201.3434870272549,174.083565050038,137.6122056361368,105.8645678493539,89.41743826168447,80.40956119249718,64.87617262665732,44.244756015880185,26.809885152579795,10.654286400967543,-11.695370403076499,-41.72668025410494,-73.57798222477864,-103.91248409350393,-134.75303228122087,-165.1342632667384,-189.2423924324994,-209.98937979830578,-243.081924002438,-280.80444098232743,-261.77387504663477,-135.2318063199442,44.85755118179239,172.14204596776526,214.5355797033326,215.04434279620625,209.94896339418784,198.8976986151331,170.9122731672571,131.1279523576028,97.24616727598017,73.70349531801077,53.482417883068116,37.31293889718214,27.22037375002648,16.041686326575796,-4.636240953034758,-33.044669342031945,-60.74961680157814,-86.12570648931884,-115.64144196873525,-150.44726307443557,-180.31831322387458,-200.45520407759614,-227.51022216623633,-261.59549827845916,-241.83734436073203,-113.10247130814865,65.8268864486967,186.20176837304706,226.05676409952395,230.16680068915306,227.05006104673535,217.64885828963463,197.84375926255515,166.58058018928935,129.95788389714465,98.41754433191015,76.65179701977686,61.6329306204394,47.7865424577418,29.31044592875064,3.2533943549111783,-26.920278178476746,-56.3675583826258,-85.23205551447803,-116.19266264023449,-149.9390932989743,-182.88179946763745,-208.8469654081591,-227.69400622726877,-255.20441703390952,-299.32924379131487,-313.2740280603236,-220.72506454620702,-33.54497641027898,135.10185647014217,214.9502835804708,236.54895276163668,244.4061801606935,243.38257838005615,225.83280403550094,194.57316763848314,158.12751809280317,124.39540276670255,97.94990487154644,78.76787303372564,61.81706675873337,41.718094354462814,19.585901119681083,-2.4665051272988903,-27.43964776134933,-55.905214915768184,-84.8391084758727,-115.59046713868304,-150.35251199555424,-183.0793935626645,-206.27045182320845,-228.74923683716003,-268.3382389527445,-303.50260765097835,-258.28554257187506,-98.91786169592844,87.56113879725044,198.03286483228942,230.05669070070545,73.0,98.0,57.0
165.74866081828736,133.21517444350732,105.0047078139107,85.00514287820158,69.76135304084906,54.95328066313392,37.461792796058326,17.69119511412865,-3.988623638328646,-30.672760121021568,-61.293491391768356,-88.6369286744627,-112.46296374364934,-141.04557201789405,-174.27531151554658,-200.6894700106398,-220.9137393088075,-255.9240862471833,-293.73963114916427,-258.1726323863846,-105.92103773446361,77.68404601041513,182.82749861646252,207.75832753546408,209.98803015724909,213.71247396058249,208.23543546383962,185.821392389313,152.73336052898827,120.19894626321889,95.81958191789023,79.93077378851277,68.82938589624612,56.505338705133546,38.54182911903727,17.432869315774205,-4.774575706589406,-31.23682554576098,-62.00377397726125,-91.68960082345664,-118.75171316563197,-147.18883455877722,-175.0168457620102,-197.334240386016,-224.0945992910953,-266.1317503299851,-287.60495607360866,-214.49472074293115,-45.11993771628391,115.37193608583407,190.43556504903597,205.48743552261746,207.8581195139012,206.92728010928434,194.20065164587905,167.1276362887115,133.72343140158404,105.26526146874906,85.52873802589484,70.80020715124368,57.05236370661932,43.9456524727878,29.63379542407612,9.586796517121826,-17.406910745640463,-46.4391784671377,-72.97292587531392,-97.07537130658257,-122.3532389936663,-150.82922147971598,-176.16092995708988,-191.0101563712778,-208.0433157468043,-245.3739381828346,-267.97958566083753,-195.91380639839014,-24.87129625494594,138.37398109617916,214.7484007920614,226.22106215807983,220.80865492002047,212.58932064798373,194.85640752136547,164.0203376948147,127.23336843832216,99.51566739124739,86.79543562910375,76.89286238768115,58.98243948032601,38.734893115438084,22.347417422858445,5.08676914167512,-19.77060951661576,-51.0242136755931,-82.45864739779861,-112.6775926926992,-143.81210636958363,-172.93428349374747,-194.9900766177889,-217.69783372514132,-255.29867557962038,-284.6341933992613,-236.17698974136002,-83.70215934634403,90.54271099301909,191.92350862616723,216.66475638771786,213.59338616371198,207.95748375918726,192.75188537158658,159.86794525865824,120.11466018659743,89.69557928567436,67.68949387312102,48.17281389897345,33.91938560447569,24.580745689682843,11.201760482076516,-12.412231108505022,-41.41892280817682,-68.09429710490225,-93.95555696821535,-125.43464522882809,-160.15341007128555,-186.74284874920164,-206.63964440321655,-238.17459980045916,-265.172561663748,-215.7548486878601,-61.17888987976285,109.76812905389141,204.391398921409,228.93131917554055,229.6729685559829,225.18937262814,213.13009021548552,189.88082148141027,156.08619774732205,119.93342954601604,91.15871033005168,71.85129537897564,57.77341228200075,43.15418798590342,22.529656214752055,-5.317251050431583,-35.597607338565965,-64.65174820558651,-93.86123837722658,-125.73470330330841,-159.79459947571263,-191.3532601959665,-214.615131155229,-233.82151088917334,-266.99301374319447,-310.1383561792924,-299.5997257013732,-172.29564013076177,22.292102926610497,167.37419721863722,224.57727460424368,239.3342730347236,245.4722035760799,240.10153599730762,217.85277630728626,184.19726520279784,147.810668210758,115.92194225370451,91.78930116842191,73.95636726609551,56.419549656794494,35.3505401515855,13.27149406372413,-9.228778836738007,-35.447696435003515,-64.27683433022426,-93.35348063535125,-125.3046210294112,-160.48192347344894,-190.7918100328833,-211.92260412253444,-238.14109500460188,-281.6793105096975,-302.21879233084843,-222.22600254605985,-42.0050908313241,129.4833350333907,213.13089293063152,232.39139569693205,235.67240153169172,234.5908731571986,220.2630638376182,189.4726904678894,148.83562509966737,111.50116242659936,87.50175118384078,72.97051712609368,59.00606318009575,42.31733785328571,21.176708005902388,-3.598549553450601,-29.750278874509966,-59.08981905528935,-90.6470226505321,-119.3595766626983,-146.64560154059075,-176.2763368449768,-201.8686298982603,-220.48799612555354,-249.55455952577088,-291.24147870870434,-284.5135925926026,-161.79369091195713,32.14968859945772,177.79885455279936,233.4227914427218,244.3482007168347,248.35584521271522,243.44831498667614,219.24534521340382,179.17474518290797,138.25012632163316,108.05511474977887,88.04281288411123,72.30060418561763,54.75594083518317,34.44579799398927,13.181089509307352,-11.629791814335631,-41.47204710676246,-71.63903227177995,-99.59494690725813,-127.54158360442649,-157.04974446935577,-185.89089885147465,-209.0576341828478,-230.0777750190539,-263.0406459735086,-303.8203142363862,-293.86544588682307,-169.65518601786044,25.483317567252612,174.91601285099645,232.475171405065,240.07998962662876,240.89746202907602,237.26758466938708,214.79804536231538,174.21805079032575,133.39618746053057,105.67093219281912,73.0,98.0,57.0
24.609395703659338,2.3687472406799945,-25.862148653092383,-54.44725852163425,-80.0720273973227,-104.06841526715434,-130.34371142345088,-158.96206558158795,-181.47262596932407,-194.56255345166812,-216.8190193357522,-256.87930665071417,-259.65369109197445,-153.23969066968877,28.50905165607713,169.97895039496888,222.23617276454382,225.04904314562012,218.9071869293309,208.76967011852707,187.2038478052332,153.3919650563653,117.67437737379261,94.56928694742177,84.39736854202751,72.56032973913855,52.90224025850591,33.6386470465391,17.824042815163004,-1.1788937776562798,-28.420888139053776,-60.29184438091662,-91.20666662503507,-121.56410330359158,-152.73347141516302,-180.04436144152905,-200.70143127724535,-226.91484961120682,-267.23790847540437,-281.6877761961492,-201.00069479244738,-30.278757880726666,129.39518649185422,204.9484737931886,216.70445316930017,212.16500045901643,205.16151443009215,184.97610617936672,148.19911707528553,110.03911794858848,82.87657828610915,61.79367875161622,43.33491939993216,31.009002275785942,21.582660135123337,5.418945342510791,-20.661843901327355,-49.52043589574323,-75.32982706532181,-102.32294834135782,-135.58194859735613,-169.08963890701946,-192.4290656351668,-214.03468941048018,-248.96005314305592,-262.09276300494406,-179.89952947920696,-7.890532001032695,146.50629213257238,216.494107501874,230.08445263512814,228.87345284065984,222.6860025359568,207.65633156684723,180.97683139585763,145.3804613990409,110.58833802229967,84.73170419451245,67.49221378800036,53.87111494552574,37.992828344829285,15.094843827971724,-14.078040803358281,-44.13197888342963,-72.9438931159023,-102.73333961568987,-135.48953471586694,-169.45638087043196,-199.0689663976627,-219.91165678155346,-241.2382318665005,-280.09697963563207,-316.551133660733,-275.2713347257995,-117.69671881913972,73.31620374121553,191.67102860039847,230.83530510242326,241.69152061287014,245.55669543671107,235.32403734189805,208.90938613419752,173.59963294648475,137.9011018575646,108.12093849335125,86.19442563072401,69.15367327504113,50.66943203719971,28.91971015802668,6.9615515007340445,-16.346640901226845,-43.68523284226485,-72.61966942746191,-102.123180418124,-135.3624524837432,-170.18720746454693,-197.58588982726408,-217.96837970938566,-249.37303318539148,-293.46759877124464,-291.9665718251923,-176.88600961887073,13.889766924051568,163.24684947003968,222.7366963301001,233.71391581971153,236.12346286113194,232.17098215497512,212.92010686313222,178.2526873112758,137.06650952671342,103.09499308936705,82.7880876996724,69.12179090953212,54.532794884897505,36.721594347436444,14.245566440527424,-11.000636709829076,-37.79826888535908,-68.21715358540884,-99.35497776086872,-127.1233454769275,-155.031994085199,-184.54413929674175,-207.52755515791796,-226.84557113626394,-261.71181367225114,-298.2931400086069,-261.7480015660848,-107.78413249695811,83.41617989489806,201.93925013985128,238.6867167824745,245.7286598827137,248.47190445773512,238.59310528249776,208.75952701826802,166.70749066025417,128.2491231295944,101.45325413461696,83.35528015004473,67.59877434711414,49.05214089828202,28.424902943935404,6.559508155360793,-19.860528604889954,-50.397668608745164,-79.88220937173217,-107.56125147019237,-135.90180083621635,-165.69224942124205,-193.27985179269308,-214.82094413054435,-237.80219332118818,-275.47897257953065,-309.92677457011354,-270.4360485977454,-115.47253115711092,77.62707084340931,200.1147321668995,237.21670797695566,240.1815840520465,240.98302072260816,233.11625064967245,204.32840215041693,161.56228937569693,123.89775152740087,100.01653844593342,84.94014365786805,71.56843508612073,55.22121265210912,36.35464491916042,16.165094999443518,-8.58929604695616,-39.59422850363169,-72.72099433216246,-105.4462742498806,-139.41514861049018,-170.26386685819583,-191.99319468788153,-212.72623813674667,-248.321652050431,-286.5473380964557,-261.1263775529168,-120.23764573296319,72.78749083887995,203.12188706760682,243.29991722056334,243.22060136656336,237.12051911200052,221.06031227125166,188.48361109519965,147.4259138249209,109.4586622926257,80.286693245498,60.50843067997424,46.63293457801325,32.210721892878674,13.339383042018362,-9.729110612487343,-35.59790534342784,-63.20535780512419,-91.58215173980643,-118.5517227441496,-145.10664454713947,-174.61365717828815,-203.23680817051508,-222.03034298538918,-235.19914069992626,-264.5842537256457,-301.13346227663123,-270.04651963501993,-115.70071994829829,91.5769290847246,230.63195458214918,275.03483764061497,278.07901320098904,276.0151282911195,265.496124456903,237.4952752366438,195.14226182124298,149.1392417215397,112.17847034979782,90.55928161258072,76.92526906711802,59.01449888364555,33.56773168654769,7.8423795868433395,-14.409485376351096,-39.97592220358724,73.0,98.0,57.0
-197.86456842193897,-222.9271074253123,-258.31090056468787,-250.45652144916383,-135.6751730063369,43.53570811928829,175.44357930739955,223.86777476755074,230.27182554078675,227.72583242968423,219.42981392457844,201.17627540765704,171.2709943922108,134.75317627027394,102.05773680740147,79.05058728711033,63.43780674732524,49.778390834004576,32.20574675607086,7.095202055938177,-22.88041238536543,-52.53044363478397,-81.32091281159249,-111.88086504268011,-145.37117099186824,-178.76063557966157,-205.9505960198796,-225.15247306565604,-250.3651230575621,-293.48283626995186,-316.2594262928101,-240.22970553606615,-60.13636728519059,117.43582136375566,208.95978575283317,235.03089839562125,243.6674027889928,244.39312010238862,229.12740474544864,199.2261729928925,162.9787559809185,128.51924226668532,101.0042232035816,81.0400849852883,64.19340224810612,44.60052751123411,22.516225176457638,0.5538654907376408,-23.853451108414482,-52.0405287489805,-80.96721341307617,-111.24771157523271,-145.61729410810995,-179.20753906820897,-203.63804100197063,-225.01302403823468,-262.14389110964413,-301.61004452202434,-271.3962945544339,-124.56439094635607,65.7170808292916,188.81912509504892,228.38527402594727,234.62234680505716,236.09705473070116,228.3956782208708,204.2371166248756,166.4449166736536,125.95085172648983,95.94096270213397,78.6203082283393,65.14797136533606,49.80206833159546,30.702083875306425,7.086816706835567,-18.492053430306854,-46.198138492621034,-77.42018404247743,-107.70947881420771,-134.90968077659218,-163.65257771822,-192.18398997249315,-212.71031653360725,-234.71918747334126,-274.54024045693234,-299.0741372495547,-228.153540035062,-50.43555944416371,127.75453109819084,218.8371571215624,241.73690136469554,247.00206723872805,247.495789889495,231.96205762881777,197.18917678337783,154.6057950154363,119.30474703264645,95.58904027210828,78.86314576481553,62.6103582375486,43.176316860306386,22.343605676904268,-0.47458908693372126,-28.481365143084577,-59.189067802992234,-87.95422919333494,-115.5947658832837,-144.416484172289,-174.1635676515394,-200.0763041574107,-220.63459031551866,-246.9477034697929,-288.1038119521816,-309.71452539785236,-236.38405190345688,-57.86921563981427,123.08524376068762,217.72385143659946,239.31133202302814,240.39527306819716,240.36726468799984,227.06534860308213,192.59583564525175,149.4237904245259,115.65289945483674,95.09628293808078,81.17617296233503,67.23731964912484,49.9051087898871,30.73169640467051,9.666912631090264,-17.004409799830903,-49.18129781128718,-82.15100270222548,-115.14043160271619,-149.04391392654136,-177.4620911044524,-197.31843596209612,-221.08495859556643,-261.09540727083703,-289.44874393613003,-231.97192201875325,-64.254347833129,120.39962842880983,222.38246550228186,245.0073541298331,241.78232823218192,234.05169291341278,213.22560243918295,176.91327530772756,135.76146998186974,100.02441786645143,73.68072323013446,56.15445054849348,42.795078472293355,27.25242009078348,7.0502573142168785,-16.98231272823401,-43.41594124485677,-71.41457178266236,-99.58588205403055,-126.08107005851937,-153.30223191898133,-183.38544134092075,-209.93319168643146,-225.58244076026315,-241.2190079634545,-276.6597656813488,-303.22292320037934,-237.62459538113626,-55.28252872349995,142.36474284918637,251.3978353770535,277.6537269204483,277.6443372036801,274.43418338942456,259.2823548066274,226.34879690497922,181.65389896717332,137.0327560567979,104.42642603251402,86.39277526395679,72.58537377347211,52.23817653777864,25.77853687122087,1.2235476823220186,-21.092855336518838,-48.76051042678322,-81.71635419927999,-111.98990664822799,-137.308556630846,-163.33939549763954,-193.44349828493043,-221.67883384694142,-242.38454557504963,-267.2768792533361,-301.0692365232355,-292.3998124554573,-174.24538632212497,22.521818755766702,185.266127498442,257.09723144165935,268.3449639020285,259.4139001262567,242.27333328042675,215.6513767505612,178.7498009441969,138.87404352290653,105.90992178902638,81.70126341966947,62.07410663491852,44.032346005352785,27.079252468886338,7.782355594568521,-17.62619574871641,-45.77108522252273,-72.05617347817284,-98.38995058872217,-128.461170363545,-161.09057719795575,-190.1096051935678,-211.2473952106924,-234.29804326114873,-269.37593424472146,-278.8953735367374,-190.95691766431688,-8.56893794455776,161.1902033999271,240.8321632254143,254.46838623687287,250.47977372558557,239.28309800599789,212.21924445103627,171.236997266112,130.053844021687,99.56704922501602,78.15277738389796,58.845722781124074,38.07556684961077,16.448472815160027,-6.756924566804693,-34.64579848359844,-64.67705562023873,-92.101890019436,-119.80624033930539,-151.93533017947476,-185.2705110690218,-211.46556211579755,-230.08075396859795,-258.0051898649167,73.0,98.0,57.0
231.49078017893697,235.3739649370788,235.29881645338006,223.1677782346009,194.36774178465052,154.38185951717142,115.79649519102706,89.93673307257106,74.73147194357372,60.99183618296742,44.76189731540222,24.268678429581925,-0.20779316645867235,-26.14332291150726,-54.951568913232954,-86.52545763428141,-115.73957994877603,-142.8790601908819,-172.32913517993103,-199.00923179121875,-217.9126744281612,-244.44647167230116,-286.5353655614189,-291.3904776422329,-184.6534951428383,6.756432945111613,163.94940348663377,229.8763242440117,243.6462654016628,248.03870973806286,245.0996232406445,223.62096495455762,184.93435634172187,143.20376441291174,111.38554071189975,90.31652666314017,74.39596132023873,57.303404699352924,37.2108044571656,16.124597016428805,-7.993744323006715,-37.34799616780776,-67.76503975627229,-95.92947823139491,-123.73965116218545,-153.05040091105118,-182.2971614030737,-206.3231826145988,-226.9083457692741,-257.6363349761429,-299.492868835749,-301.11403052765047,-192.60413076092766,-0.21596385284009123,160.51136440836547,228.99764905072144,239.98662374025264,240.74621082883627,238.59095465913097,219.08854988338118,180.09242194590917,138.19349599700993,108.57926995192166,90.71980236810928,77.3950179888641,62.577106337064514,44.45237873451098,24.986083303496017,2.668447096764556,-25.92157631674849,-58.79585721022868,-91.55949282038239,-124.9856383890079,-158.1949430065639,-183.81763104743263,-202.94606138766736,-231.07082280285493,-273.316034102742,-284.8621784130913,-192.6348954774793,-6.829350507819289,160.2572975882941,234.68643961516062,244.86419258011318,240.1840725029283,229.81214169376767,203.99651913641955,164.9536866082396,124.5962767664115,91.39973630993337,67.83798135616216,52.16641761880991,38.740115235150434,21.884072899777596,0.4388316932990771,-24.42967927767572,-51.368211079073525,-79.64973218281912,-107.41062804376169,-133.66653883728867,-161.8088875450161,-191.88291585539042,-215.58236701089155,-229.00923052187517,-249.24692808043918,-288.48601679386326,-297.21386134933647,-194.4142363315391,6.406820299770381,184.84531327579077,264.9299804685386,278.3923642110145,277.1707320758518,271.8014918397699,251.49839857142396,214.18724640392654,168.165369804978,125.99144349158644,97.99473877401736,82.577496529797,67.61486544667625,44.887292053721204,18.214581959069623,-5.136308175329717,-28.293549719213352,-58.05198663481461,-91.04769029937844,-119.64041678114772,-144.46961785669933,-171.69803704094412,-202.23886271830594,-228.2888058274907,-248.30000183509037,-277.12466653355847,-306.60901699770267,-270.7120709312522,-120.8903585162017,77.59644094974732,215.1137848246264,264.31052474200936,266.8273552574626,255.27804138679912,235.68119110309547,205.90191962702508,167.02164723938364,128.37102974900606,98.15629271062913,75.76182357834733,56.730741518910676,39.078002212490894,21.997285893573746,1.0648038449001962,-25.765083279554343,-53.59984433336713,-79.44870911363661,-106.63098247484474,-137.82827933063822,-170.1776865726141,-196.93398038447594,-216.8941282846438,-243.5959542481409,-278.0100784630885,-265.80127547137295,-144.43554786416678,47.12658486949144,193.98601832237046,248.97012888589302,253.88358286682353,248.37083513480493,233.31812516106675,201.32770813288653,158.6752842047413,119.99158852532837,92.75910973267014,72.61673727227458,53.016630419572934,31.86352873948106,10.056298639276314,-14.284037208970325,-43.39344359627279,-72.89934958190017,-99.80268795525605,-128.61908383118885,-161.7795368558342,-193.90649463371824,-217.13975035446612,-236.31129941121876,-269.43894406842634,-303.36400705046253,-267.0299913175737,-115.18857317052071,78.79079769750513,205.87672872072685,247.00864697655948,251.22749126749738,251.83250296130532,244.59114985175046,218.3376036714433,177.29069685252088,136.72105974070217,106.58171023238111,84.73803471612183,65.40666149344153,45.8878356165769,24.63674146367953,0.10771365064457665,-27.79547357617529,-56.90917587883077,-84.56671189000299,-112.67426946985931,-146.62595698254182,-184.15977542355165,-213.49858417984123,-234.0371958380538,-264.29191241502514,-299.9106814910478,-275.05827347185107,-133.41394546180777,63.29525338094268,198.30081869270828,241.73106925225267,243.52906597733238,241.32272394311417,232.16275843076866,204.30074050793718,162.1452496377597,120.15795663468523,88.42799194907525,67.57467854783054,51.96375081529211,36.830495586903,19.875624493411806,-1.3764522491056814,-28.9582549962103,-61.09811059602371,-94.59928222475726,-127.61006118499346,-158.47840842067734,-183.91132717014375,-202.41897709909279,-223.6389227743722,-261.21852591603533,-294.570521420781,-253.13546443616914,-99.48203661309392,90.36723978817568,210.97052216607915,246.2788859820749,245.63528204905617,241.07909596507338,73.0,98.0,57.0
102.52034364388636,86.71048342712855,73.46284118593555,57.60398275718279,38.92289644117911,19.02136382406432,-4.900688157631987,-35.21981536771901,-68.34803892710424,-101.033635534056,-134.88271096745603,-166.64703329016072,-189.50939138303627,-209.36913093444238,-242.6023770082958,-283.27792514314143,-270.9883935733019,-144.62932973827677,48.67987440865113,191.5634786718722,241.53622117855323,243.82924606493276,238.2294958277294,224.1682960885182,193.59418301375075,152.92084698269136,114.06942544766086,83.60319196780046,62.68242849310396,48.3693168414291,34.35924806366398,16.121634960818763,-6.461068386851162,-32.04001378128256,-59.44544241279829,-87.84068183648476,-115.06500744080212,-141.43470765182786,-170.54784587345262,-199.83096374515236,-220.19883919270896,-232.98379537697218,-259.34353437119626,-298.0942686789271,-281.17049075778147,-142.13349973652998,65.82490447315689,218.2559670671495,272.82758336255324,278.25543567864884,276.4867625392494,267.83101339993334,242.22856776673814,201.27154417402227,155.00578065993787,116.22091143804285,92.69587785683558,78.76745947805809,61.9030529075527,37.175605655675625,11.020090452295909,-11.447584462325032,-36.135241983518874,-67.64866564660008,-99.93809506963892,-126.93611598830687,-151.8689527691042,-180.40978658780492,-210.62415911334554,-234.2290993507876,-255.08700586901674,-287.52471514328806,-306.6253068842757,-238.58520390770286,-63.12475301412809,126.87770786431044,237.0943961583868,267.7660195326736,264.33340008724906,250.50414096624877,228.22239763738716,195.3196086700772,155.32376421176966,118.64321601553225,91.07895116443163,70.08073549115878,51.487387346259595,34.21078976833405,16.576976192750273,-6.207870754097856,-33.96877819622983,-61.20890875625688,-86.96169743922478,-115.24777144696432,-147.32256390797826,-178.76989499876953,-203.06002297298087,-223.14745271277596,-253.9876370350084,-282.8982393551114,-242.7937839246542,-91.4174698492603,98.49414206122815,218.42761738318154,253.02195804052934,252.74446250034282,245.4955576807346,225.82724450326563,189.48387691806585,146.50126744510266,110.9777543375123,86.55058876534287,67.09133089620947,47.03202966798498,25.623681227422214,3.4648995269749396,-22.274062434702277,-52.162685968655204,-80.83466620110713,-107.68542867381684,-137.85225300549084,-171.56546496571178,-201.71251097736226,-222.33555426652026,-243.9090615401987,-281.4347366886079,-303.79449786484713,-234.10766602273117,-57.82503796704989,125.34183436562054,224.90026060791877,249.72914114147662,251.43973875431314,251.2138509764032,239.11494657400314,207.39768757525195,164.84859003443614,126.84236247530211,99.70472964761139,79.07575406479543,59.84509649478095,40.009946011371596,17.92403115609609,-7.655682363460649,-36.23069110733477,-65.0923250453434,-92.39597172094851,-121.73202955710228,-157.5520948670962,-193.94564106383714,-219.7166473728201,-240.98127748086296,-275.8264846208685,-302.8448703321271,-245.97972530005572,-76.625981229994,112.28221144084688,218.71023062727193,244.02271702519096,242.83716867626902,240.08698199249338,226.19268243995117,192.98936340462922,149.38816627746849,109.72523501389351,81.48449130493026,62.7941961531732,47.6738656922507,32.20072400198359,14.315728285998835,-8.697782908605875,-37.932107579611234,-70.74547530778334,-104.24456773462745,-136.85621363535887,-166.56383129188208,-189.81548413679337,-207.51987650368585,-232.6590004090014,-273.75725443069155,-293.6905286446322,-219.0424551554372,-42.82086607926646,135.10942286167335,228.18309047421138,247.53143789259644,244.47142076811,238.65215582831738,219.57256186340106,183.13345782913507,141.2202982205467,107.08936437159629,82.78698377063434,64.56036557402504,49.26998221504917,33.52590500035028,15.135764548860362,-6.8877243027720905,-33.036598293141616,-61.37590037080726,-88.1816678965418,-115.89554343362539,-148.0286806578516,-178.79793659169619,-200.42655741801747,-220.58089283349682,-256.2735459368272,-287.61640755654395,-241.69732755622283,-84.55795662388105,99.79312373073819,208.50792530577996,236.23380658297356,233.20141772785084,224.76061629621907,207.35615196203312,175.76802678160735,133.50212782717824,94.79027534975941,70.46450673900301,56.70317107632009,44.389534142832055,27.920976000116173,7.255533624703249,-13.98500538899156,-36.399989469185236,-64.34229912515288,-98.18347287067806,-134.69690611412736,-168.09890868054393,-192.22620619123126,-216.75170493288417,-253.5091665019803,-265.9321252949904,-184.40930937056348,-12.582541264411725,146.55078114489223,216.57967689528903,220.35404445842727,212.9330611118562,209.5006353367245,189.23814931356213,143.54659302615792,94.06498801302126,62.269437768467846,45.504336214003224,30.46769276532609,12.71396631380986,-5.161502196583408,-23.208462074557605,73.0,98.0,57.0
-44.63773004899529,-77.30883076339705,-108.30716442164287,-134.0440278426965,-159.62492607231127,-189.32482499372998,-218.36711748165314,-239.80851119917241,-263.12016009778637,-297.2650588514989,-298.9922779863231,-196.55285366669423,-4.168285292324187,168.72114272939572,252.14902170584503,268.59545063882007,261.11284580823883,245.04174466529525,219.836564868549,184.0832797291882,143.94442575526247,109.74045241841316,84.55677343465213,64.57189276787895,46.35648800939476,29.350698446196887,10.684245054800064,-13.943327493546764,-42.08721394828748,-68.65296280340445,-94.71169484636766,-124.22051490541975,-156.78713937508655,-186.70391043590203,-208.70748486851338,-230.4723906820849,-264.686616486208,-281.90455609838494,-209.55729484908758,-34.8930715249647,143.22488723374454,235.27814874243055,254.4042371130147,251.27599060810303,241.54307070242646,216.83458461945835,177.0541429705595,135.0356138985748,102.9610292823175,80.74491989860124,61.479365076235034,40.92218256143982,19.356647074729437,-3.4395579231151885,-30.670756474995194,-60.78556455198545,-88.56713428613874,-115.889275558703,-147.43410397675228,-181.05943856972812,-208.59543852785194,-227.52898293263618,-253.17463111099522,-292.5904584223337,-296.0996311071109,-191.3294441935961,-0.009937540461137928,164.11546966440864,237.41332013390652,250.79644589762188,251.71615666102875,249.56498804455515,231.87386241610054,195.50558731007095,152.85861368372738,117.95228694988816,93.366883272974,73.50337635282499,54.235605810291716,33.94098475973992,10.910134518558086,-15.688140276469184,-44.6875326255419,-73.10038545353571,-100.38003948552773,-131.41367973323017,-168.58411082987436,-202.7078140108449,-225.42618558573574,-249.33288164535819,-287.19934574628377,-298.4646399380071,-206.49953941213676,-18.15827218608082,153.5272325900947,231.9962650685665,244.38176877492256,242.26996017672337,237.8848583537117,218.47370006142765,180.77920954077567,137.0127376882578,100.31258272072802,75.36582319269183,58.29134249762161,43.339535604447086,27.380658143244627,8.317183927983013,-16.570053058282564,-47.202372292789406,-80.43874166596223,-113.81818674099847,-145.876768644545,-174.08826203001647,-195.15624766944035,-213.2361777042244,-243.34187428834218,-284.880791099168,-284.4370796409111,-175.58417996065083,13.840374072090922,171.9818712420725,238.98892075994686,247.1956196126672,243.30395504949803,235.03856161249996,210.5219774275568,170.8623497590134,130.234794438071,99.22078415814163,77.03752525176503,59.992567333430486,44.89793297812425,28.541445831123017,9.175375989234523,-14.020872338567719,-41.20200897948493,-69.3213771500889,-95.8362549013895,-124.78051837125861,-157.52428148461175,-186.05281322030095,-205.55016360034494,-228.99178890397124,-268.36041175177303,-285.72095189529796,-206.11000079609877,-28.371077231104266,141.27218505211098,222.75486664869624,236.58078101944227,231.21000891794006,220.99621229751452,199.74918963864073,164.17544915952436,121.22741782188398,86.19875600284989,65.82810312008627,53.333141186043264,40.18004761903969,22.2283145570311,1.0679994676909046,-20.145943701127305,-43.773664420767574,-73.63208810628228,-108.63007494168656,-145.04509772939556,-176.01431566864827,-198.37139842574416,-226.4625917832194,-262.7955991401644,-254.2036306075132,-140.64299919944284,39.868663908958084,176.58448913608134,221.77937186755486,217.66129829161216,212.1491977691348,206.38094941185074,178.12077164360065,128.33779401169673,82.70941648161151,56.50761220399716,41.406333979778815,25.547666046789676,7.440596011836058,-10.173769502286047,-29.242619736274914,-55.698716233904456,-89.12540023150963,-122.7624189756661,-152.1828673126339,-175.42224693400632,-199.8612798151952,-240.54199067938936,-271.8105556897159,-216.5131898357749,-55.828256891789586,110.53408215825388,193.68565687839222,209.62947468453117,210.27736299310854,211.64534345902672,203.4868020023935,176.97213770881888,136.9400123758691,98.82873731448456,72.64884065643398,54.648117565467686,36.269851724527946,14.400390845235817,-10.199054106766008,-37.29206480922195,-65.75625771968483,-96.06864221502691,-129.5571767912182,-162.1583800476952,-186.87658836393203,-209.18599444215695,-247.87887918757934,-291.9199392402043,-269.6636428807576,-130.45144800145926,54.06099569572864,172.62449100527684,211.3111295122378,220.912802332591,228.18324323812325,226.97214655128997,206.00239616252748,167.8753332105909,127.87803892562773,95.73459493004069,69.69040444661064,48.64213472148331,32.61960530095968,15.077613554678603,-10.20656228349921,-41.162324503700745,-72.76970577853757,-104.2797859775612,-137.11562183499464,-169.59983922105428,-195.83213279794572,-218.0037793080971,-253.06954578061323,-293.08799171475965,-272.96471002892025,-141.4950392857957,42.128336227855016,73.0,98.0,57.0
-264.0338638355042,-301.0094728629695,-278.6358058517968,-140.55573050263567,55.073580043265046,194.57822854287858,244.86160577234105,251.14140168932516,251.8821334483613,246.53104059867297,222.95678765013574,183.0799108800434,141.6061267706542,109.9818929932182,87.40229128630999,67.96202227539952,48.54748103812697,27.634450155099586,3.587390576327404,-23.937946268871602,-53.0810648320413,-80.96598727378614,-108.6889642975807,-141.705784217327,-179.37106322692554,-210.3410227412238,-231.18932989853255,-259.25155077927394,-296.7210154904671,-284.8324146175598,-158.08665732687763,38.57798699479237,186.1643695903267,239.65196861926952,243.8629723823341,241.68550165610424,234.33431365594467,209.1101064785326,168.06679753791343,125.2868735077399,91.94461635827048,69.91177501930002,53.943748948675655,38.913013126946545,22.314030061379633,1.8090623989109296,-24.946508218027063,-56.68027952839361,-90.13627084278092,-123.28879540371601,-154.59090618623148,-180.96799228379737,-200.14801949563662,-220.03061074039837,-255.3931277978159,-292.68057182371143,-265.40268267947704,-124.70384090401085,67.426353578025,200.53583276951298,244.83669728653166,246.17522449085243,241.90402335764048,229.94598679702855,200.11194853580682,158.54071301365462,120.14655088188978,92.0958238660176,71.71184434643149,55.59119241035195,40.40756527504698,23.300458032235248,2.895282306556961,-21.513154692163983,-49.450253662234736,-77.06891042192237,-103.7133938030957,-134.06507470566012,-166.6519719736088,-192.4093168161344,-210.9652849754782,-239.10635069332693,-278.9715134432971,-275.1895829106258,-161.4278978744391,26.88272305020577,174.58216776788277,231.210659871248,235.62829529115288,228.94102270865162,216.27244571298507,190.88145352729956,151.89123473530685,109.68389648429482,78.93734927186046,61.84802714422827,49.87881842684743,35.52832016736363,16.251407575964002,-5.0738099715267495,-26.496074194197803,-51.712305633862286,-83.35996241886394,-119.21984596889875,-154.9364640983113,-183.04787820576036,-205.03887203005223,-237.31954871591466,-268.45734724397477,-232.93953802292484,-90.68445509326105,88.11592097481369,198.29215378449342,222.8754274740703,215.22501464114595,211.51747023636426,201.18307756508202,165.00904670951655,113.57067925378627,73.163428686175,51.68294102419631,37.15708505789048,20.413491075759232,2.246465141427372,-15.268699048278156,-35.94687556236228,-64.91183477405079,-99.09205973257006,-131.82227443338192,-159.51154386456972,-181.5951032430835,-209.77202859076527,-253.5191927957029,-267.9242936111715,-178.21064042449333,-2.675684372280353,144.23844068930958,202.61650975882452,209.84637645953188,210.850436518983,210.84677635909244,197.79436115920865,166.20451176602634,125.03411325513349,89.97551738989478,67.01358584232955,49.65717845921367,30.282033004575407,7.55908737839759,-17.800867037229583,-45.420968772167555,-74.22507894678861,-105.45802681656387,-139.41935212721435,-170.25574334432378,-192.79156966399069,-218.07046752984195,-262.240307101478,-296.20549867974773,-240.77105185160931,-76.01208733920659,97.98596831536746,189.99939824985728,215.0380683987332,223.14568245258795,229.32375179086415,223.18135119144787,196.18067812543723,155.81799883785285,117.72811856380739,87.74221735607617,63.01448156861493,43.6616674341117,28.098764765873494,8.639612328411019,-18.829969248327018,-50.35415522838958,-81.81562108713578,-113.60413166440479,-146.75859682280847,-178.05350526935928,-202.04703395259145,-226.15494053547465,-266.047222628782,-297.1077576688086,-246.15874521013137,-88.57871447691478,88.22015398532841,191.6092618909505,222.6755479786039,228.51005011239792,231.96770428906402,225.6635487394935,197.93037231430466,154.1948688400053,114.28001125274305,88.29719479686032,68.83738439793417,48.20475567157941,26.53199640646503,5.834193878524692,-15.988012625960652,-42.97920747424951,-74.34900365312369,-106.23136004166884,-137.61491032877737,-167.13496031663928,-191.09832048453578,-216.97994804272813,-259.43820048234375,-294.18724204608714,-245.8493518494611,-86.47816513556998,93.65710397621578,195.55321950277414,221.36085877962296,222.95197062130325,222.82243922121992,212.56969985996955,183.8696044942714,141.68450762087127,101.0303135529794,73.15111121856609,55.53090359051598,40.413942760145474,23.379578350026943,2.8743805007170993,-21.837086265831775,-49.77704377008576,-79.50305582820387,-111.78283551016774,-143.2360742321226,-166.29643519701352,-185.68573026364749,-219.1640646366355,-268.440133187622,-286.39112213114674,-204.22529964842755,-32.36520157762094,126.73059326159486,204.68595927096052,221.08702031642093,221.02259728026021,220.45301685922473,208.01627166516496,174.26261587279427,130.49271663333178,95.39014557390279,74.10628475731559,58.44420270503216,73.0,98.0,57.0
239.89646080340705,223.22429558218326,188.65941942278323,146.54929695697368,110.99940726715158,85.59882322212815,66.74687839211444,51.26428598951078,35.74509722180332,17.78012441376697,-3.7202010605083675,-29.336411402347,-57.64611959546339,-84.68313163649951,-111.95116788881552,-143.604396666706,-175.1500055074274,-198.01381130523708,-217.24648105063758,-250.65923913374837,-286.1066891113721,-254.67705476047897,-109.85439729219293,78.16941111349131,199.60506625797237,235.36773318547966,234.0428106777664,226.2245041780594,210.44416328093084,180.79507880896207,139.29570368866237,99.20209015505536,72.8935948794249,58.27581018226317,46.19646013516919,30.420746667728213,10.110149386256689,-11.17260436566958,-33.174550588343855,-60.22905376828983,-93.44034993047262,-129.8363830937762,-164.13973881526147,-189.4126210389781,-212.74717722280857,-248.54965262711127,-268.4183090413981,-201.86864775307856,-37.39519511867262,129.8939606015554,212.34869057403048,221.459597794025,213.48195648770462,210.38726370345034,193.57812608208354,150.5031592649243,99.88022418998487,65.35125022864196,47.39744481280009,32.645470709248706,15.154168483051919,-2.843418820735196,-20.610965478409117,-43.41458381205535,-74.58485987557154,-108.90387701805271,-140.461223632328,-166.27756484975964,-188.22736049596313,-221.405189508288,-264.3749998196222,-254.6220425947946,-131.92792856928872,47.58597351457918,169.7880366435207,207.30137678224463,209.86832647650763,211.43569880447424,208.90461586286298,190.4492032938749,154.58159803637145,113.71785688063554,82.22520166059411,61.8495576980555,44.44243220668593,24.006808184591996,0.5054436953523289,-25.605784262725358,-53.622995406237195,-82.90060694174096,-115.12616366189815,-149.03051426140502,-177.53278353387455,-198.8522524729717,-228.8528984668695,-276.21221012787436,-292.6170988765065,-201.7418593958625,-20.909074380396106,134.18280485177993,201.59242479677468,217.6653696961116,225.37965294206066,229.41486377409166,217.52438631330023,185.1790401862322,144.03651309428554,108.32267456044478,80.14592722535477,56.80047001334354,39.05526564940428,23.222846647697033,1.4657125791762255,-27.78689490335029,-59.502940932823115,-90.88460940201946,-123.07386432393247,-156.27808464375502,-185.80341424176783,-208.15801998816073,-235.91399069465504,-278.72326377009057,-293.9556823317869,-209.51971805281656,-34.04657826573864,127.40899546992028,205.9767539328993,225.19611439532653,229.7024558258007,231.8243512233686,220.03617762261803,186.16027659535348,141.42949314438223,105.44821733228066,82.49597517194258,63.10977798170069,41.92711387880817,20.442120772555786,-0.14532451599961027,-23.166094324381504,-51.7737539588714,-83.62382354825003,-115.33116605155247,-146.52486163089733,-174.6488604439864,-197.5951149823234,-227.39919366559434,-273.0723876423001,-292.0989684283644,-209.17190947429015,-30.8291444415538,133.06420205083538,208.52492535808867,222.46041582648132,223.15915403526498,221.4821178705113,206.2150326448431,172.51424580467486,129.05887818878875,91.52664208992414,67.37123784014227,51.18295176633789,35.78225236359948,17.862516508702356,-3.8377145199972693,-29.667613362342795,-58.18016821854066,-88.55114204278755,-121.32628390473737,-150.92231705872427,-171.58034667964824,-193.18440816923334,-232.78545099545207,-280.2090819753585,-274.83653736949054,-160.14112262714588,19.69861833423179,158.07122699105994,213.54095463819766,221.32807074471316,221.11424951025367,218.80172933849292,200.3566817824393,161.7222299118336,118.88616269817149,88.03552281550866,69.47213813445535,53.668480737246114,34.73202337887894,12.566050620567411,-11.97051602014099,-38.96569024148714,-68.21791203871298,-97.97535605909788,-127.4117010589924,-156.48820292151157,-181.8611736687725,-203.68870338160554,-235.58075415787334,-277.25157871555047,-273.0876572161288,-160.1748294503529,24.10707840514772,170.51857349778993,231.3431259346531,239.99190075219067,235.34693638054463,226.06866623391838,205.38325392780268,169.1634673038323,124.48031574101012,85.57720024488607,60.37796876459979,44.24227264784046,27.253917701265376,6.085436032787036,-16.34059513153927,-39.479503300389425,-65.9431779402243,-96.76412388750856,-129.9609297383384,-160.76008968663083,-184.10657171124134,-205.60300271745743,-240.7715789312617,-278.9774042758118,-255.92788627170384,-121.30111953849733,63.981483461689365,188.11770390878996,225.61537204985743,226.8858400972114,224.13948456880155,209.26179787505905,173.36047898200334,127.26975134343158,86.82333625498977,58.79149002434905,41.743694400353995,28.539441260724747,10.887228249199513,-14.510283961044298,-41.925252991385214,-64.85462772018377,-87.5167753242435,-116.97656987394691,-148.05791912840104,-171.35141579492748,-193.82212546857835,-232.55629481483913,73.0,98.0,57.0
-26.385643358083335,-51.65642776479785,-84.5151618173254,-118.46182456811017,-148.60956103045606,-172.5949530220544,-195.86316981658223,-234.36635847280803,-270.90220643206766,-230.9389912790628,-80.42571785379613,92.30863478501082,187.69888358203812,209.2691622617807,210.08259888096893,211.71627738400167,205.556504211915,181.54665997794814,142.52344072929995,103.28627551619914,75.47355239379519,56.911207511862614,38.92399916336506,17.48323571428584,-6.769036377038574,-33.57529174353887,-61.90310589299477,-91.84377818410488,-124.98553188072393,-158.16499498931148,-184.05972470444107,-205.6434029488454,-241.52122463073042,-287.90901444100894,-279.3508191998278,-154.3689505398923,31.550560431529494,162.2822290854061,208.9393042425145,219.90185324192532,227.40458227029725,228.117188266413,210.03163574981681,173.4241173818573,132.8143692982053,99.57695485197179,72.90552812985088,51.09743485813261,34.64601182203839,17.800681530049484,-6.387815184835359,-36.92433780363976,-68.59379486432027,-100.02723175159173,-132.66732544360855,-165.5005142145776,-192.81805554488827,-214.69092637928847,-247.33562423533567,-289.3993428874036,-281.87270191256846,-164.4728238825481,18.9718362473235,158.94951633857278,215.2977806726547,226.75719245638825,230.85734147119808,230.49015941641366,212.41348714367177,173.41314266253747,129.52417727008472,97.80938166800391,76.94407159454872,57.182046639805286,35.62827620834361,14.466592153473892,-6.327978270440443,-30.858071861149725,-60.845070200162795,-92.85492956500079,-124.40939234987553,-155.195490087278,-181.60865920593025,-204.63718871240923,-239.53352070096213,-284.81968424125415,-280.88301826400374,-163.66449142241447,23.28049373608536,164.27817602672712,216.27569490961992,222.76941080176195,223.31368884086856,218.93965709349914,198.22941004949507,160.2868836471965,116.99180733041128,83.24215043453603,62.25502773300765,46.87162785441108,30.928298427535424,12.02690178059863,-10.908992253411986,-37.721217986415084,-66.71255283844569,-97.85650143775361,-130.6209625065129,-157.73388213525243,-176.8735336644733,-202.3590532905289,-247.4581918488285,-287.6196470399433,-253.35483448339633,-110.10688957109174,67.72684401694818,181.92866048789966,218.4345005790014,221.1657359150182,221.17020684960664,215.72227053597177,190.84773161341792,148.83868724541256,108.40393488541599,81.77684484500611,65.03003150655705,48.588791641692275,28.60768228878373,5.705489051764531,-19.498131292846914,-47.241412007945236,-76.84920410795675,-106.48610077043797,-135.92697313985707,-164.3958698453086,-188.16331188638432,-211.13949796330405,-247.92342944862037,-284.41933855475236,-252.48216127889572,-109.57902355493964,74.4191506409743,196.35285705349347,236.97656466312333,239.1014900388423,233.3446409688317,221.6059272576851,196.4406483432844,156.51716033030993,112.07381847518452,76.86536085469571,55.2432295968533,39.758238179645716,21.475313160237896,-0.38393045908447576,-22.857674121555185,-46.67434895910979,-74.44157823190532,-106.26039984634434,-139.39395271821235,-168.32932049526883,-189.8447253472362,-213.87949107495302,-253.43971760971183,-282.19401899768155,-228.22752062567173,-67.55552727368288,109.53741978321308,206.1830366660258,227.33287960172237,226.37390511843947,221.8221768449457,200.90086553369235,160.28804743594017,114.51348484760983,77.37996739838476,52.97199142569379,37.930402388086975,24.188970982012858,4.262357578341301,-22.64491876257633,-49.04558493439758,-71.01055963627653,-95.26709742764234,-126.3355874905067,-155.69824143438083,-177.09964774514623,-202.9870110627139,-245.89207227920505,-270.00876007948403,-201.59279586751677,-36.246706741190415,128.90845060116635,218.2989295417898,243.82498009413965,244.45190129309773,236.05003845458867,217.78819801207155,185.22750700426494,140.469488580919,97.33255905534506,66.69587454309658,46.197162331196495,26.70997014047885,2.7648970456997364,-24.04345156675768,-50.90485635393703,-76.76879641246495,-104.25630944023257,-137.5993248679966,-172.9874811568501,-200.79277777248672,-220.24218736741878,-247.07319483806714,-285.10726114780715,-283.98471906596814,-177.98081358250138,7.35092086778518,164.64675196537485,235.1312902966465,247.03560188461907,243.41091672221037,235.44575179418126,216.2078541261832,179.89569451567203,132.45786641070154,90.40182381394519,63.84906245258882,46.24798442724101,26.669256571235007,3.0203811832145964,-21.997467049185328,-48.324021319737504,-77.89851445355878,-111.68216125429691,-145.43907454326614,-171.92254451554697,-192.60668730654834,-220.5179221786665,-262.61150457180213,-283.4927297243403,-211.5734087783421,-40.34496153919369,130.46730729296087,219.90967379106723,241.83001043525343,241.58574864655435,234.35098100032621,212.79513315436336,173.24651250111083,125.17425800108524,73.0,98.0,57.0
67.74943607481144,182.92143853725514,220.94732845085446,227.97092319852825,231.74280965991167,227.6008060548339,202.8916647475087,160.24689108921214,118.7904941284874,91.13198667293912,71.41897809125784,51.07045471191232,29.38012797348473,8.558643530450555,-12.842339147340827,-39.05021821706056,-70.07237854172378,-102.02332154556454,-133.4618915102896,-163.48139935584464,-188.1488878043209,-212.74964842620557,-253.00657755699677,-292.57871840611006,-259.3508413055273,-111.73913755086552,72.91885065614623,187.40328819311515,220.33696351230122,222.88325023629193,223.1245990426172,214.94534843868072,188.71714417723734,147.58315153725573,105.81591054883319,76.10120634999517,57.586350421229824,42.48492830506448,25.824126348357645,5.845708860713639,-18.317578822740668,-45.94234454237508,-75.41680834178821,-107.36481755612347,-139.41443773295381,-163.74061216438005,-182.68532925940963,-213.42780942890988,-262.1028957442384,-288.61685027797057,-221.87747464799588,-57.016311836337465,109.74128027888315,198.90280680177682,220.65018857155093,221.02796974806847,220.8467720291432,210.8898885012452,179.77644764545693,136.14718070933355,99.1969615472431,76.37978425506034,60.56024190495632,43.18439716155499,22.243781030743,-1.3388899368301277,-27.245536067189413,-55.68498089370125,-85.46587297521103,-114.98144761362202,-144.39571892711848,-171.86351156320615,-194.27814564625567,-219.92524384448922,-260.7084888138298,-285.7446764539136,-221.6869876772741,-55.304015704492095,118.84186171726502,214.9643566818112,239.5492352303204,237.763332396305,230.89286427783617,215.9767835982422,186.17933338096182,143.46542107513562,100.50829429434478,69.37710160202946,50.62986753367765,34.971810761010694,15.371793367653856,-6.869605545000602,-29.47273796418869,-54.221179684948964,-83.29432050068596,-115.88826255751765,-148.47291380281948,-175.1769065751925,-195.73184551541897,-223.72829056107292,-265.61513635516707,-278.19356538583946,-190.67053116373802,-12.404175939072735,147.53090421079384,217.62482808674864,227.53078498159874,225.7911621814143,218.03684345386088,190.75617723343723,146.80500369922638,102.55066462099064,69.04379377737918,47.96765391002032,34.22231308691355,19.27929933278096,-3.016999928815124,-30.70824513313776,-55.70578529017057,-77.37045276684015,-103.70346871050853,-135.53746322293802,-162.52301978540544,-183.1793563755601,-213.93224201998632,-258.02679974685304,-262.2782285120348,-160.691025236558,16.466411452195292,163.39673303983622,230.31464028098344,245.3436156599861,242.8376246117058,231.97824753263723,209.9932137965895,173.09960108451452,127.13058444661073,87.0659099578813,60.10124268388702,40.850772193026835,20.279523662783106,-4.842859719738298,-31.8782369836148,-58.46537353284492,-84.30276193664946,-113.24770001890052,-148.03557273085002,-182.14151843038695,-206.83439000887196,-226.37605220173063,-257.9636183578492,-292.3371055575529,-265.45266820139614,-128.33520498804526,60.179575968722695,193.8891291658907,242.2489792777699,246.4729228636172,241.7389927717266,231.43363801464668,207.4924138586685,166.69686558112846,119.01280820998113,81.14119735930174,58.418571836118645,41.08011329795413,20.132102625276854,-4.139752097783404,-29.395752746853592,-56.44423293397238,-87.2812860625252,-121.78931139849516,-154.03545014076795,-178.07188028795073,-199.23917143267937,-231.66792848034976,-273.8785135282341,-274.8356171512577,-169.27141114367717,14.330960497146654,165.6348588269755,230.96123505497133,242.63903882428878,240.3868116231166,229.97716207512022,203.05039387249428,159.51456488173844,112.1175897999851,76.20194455030892,54.46681595020793,36.86593833962303,15.948965875896125,-7.473545258016673,-32.62840432931292,-59.63484788603181,-86.91549522377746,-114.92526676840691,-145.57043983224798,-175.41941474175349,-199.52863130104674,-226.07459519495032,-264.5087317892679,-278.64144198926965,-197.39463436231307,-24.11126123972662,138.73740025078374,221.50459645248566,243.60760489284917,244.53898412080633,237.1901364279521,215.1949509199588,173.4224697398787,124.722077381663,88.61848816120431,65.0291811205034,41.96916852671011,17.34788191784055,-4.375602199651927,-25.66110821708976,-52.83132032018175,-84.09862416578686,-115.82298669480225,-147.85599688363416,-177.3085370985676,-199.8061486074206,-226.05990420939753,-265.8081897059957,-275.86404460964087,-183.8243152618734,-4.004076802420613,154.67977952273318,226.74961198225913,237.98275755518708,232.0861965467145,223.11761995537634,204.46503938787134,168.28432783595812,120.63716761095655,79.59980715914871,54.001087409770044,35.50440417081915,13.719115195187495,-10.912749796218922,-35.335733862241426,-62.182874440024364,-93.36570694547206,-126.70824365569038,-158.2900698260021,-183.48511774776054,-205.37093440064316,73.0,98.0,57.0
55.90520150259603,37.466405538571216,15.665675646741882,-8.570385002762581,-35.21718243922408,-64.24668816890615,-94.0391345884576,-123.4856088993922,-152.7267108173017,-178.8216838082364,-200.58565675276972,-230.28644389338243,-272.5777580253268,-279.20542100652,-181.44894856438793,-0.4957666969176916,156.00443412486717,227.36831087131063,240.14507512802652,236.16456614394312,227.78443640206467,209.04214331101662,174.75553438137035,130.40080567554264,90.0134627782622,62.998004018607794,46.25362649100653,29.78630417971825,9.046869429554908,-13.35045009539052,-36.265335650360754,-62.15361489577036,-92.45395464037563,-125.53990578249346,-157.03013533226147,-181.3949067090211,-202.2499905028429,-235.11375311654427,-275.63255135405086,-265.24161090293836,-144.69633922893482,40.871262470917785,177.21415618444226,223.96553390175333,227.12474562496936,224.83020863289,212.47202253726724,179.11926620386137,133.35390097950167,91.54532710456483,61.78995614156343,43.59945394373621,30.39849724598878,13.700756623947951,-10.80549684348349,-38.48193649572977,-62.0140409105747,-84.17602522832418,-112.70224878082715,-144.26447686889574,-168.66812230803092,-190.1560763398931,-226.44209544910572,-267.0143643509767,-244.94869505970902,-112.85699160877263,66.14707567482716,190.61596247330294,238.02153837182996,245.60318003569424,240.58471890371075,226.9919469415908,200.88244662290606,160.1315593969579,114.35405217033241,77.98398858612067,54.1747880839189,35.3474371371218,13.423483749959349,-12.598695128124417,-39.66869017598504,-65.92702632012201,-92.09728768674934,-122.80480610430573,-158.4357087566981,-190.4190210592817,-212.3168466403878,-233.6821449356524,-269.5442513408994,-294.408073485717,-236.84385205046362,-74.02594113361832,107.79281892221599,215.47801655876,245.79308071708223,245.40827456462245,239.6583376078473,226.25075366011902,197.2714184316553,152.8657221469454,106.47445391793183,73.26485205743587,53.421883995544356,35.53425676146744,13.309342655751678,-11.353815149886977,-36.93798788158009,-64.8899138204503,-97.01893708382175,-131.71564911462315,-161.8580254897068,-183.91071330547356,-206.88650465534278,-244.01353546847838,-281.90243884290834,-256.55515585644764,-119.76346768265634,65.79076583708088,192.97149215037953,237.54281268040708,242.56649258907626,238.58718723481732,224.15507496631835,191.8258710105787,145.43559223314966,100.11623558565796,68.7721477214041,49.476001332443914,31.219039153186767,9.346437537399693,-14.530309307105725,-40.29444227734388,-67.54536450520617,-94.81799601562376,-123.51800209603535,-154.59175671252763,-182.95402878195227,-206.19940223661018,-236.3175242016833,-274.28595989327414,-267.24591621113535,-153.28692900850314,28.927029753264435,171.31310484844042,232.05840337202903,244.92777058234168,243.35088765678495,232.77855563154282,204.99165877526517,159.04863610831023,112.51943323050732,81.07027303325505,58.67286632566081,34.80134789215733,10.685189926584549,-10.228239908934508,-32.80868003252382,-61.682697054358115,-93.2565809334199,-125.05810842422672,-156.91567703339558,-184.45014887087783,-206.10456749775506,-236.7305337097538,-275.29660042629706,-261.68897868299126,-136.8655955814146,48.88421419813183,184.52828141471818,233.94425418655229,236.80713780954468,229.89872054293733,219.19548811721447,195.90002838751366,154.9700642918721,107.35577337857907,70.72949816236938,48.532024806615155,29.73683763938745,6.672496802787619,-17.96273959524059,-42.670662183109485,-70.78880322950725,-102.92563666358092,-136.22868631660373,-166.35750149400255,-189.61333957248291,-213.19860205231473,-250.36754152057028,-280.42074479356654,-234.3781723806483,-79.3525756129886,102.57026770925611,208.41094790996954,233.8855027881517,232.8226249445001,230.60184776745444,216.83802247400965,180.1037810806509,128.36758154508814,83.23588582401322,55.417346730115284,37.58125889953847,20.861591874695364,2.775420611090153,-18.748861095178672,-43.96047225749575,-70.70071681545068,-100.0440724285136,-131.65348511292,-157.71340945344932,-177.51826013860986,-207.9675383861474,-253.01137740295803,-262.2143306444359,-167.60803022177396,9.125170430448723,158.3409971764282,219.7640399254943,225.17827657716313,217.24380187990448,204.93779665009666,181.40646946093202,143.7005668308115,99.25807808248479,60.970364154994144,36.22265316924488,22.3835135616406,7.894325412738612,-15.572227485232295,-43.90306274811686,-72.83485541071875,-105.20810433959545,-139.96733661449963,-168.83291133877626,-191.49911450232264,-223.4357400326511,-260.62726018291795,-244.3777483578901,-122.93685211305281,49.73304618687183,169.40420089283847,208.37768098476815,208.62893221396672,201.57978833724312,187.49346525814283,159.44647430359043,120.69161106120508,84.07825573986942,57.26285104635465,73.0,98.0,57.0
-239.7894375165373,-270.69061280328674,-217.52542256040516,-60.815137302995744,110.59873302978478,210.98408535573517,242.5419009718331,244.9795044565594,237.65154582847865,220.95934177770272,190.4541057164542,146.70017539737552,102.45829313786321,70.02458732925484,48.66632518676702,29.52790331198282,6.197536672474704,-20.42661416721444,-47.38210570110056,-73.3410219199469,-100.30186137791384,-132.8481208157604,-168.51994683521556,-197.73560588244555,-217.67116100518464,-242.48991544360376,-280.61895997075715,-289.27025683860677,-198.54516035461307,-18.110738608267607,148.4873967696898,230.2694548346103,246.99242534300348,244.0893061265467,236.9606405294317,219.7143685760236,185.65865349908276,138.85089163522986,95.15517180035026,66.5936293004084,48.5373805687142,29.561859557030008,6.295629925199896,-18.62193953609737,-44.67584749868435,-73.70368784631113,-107.02091336423368,-141.2398798012731,-168.90668564508113,-189.78140453904234,-215.87221277462518,-256.844021340794,-284.6101750998769,-228.064566471114,-65.82688760773941,111.66202979987749,212.93218255430537,240.9800363014825,241.9874108958232,235.93561029472434,216.75326323611569,179.34196722632458,131.46043116261146,89.39491947887531,62.41885457866727,44.51021143631502,25.223582690285138,2.599833415363112,-21.74920334312848,-48.09885427689983,-75.42981696388479,-102.83833906256531,-132.36370049332422,-163.3790967667005,-189.93048429926338,-213.47920163492876,-247.64964444385475,-280.4654713078837,-246.11732541716856,-102.90174248174914,78.04147712982949,196.51378996236926,238.68974561622315,245.25223125403687,241.50028275715738,226.88183575384173,193.11473925999834,144.63669341076906,101.76318239397662,74.29947232478537,52.08836920369697,27.600353632251537,4.364120105327112,-16.218340403043527,-40.562150085536175,-70.73554216596797,-102.41149474248864,-134.33661031666065,-165.61783164748846,-190.93967166409246,-213.22605761973307,-248.55447535293254,-280.50357259272613,-237.34382704559053,-84.32340469069698,96.92991906551275,206.62721181306574,237.34085030044864,235.05045459678212,227.4818082750259,214.1991277282792,185.73744429248262,141.0386181793251,95.1087829867369,63.17464507107879,43.31321562958536,23.523335336616864,-0.4852868564770807,-24.97373109557473,-50.31987329039255,-79.75365824928816,-112.58882640581696,-145.49422623274563,-173.77023782212285,-195.68644638059087,-222.3903928909395,-262.235077400698,-278.20053510439965,-199.2733375062072,-23.861136718847234,143.28027433233063,221.80439779678184,234.23062932463125,232.3850665916952,228.5574203693736,208.67121066849563,165.80179505102308,113.77965858371878,73.50002484977492,49.76378897957191,32.82011526198653,15.842712002029645,-2.994990321280059,-25.758062562781756,-51.56590635725204,-78.79168334844444,-109.19045275924954,-140.11865259354045,-163.5873514693172,-184.33874596057385,-220.53550697941185,-262.9087728452422,-247.06957535475632,-120.78512029608068,59.791144270668475,184.9075801752845,224.66096548730107,223.2595604706912,214.3813404468249,199.58646293806862,171.8485751828868,130.97874853414578,87.06884404155886,52.338656300179615,31.499623934528703,18.845831225983076,2.0559044317432043,-23.602110030652106,-52.14895884019464,-81.69848512873955,-115.31017194305494,-149.2570131192561,-175.52350110441728,-199.0826380966749,-235.2294932187923,-264.936154620467,-220.04951900315348,-73.30867041918911,93.01713457391705,187.66589040650638,210.33304189086428,206.91797768122655,198.61202523360038,180.95142114477545,148.85222802728146,109.3372836465358,75.28809082847825,51.11919796384596,32.345217760589065,12.942570493808399,-9.624531693863213,-33.760345661901304,-59.96562579092985,-91.09025275790081,-125.19349607512274,-154.81233384166612,-182.35024309768548,-224.36159621288814,-267.814775280375,-241.86018278410688,-104.19908591797413,69.8008469632368,176.49681509623966,206.96918374456405,211.18158984511544,214.66524328835678,209.56303918842616,185.02099891700368,143.15354662655992,96.86787073526027,60.18514423725308,36.42319835324937,18.090715417820654,-2.3457312077827774,-27.32100309151709,-56.74960423415805,-90.31499406232447,-125.96630668720935,-157.9383453675439,-182.25603581287896,-211.4605152956274,-258.0446985803624,-285.25648091187657,-218.41561712255344,-54.59644611393235,103.95690422349352,182.68721054979727,204.74332771034577,214.09749631804706,218.50840950416432,205.9805564305681,172.20032480474856,126.27318027642015,84.06089538913814,54.526315827116825,33.10424582576247,12.630306137568803,-8.593464666053102,-31.01171724757232,-57.65921873386636,-90.14923653441781,-124.68868711081491,-153.72554396839016,-175.68575881767728,-205.68159058696534,-252.82152877601203,-273.89102841833125,-195.15736122579727,-25.066790951599668,128.06675231121793,73.0,98.0,57.0
118.02405955816687,80.0509605509337,56.85522925770609,39.349403494094375,18.93085629530968,-4.2668389373274085,-29.15209832308301,-55.9864321001082,-83.29029958082981,-111.05438349066033,-141.38676591039024,-171.7448654741451,-196.52810289365684,-221.80231972151273,-259.3346258898065,-280.924813808304,-214.96113884105077,-49.15150500221365,121.2024599551912,214.98017556152996,242.52147255708536,244.89486373363536,238.79402760126115,219.29541444725461,179.86723540774088,130.78082311698955,92.46191507470917,67.92716491928553,45.220226231937886,20.527133031171253,-1.6626061643099415,-22.565092167259834,-48.85793824743798,-79.87579824982885,-111.58234155159725,-143.6095849482457,-173.77392988189672,-197.0243593001698,-221.65374781246132,-260.58800008839233,-279.2117323302971,-202.86167038782042,-29.303479482588397,138.2274081045106,221.78166601484605,238.1735110983853,233.0504284084354,224.63945771889624,207.87954791900546,174.0887344196994,127.00090034871721,84.16699262435374,56.704526005844656,38.03005525478677,16.89115388019305,-7.637143614323461,-32.03336758306192,-58.34722532454194,-89.01584604032907,-122.26743498472892,-154.36850517570878,-180.54401311511415,-202.13868594155198,-233.01497394556608,-272.44175059142555,-267.56351089662974,-155.21360887866027,30.7018554346708,175.7633156320655,229.51867556572986,233.7315836105832,231.95471051930926,225.10845621353255,198.42666404663476,150.67875995430862,100.3034676370856,65.25653978039905,44.636301056248975,28.016950710318554,10.685201662537207,-9.12167778339697,-33.03005743212167,-59.251608012045224,-87.18104514277451,-118.44127785184438,-147.86427100557304,-169.10054885069064,-192.62640082480038,-234.073110117349,-267.9247729897287,-221.83755746470666,-68.98596886435183,105.1345452375734,203.80272194127082,226.27664174610203,220.96014923279174,211.06113273174142,193.10507734877356,161.1156967791094,117.98876974142868,75.70208561581477,44.93503558772687,27.517131170952577,14.903935637879679,-4.6170184653218795,-31.825934659424927,-60.43280171180712,-90.96151189238279,-125.48486977425918,-157.80862840308632,-181.86764399787128,-207.95564310788887,-246.92319258974928,-262.7575732158195,-186.30075485490457,-22.003377867154043,129.5640012660467,199.61361796232333,210.35600863906203,204.97464832310885,194.85387537714564,173.10975971794895,137.59040716202,98.5123437312506,67.38565089043252,45.43111968832841,27.014622243953358,6.718848499729526,-16.510169069994937,-40.98127305144537,-68.3880008854442,-100.9351155905311,-134.474197494474,-162.3398667078727,-192.45308316912815,-239.05950038379189,-271.0840646410235,-212.46955013679485,-52.07684845783425,110.04018740546098,191.12374994510424,208.8962869152228,212.23548003137384,214.72982343912096,204.6472978320464,174.27349196961202,129.5275664811079,84.85678568289455,52.20660195226538,30.98410214531077,12.60419565268167,-9.09227965081173,-35.367885048435845,-66.06601028729692,-100.56820864392522,-135.92986282191038,-165.57739462428947,-189.23583798239838,-223.4614659166357,-271.1885360781897,-278.14711899778865,-177.7755503190631,-3.062765985063428,135.3735970865517,192.4767507856408,207.67875668376146,216.3451030757027,217.09723066539473,198.22064965969707,159.5147235444613,113.03350109368989,74.22160054773086,47.89282700395194,27.271705708101152,6.548764576220539,-14.848730433044558,-38.12501737846767,-66.50576404086421,-100.21932535264506,-133.9665602738925,-160.44172533272342,-182.58732814095669,-218.17381298552513,-265.06739098435287,-263.56460270416414,-151.5700664174904,25.945364297906522,156.6457299993616,203.79370215736586,210.97222532595308,213.0558762796584,208.71597624313893,186.08543532346363,145.70504106587896,102.82480758139289,70.12772484392116,46.62428617504659,24.257958857617176,-0.16349424746390206,-23.370209784862123,-45.432774742936544,-71.98560618178479,-105.29987724456836,-139.46299527091708,-167.1277779580968,-194.29680776822113,-235.68342547499017,-274.23238611217516,-242.28174727959575,-103.96757648451462,66.54505847545028,171.2294024281134,202.58789881815625,207.71808060827945,206.8413120408687,193.88809920137308,166.3636870579905,130.95637740626375,97.15207584202055,69.2508984883125,45.395965645272035,24.657371564385997,7.653772400587138,-11.964032298476855,-39.743368445695324,-71.66608808359815,-103.71990828788023,-134.48212399605237,-160.49611560796345,-186.3912147499369,-226.69534769400897,-266.4324104073444,-236.95218292473905,-99.51018128200205,69.6659496361391,171.84240674494873,202.58409592933722,208.6448997941732,208.59639989886128,195.28144026703245,165.9050924996889,128.20019973002854,92.82444379952135,64.15089845321283,40.499538926289944,20.55582006136591,1.9579996001010198,-20.242059881110354,-45.72699554750706,-71.00226418363683,73.0,98.0,57.0
-209.43532970623977,-244.7656808599965,-279.110270358071,-247.20374560166613,-104.3266490572087,81.28346426264481,199.9145985186907,233.15417214607197,233.07955748118175,231.18767143235226,219.9018520599675,186.26687914902044,135.34226081350542,88.25927698321905,58.28415488293629,39.780909715667406,23.13976121581603,5.330347953378852,-15.626600297932823,-40.48308208996318,-67.04958885304809,-95.91021432755264,-127.56386734114429,-154.7888755501833,-174.72876956184717,-202.70418095656052,-247.39092812766188,-265.97077504757755,-186.76725733678953,-15.337328945238925,143.37481455155637,216.01810142374939,225.82032299740393,218.46235985404456,207.06612022118097,185.39089993313422,149.38057917606753,105.08457400400812,65.35668660600318,38.71902674433631,23.96843439585194,10.293568007391226,-11.990954647043454,-40.09587838755478,-68.86361052349194,-100.63113255839997,-135.48672019247562,-165.53609057940062,-188.33153362009526,-218.25806231698473,-257.02139050052347,-252.31999000317268,-144.41022572174802,27.93462701343566,158.58124749061506,206.51614526957192,209.30953317700053,202.74709498848435,190.08402763587347,164.01804970111198,126.0236212271202,88.43502788676655,60.29340988115355,40.034327174154036,21.495578172051758,0.22311180468776937,-23.46324531404195,-48.44178928977742,-77.28836781076332,-110.8992285293775,-143.16604770668144,-169.95582994000148,-204.2654545267753,-252.96572672572776,-266.3178403762062,-173.64666855306027,0.006316260924458476,142.69550920102614,200.29517568442935,209.92943150343606,213.38758859023966,213.69584472572672,197.9391060634079,162.26864692218948,115.92046708605031,73.94787660812719,45.237465707727424,25.757535321434567,6.803449529252114,-16.225978193958152,-43.784915478666456,-75.7133660048742,-110.92763893345908,-145.38586576616933,-172.56244230432904,-197.1579637282044,-237.04459989713976,-281.10655556197906,-261.2936396939936,-130.27395876622873,44.85408000187398,159.35015855452184,198.87957902319607,210.35744734568905,217.98427153856102,213.95131061740085,188.72503048010194,146.14780409446814,100.51659178674181,65.51465109399123,41.71826416785278,21.385286977442583,0.42295430787311195,-21.242543534779948,-45.68634142888115,-75.83694592704339,-110.31482011929513,-142.57164599582146,-166.6573338507528,-190.721119641046,-232.07353275992432,-273.3769706817037,-243.1581009843973,-101.94843892707787,72.38219866452714,177.64570818791213,207.67116868749903,211.6280175193389,213.04770125964785,204.38491191713305,175.74200893694933,132.78940330077035,92.1191744159248,62.72976789890172,40.35270248047795,17.327915870567765,-7.1429110108423615,-29.653008938568963,-52.404370514215906,-81.02420189016203,-115.5092907642975,-148.2118950876929,-174.31596886115693,-204.4927520309161,-249.42571989864052,-275.5591701952426,-211.9981301678848,-52.713897227738855,105.90286508276822,185.85065831645943,205.03070769900387,208.18551868515937,204.6545251817775,187.27287770770425,156.50115374335783,120.68672812946018,88.492011707191,62.07270083927873,39.00495348703727,19.47958168433844,2.6729830184115317,-19.189831465824863,-48.81943779250108,-80.9576555354771,-112.87444078978452,-142.58005490993136,-167.35856110001498,-196.1675950553761,-240.49162995883202,-268.5055511298031,-207.09988912931453,-48.43469297122318,108.27791878809296,186.02191846658837,205.23033985194013,209.40835056956865,206.47274122584696,188.25414127899515,155.3619664954469,117.37573051849907,83.87233244492492,56.89994451731443,34.38435741492018,15.264299913938943,-3.937781932136056,-27.47314821102803,-53.063047435873244,-78.58047611315456,-108.53491675587547,-142.24623486233997,-170.14576026285695,-193.74541968810047,-230.6942461364589,-270.6775036046589,-245.87222906473585,-113.40446621712464,55.23404161347879,162.5755330154769,200.23577861225257,210.28728330516128,211.64983811437796,197.3473911391961,161.8860865127077,116.11490784352934,78.12768912215842,53.68574024502033,35.34313441128292,16.99773815948119,-0.3069704785462626,-16.333267193053235,-36.546904658850366,-65.37233235151946,-99.92931347252804,-132.19570917197387,-156.40614464397225,-182.3704970134284,-224.31807565003092,-248.84326732357582,-181.62028140213263,-22.62656181723477,125.3809624077977,194.9941777414805,211.3618317976237,213.60489395482205,208.30807358984492,188.19717919219903,152.44322335663608,109.55556833498675,71.35777188234574,44.257197634981,26.026467711616878,9.18809792298033,-12.550953996992098,-39.474160264018025,-69.45442188509043,-101.57446715629833,-134.09578127415267,-164.30244970316028,-189.1701338359529,-214.14181543509525,-252.96032029734874,-283.8613322753116,-233.00616601911045,-74.86476019211023,98.62821714443105,192.62942954775409,214.68570452764695,217.05864640454516,219.3082665387473,210.99367528081208,73.0,98.0,57.0
53.88515238805761,34.76938374551335,15.71058923078924,-6.482586714376407,-30.4868155036502,-56.236099920782856,-86.64479397591147,-120.75350458047411,-151.25254378560868,-178.19033189162644,-217.73181976390794,-264.1673793643582,-251.9524915766135,-127.33021801391138,48.97977603540363,167.53965181178174,205.5015115563098,210.76108060310887,214.36958428275355,211.24102375371632,189.47748553695953,149.3311830019641,102.71978800136279,64.24823003921814,39.065976316383825,20.54002444534027,0.63173528690823,-23.73491363374414,-52.573760097151,-85.65074672488201,-121.25969328092373,-154.15602519755436,-179.1942906060494,-206.54229977557156,-251.45930710640002,-285.603756273333,-234.21852881854755,-78.78706386093609,86.92878346298329,176.63953653695154,203.17953525819323,212.9494502852431,218.6392500511046,208.93403950554375,177.7110304277613,132.5226245513565,88.99298025033865,57.802024262801986,35.796483198955634,15.412335507547633,-5.737431258142829,-27.859689482213774,-53.7578820233028,-85.56454054919854,-120.23421150139039,-150.3902772584745,-172.76552264369047,-200.52995311326302,-246.43525868705296,-275.53998357423956,-212.51245922663733,-49.380840921813565,112.23896650742653,191.99109573171935,209.62944238747974,212.29186400065504,212.1993868940578,198.266569427182,164.11683546188195,120.13069521266736,82.45334776773218,55.9396121908607,33.970543229865065,10.239601361783855,-13.906279397472927,-35.92804969251751,-59.90880539776308,-90.61348239851577,-125.55832367765481,-156.28386702348308,-181.80554944180128,-216.24373924086527,-261.96000144130807,-268.92482949229003,-172.8702465204191,-1.6957709993638752,137.90821036292039,195.25661035274908,206.45871397954937,208.18702008379466,201.2380899734833,179.48659255339086,146.21435488883267,110.77023728004094,80.35083509920888,55.1440053693677,32.90856570022683,14.602934251947238,-2.7785152346812145,-27.13192820735871,-58.068741928251754,-90.22633444576927,-121.87095086925927,-150.17194694185346,-174.49273039315253,-207.55107531058778,-253.32526922933783,-262.64285075577584,-168.2202492415486,2.2526101725633922,139.50093192729483,195.2102934340699,206.93663127872532,209.67221246342385,202.9887130736646,179.94238891834036,144.39121264359218,106.98794983612511,75.49388186159112,50.0006932501944,28.57531984363337,9.981598785184017,-10.257425828636057,-34.875628231721045,-60.32489243750252,-86.57189535607951,-118.2541817723476,-151.2592849057667,-176.73382919643132,-202.43095343044462,-244.04262056123767,-273.76770366316896,-217.6605343796784,-63.09369929649048,94.83593241340003,178.84308842309414,204.41510256613927,211.63060749864272,209.61047750475575,189.1225953406053,148.87284741976384,103.73396475785684,69.870322895734,48.17073036078019,30.09719209847626,11.774070487202865,-4.913696640116589,-21.438045435869597,-43.97619678403645,-75.06350678458959,-109.8883125045936,-139.98132420859326,-162.814927484456,-192.97502144218507,-236.43984107365736,-241.34976315552328,-141.64284262695443,26.20118182244012,153.72031498736544,202.9609439168758,212.5897452379635,213.16353493179332,204.2547764788042,179.24418391140105,140.24900638310973,97.58699335964032,62.33755526956401,38.35494480814431,21.384550749150534,3.5390330593203747,-19.90739747679713,-47.87414815716464,-78.5646421285728,-111.03207092518517,-143.21549367949822,-172.07792500251045,-195.72646139510198,-223.69458378162295,-265.4099392414382,-280.8469424917419,-196.14964468276202,-20.64409447935443,135.58157097842778,203.97120418024264,215.64844195905715,217.9316333855996,218.5783974343285,205.24274764557745,174.79905100457793,133.85524573181664,90.96270230634975,55.73159641340016,31.846340630194838,13.221623029770742,-6.984819234821368,-30.311485455565485,-55.09173772684978,-80.50653836992346,-107.91982120018876,-138.2472694662688,-167.8100728473503,-196.1010144439676,-233.39686998620832,-273.6240808261382,-258.83438817175596,-136.05848990558928,42.12236811908654,170.15929748117836,219.0801923170159,230.66187635917197,235.79031190897805,229.32606900453715,200.8477659587675,156.3724513837412,110.95849803465661,73.69292713910147,45.850102671573495,25.189872152898797,6.546569806085891,-15.249647352479032,-40.696757650590826,-66.67638820510173,-91.86218777365946,-118.67521581821379,-148.5981802485954,-177.3836636364354,-202.84526441402645,-235.18694288522894,-273.71774265516285,-262.4039018586927,-139.6884638951448,46.16066887735336,180.07485172376934,227.8583973279505,236.37160928880695,237.65277889244268,227.96666949959456,200.03595549211474,156.7014061412644,110.69317393577371,75.9197277876386,52.60076779810917,31.247056586490302,9.273035074281232,-11.6606280270126,-33.98582938107082,-60.9455146383478,-93.55341162890922,-129.0645895997601,-161.78580367618022,73.0,98.0,57.0
144.44480554163374,201.0166350937704,210.6400348370839,212.8775504150851,210.15205413270098,190.33010592958863,151.62651486021267,108.09151104165845,73.80322186341807,49.52160002400501,27.37837696401892,3.1057250683459543,-20.431312161614027,-42.363754796881324,-68.02721809704144,-100.60929443880012,-135.20551689038933,-163.7904155891934,-190.08547104251454,-229.34992006397664,-271.4510693993914,-252.9660363141873,-126.815676950082,46.19167107972468,162.3624615945297,200.88605796639112,207.39278727193232,207.47833185163677,196.51097370421837,170.69659007028523,135.7627042402508,101.32740489762244,72.66488761227608,48.42385463526372,27.171172536967966,9.859496442927671,-8.891864008352092,-35.660597506080265,-67.37519218438062,-99.4711381164106,-130.59067625266727,-157.31020133466342,-182.37408122182825,-220.4132213206069,-263.34513767095723,-247.3721204652881,-122.3021711728426,49.615207484017496,163.24877063526395,200.82956952780114,208.1775224310116,209.1674502468884,198.04999867313157,170.54061501051174,133.28771405375886,97.1551786648542,67.62644332269107,43.424850991157186,23.037228457831713,4.552138742607625,-17.004360759106827,-42.31428448229575,-67.60190320623771,-95.09485069209751,-128.13684255227412,-159.5094362724199,-183.23371498555127,-212.760971858985,-256.83374976631603,-269.24936567444956,-180.31747317379126,-12.695762741468789,127.50670664991549,190.11706259024675,207.33245755608965,212.32218817696977,205.9621945657207,179.12132639942055,135.4393502694463,92.41981465715762,62.694625053677484,42.91500224021292,24.781165845300666,6.718644518419169,-9.465581010531483,-27.075065335475166,-52.172654064393626,-85.09296894480991,-119.42463773629159,-147.015724245449,-169.84487757038428,-205.1562207302036,-245.54603079420323,-224.29430924283267,-95.37296325117279,71.02378847715111,174.95151781860795,207.7608655019339,213.30003352461557,211.95121299562152,198.78870360011499,169.06636308608253,127.7414703124428,86.29288550815563,54.312613614075126,33.064011542299724,16.646577561186348,-2.6249555627711607,-27.64007364611128,-56.49136148599644,-87.83577263330994,-120.46852234383655,-152.06601685000334,-179.3300595211427,-202.58491889440066,-234.77055915220615,-276.02000043417587,-268.83721557115683,-150.86503167891857,31.584082782760458,164.40611159743077,210.53318795328758,216.15515823874978,218.79896400554003,216.58664315600777,197.99741578927393,163.68903512153312,121.24200725465518,79.62474236710396,47.80031019721922,26.303489566029576,7.719306848899795,-13.458064790657685,-37.398343645935704,-62.34871314574545,-88.12120830524337,-116.46149597938324,-147.0829328021567,-175.81340964603214,-205.46897408364302,-246.26398421101942,-278.5219101336732,-234.5113103858646,-85.24566372238664,87.60705789635334,191.16692522733996,224.13826225947707,232.5264683298858,235.791204267601,223.43010366569195,188.99316712321874,142.75103213599144,99.20342155811731,64.72315670368774,39.322449084908236,19.871165935182884,0.7079040868844135,-22.34421414074375,-48.28032456715636,-73.98586817722759,-99.28967200558863,-127.08716798990542,-157.2992245914644,-184.87090535695205,-210.84933925402908,-246.94688881862322,-279.315999099589,-238.91640535482347,-87.2171011527874,94.04454510581589,201.30620267699643,232.05017853136965,237.2500056513739,236.45840693654068,221.8517466822299,188.69796069826674,142.95021662264514,99.14050359087402,68.40977211984605,46.55002847275832,24.849656118771684,3.1467165811915834,-17.7955666293694,-41.200756077577815,-69.82688589719191,-103.73793229379507,-139.07226765907498,-169.94348661325932,-193.2862668872529,-217.69094165894415,-257.05604921349925,-283.68055151885284,-223.7886891629031,-60.69859394056257,110.35204410415184,199.13270786205348,216.04529706007776,214.07703436511406,211.18916823990978,193.45664692400516,154.22032109233922,107.37922197423997,71.24563510462524,49.499358816383314,32.81053518531761,13.637235546437813,-7.817396028664483,-29.4056400349938,-51.00916183932515,-75.35957616671696,-104.2399266636677,-131.88834177563626,-155.03518842658994,-185.23370834428871,-227.36026850827875,-238.9085808565774,-153.50462187669288,14.159532798222177,157.3467052930257,213.73291448439775,217.4268336089134,214.205099972134,207.0899303834947,182.76471813889475,142.8553522720354,99.82525952342813,63.840085690863276,36.38962710913625,14.420098592492122,-6.036377777899415,-29.78334457137128,-57.839104189595794,-86.51333578661824,-115.9556825836176,-147.50615775424177,-175.21621273536354,-197.6600514622414,-230.0825004977607,-273.89496372835237,-274.0296496215756,-165.2480817752777,13.672076174679495,148.68130929945102,199.37896528293535,210.9888331568394,217.8187409103178,216.23725174814894,197.438248575579,163.49723620302726,125.6457438376857,73.0,98.0,57.0
