-435.99103560926494,-428.2630161117298,-472.7301756202239,-601.9878163527768,-806.1580253390537,-881.2124579663625,-512.3466568495253,199.56642600007532,712.5835305430712,795.5532933895564,703.7579700377173,673.0133716726905,698.3737295639759,689.0844145352631,606.9755046161764,488.5272506681845,397.77974994957435,358.78308810740214,342.083340783753,307.02324184755605,239.72841816534654,152.00059029495424,57.35278633726256,-39.62837420927847,-137.20315945028634,-235.17229753060238,-337.3306815827434,-437.1640233567532,-516.081477303056,-585.1660430218768,-704.1563136489633,-872.9096650499398,-889.2258143070935,-526.6445185933698,49.24609602297959,416.02223387188906,462.2286857186683,401.25057086162616,393.4325783296276,420.60500935414603,404.7818745967192,321.261523326673,222.90022950295497,171.23065052603144,164.94263140245297,161.11987760870102,129.81872391496933,66.34248710923141,-18.912828283193466,-111.40607227907007,-204.08196900080927,-297.8834814215423,-384.9281062549896,-451.79925251045506,-527.7375068846902,-673.4323975007161,-819.9798668352117,-707.4113390359281,-225.9388054780155,299.78025989542243,525.3866521054831,508.3002491392667,472.49678883965277,494.0272169003842,517.7778155603555,487.68497815592593,403.4676110105255,312.9698352752567,261.6023106556235,248.56172129311517,237.67614756130035,198.63678475583276,130.11872882435028,46.37357324765851,-45.66526435557259,-145.1524814403017,-248.29391096398476,-351.312319780911,-448.92378172305166,-526.9780639539891,-594.0751367809888,-713.617134062399,-890.7565157037458,-907.9987677831434,-517.1605122670234,101.54371645539089,491.4675282638779,545.0070543457283,498.54779386328465,507.79085563176653,544.3493885374943,544.8993345298155,487.72308237493604,395.41586962044255,319.40828869557316,288.02412151114186,280.886312749699,261.2495962588574,208.25595146996685,125.16311205111116,28.202358302696087,-70.82162210517633,-170.3709027761915,-272.37722564893636,-373.71013306067573,-466.0733934670839,-538.5033758361366,-611.8428176922496,-748.8789140631422,-916.0916537216963,-860.4956320174933,-395.7776494036901,198.01921479304076,497.9494488379454,494.5903885705227,440.90497655097863,456.93555269279676,488.9330460802169,463.44899366741,373.6345182799042,274.21742000439275,218.25251810838114,204.65873414690023,195.17663798929215,158.00817358384185,86.1913523769419,-7.93861593545157,-109.22817409939518,-208.48012643323963,-294.9289891889041,-363.30130468253014,-446.1680977607263,-594.591329889546,-739.5945748035065,-642.5170031307355,-209.9923686777516,255.85742396182363,447.241117468564,422.7967977703606,386.8839800767948,406.34042591476043,422.3021610864691,377.6807019321946,284.17208071860097,201.45906187881263,166.60187304592287,161.43560355370354,144.89104601165576,92.49450978716253,9.729571964249065,-83.78219008566943,-179.2995696037107,-275.740461101267,-363.5574702222623,-431.9305285611849,-504.88405484329047,-639.5499701759474,-798.2117341584668,-754.0893085310992,-350.34095245550026,168.8054223357422,440.673102443525,452.93630475298306,418.5684053309407,442.4136010777044,481.74230936232163,472.8703559269444,405.5501179643404,322.6228600467699,269.5274023938843,251.51745022188078,241.06796928559683,212.51854243344363,156.3519154920869,72.82120850472037,-29.46527802115223,-134.25771563531842,-228.7348440952734,-315.79350093336114,-404.0873857019584,-485.30006630483217,-551.7183214484669,-648.4705309389499,-819.8607374034918,-928.369768945049,-692.626825096398,-119.83926296473213,373.57475466020287,526.4091810340918,490.96335358962597,478.1312546086139,517.2049956817302,543.2096043873229,511.3064484231827,428.21111918226427,344.7195278520617,303.3630546679362,293.5425689936474,276.67143855031986,232.58968700300971,164.89205724373102,81.28731629531084,-13.90913208280659,-112.29734525097257,-209.46382136631306,-309.8997457359038,-409.69181208792344,-494.65631274384896,-570.3553654309904,-686.2705782084672,-863.5287624935945,-937.4657320639219,-642.9921827668052,-49.781037521500586,404.07345753820505,509.0054169977685,456.81439780257733,446.1474662620983,484.09513286656653,496.2700646245519,442.32263107615154,345.8122999537767,265.5485867310831,232.70006067688547,225.39158104636914,202.4896666731332,144.11640837753782,58.474078253172564,-36.127843393369616,-131.2105854224027,-229.38096491789884,-324.20913409819417,-404.3356217141807,-496.2084462161018,-651.4743934655543,-799.4272101296052,-693.2438279358764,-241.25824698503186,241.91127929995838,440.8929489944731,418.89167579074956,387.5745671266544,412.02375151512393,431.33693637079256,390.2452186548265,298.29789264002085,210.9933065786167,169.23206377824272,161.73136454074458,146.04011141387764,60.0,101.0,65.0
474.0608963771667,503.9486160994491,515.8038294152334,467.4062941472504,375.3624035622541,293.1439007440904,255.15905093211734,246.98939735576658,229.90606704256297,181.2854053656224,106.93987301100714,20.600097876256225,-73.74250019920494,-174.79961871551077,-278.1763345622546,-380.55848824111894,-474.0820133796564,-545.5187475285198,-620.0487211700369,-763.7859901822342,-926.7918690290703,-839.7856639674361,-340.93951453960796,252.60503659403054,533.6429113211343,530.7200358609605,494.3963704294048,518.8948421901433,550.0327474597962,534.1377275271852,462.60145008001774,369.591017957748,305.87421406389564,285.1683761371295,277.8666328522878,249.6529689706386,186.6936810608816,97.86452964199806,-0.4480370143164909,-99.39930736656045,-199.6232821438933,-301.9770946242719,-401.8711622381076,-489.196296613435,-557.1079683124789,-642.655097671362,-801.4853823941739,-937.1840846699845,-765.5843478485258,-214.8909062865245,324.80808103753344,517.6423813505507,474.51313061847765,438.75355549049755,468.6070068405992,489.27144053821166,442.4742859609545,342.83646007117306,252.49039014498402,211.37450634063492,203.31375597687452,188.06985875766776,140.51922714284208,60.51716617762328,-36.95909658957096,-138.48387528977253,-235.34865871341836,-316.08287953185885,-383.07138433580747,-481.5657917712952,-645.3942726395208,-747.4100749628188,-545.2451481428499,-59.812269297848836,343.653958941712,452.54586443813287,407.1124265306159,388.18978528530005,414.80157688213205,416.5607248281863,353.40400882257046,256.5069003139743,186.3391854470266,163.8668567878492,159.44060109670602,133.74195759858213,70.83191334251045,-16.888066505747823,-111.19216523927658,-207.26008231126275,-302.6856329395262,-385.26673921331314,-450.06979957183717,-535.6995164134441,-689.8815116726531,-818.6357571944335,-671.7559778313603,-192.8678634429047,281.3874203374063,462.1463793667484,439.4694988607515,419.6190840449652,455.60071803031593,485.8331946176453,458.2328609007695,380.6961088148655,303.09180014990966,261.59980419541864,249.16129254409506,235.3572783239488,199.2589129532478,134.81951796158086,44.581157912733175,-60.27025991466082,-162.8102898045911,-254.1599728597599,-341.1046663707002,-429.12049220566587,-505.2829999742031,-573.1867951430204,-691.5218038545215,-870.0780472133986,-905.0252306604368,-547.7880694075626,50.91560763476682,451.9167468290921,523.56911246827,480.1832882311237,486.56749171205433,528.9004250519807,540.6946523293934,490.8698368162922,401.4877968548024,327.843486441829,298.9599564165826,290.86109819886633,266.8684657777014,215.0294273902227,142.17561084195466,54.70605659148194,-42.43210428918464,-140.35869400734111,-238.00526238680382,-339.39048111830016,-436.24898489094835,-516.0745292334831,-596.8952010671928,-733.8839879006492,-908.4135028384782,-897.2396318322681,-485.7201683351841,114.32241365385389,466.61571353240436,497.9469456231324,445.8908665573393,455.2547504058858,493.199535780833,487.61715500979324,416.35821174718706,318.5615020170764,251.27353549719643,229.86198786717307,221.86201976474942,189.3290519460624,121.35736452495757,31.373683170657202,-63.504280286549374,-159.2040910565008,-257.828013252707,-348.79490473917645,-427.0708488272537,-533.7102623426346,-703.8658693230893,-806.1056685377976,-590.9208089238775,-85.31699190004514,332.925076422416,446.9984574893138,404.2265748675466,390.48552519611354,421.5513404892301,426.5691978122239,366.85678494995005,269.9792983096664,193.71652129218162,165.25657723775223,159.8404176054919,135.36322791723128,75.97445481070315,-5.928636782986356,-96.55519718013703,-190.36924911839458,-280.4464426086603,-354.7342906495306,-424.5929508066512,-541.8696451883602,-709.1865164248734,-751.7271425327547,-454.54160485958204,60.58588123967648,410.898356089188,470.58015152045493,424.0668649353174,421.11946010286727,446.446767746457,429.20158793195515,349.7312464035026,258.12885129947796,210.26758150979214,204.3724844576632,198.03297142621997,161.77834711528823,96.21862212272327,15.35895145771293,-70.57351737529153,-160.84206835532547,-253.4319793126406,-343.2617123234875,-434.47471088791474,-524.7720760033425,-593.5112112178632,-658.2228463353387,-789.2213158475536,-943.5768132872473,-848.9734139498287,-331.023603907095,296.1421744735311,602.6710925780216,603.8745163778382,564.5814667713855,595.3810619045973,640.0873677638555,630.6997600575833,559.3327446545615,476.780482628566,433.88242254871034,429.20186073656936,427.37499450402277,401.02420980766937,346.20496894730655,271.33464181283404,181.87113833956576,83.56881473437069,-12.632990965746785,-100.36504461481684,-184.582172466596,-274.9687289436033,-373.33690371322587,-470.7079412122041,-564.6777128808654,60.0,101.0,65.0
120.2141679308418,33.40957811009983,-66.27026651988655,-167.39669356244642,-260.80802841857803,-335.74290446083717,-405.40380460167535,-523.6063451108505,-692.2159534539137,-727.8785272055788,-421.34695223980157,82.11093041568667,404.03094671200824,444.9269848151656,394.9530043590379,393.87460913764943,420.9159306597602,404.87058125905503,326.09017437897614,231.39436674704064,175.5746201081404,162.6822832045071,155.498600705169,119.27586042437204,47.063619352546546,-43.932405791566175,-138.73654878387092,-235.25580580622542,-328.5431099993761,-405.1585230103607,-469.7363909429088,-573.2332973624258,-739.5350564452503,-814.7352922108864,-558.3636772019094,-36.25850492186096,366.3283647108967,465.99013964432646,427.5626962522028,426.10062866281766,468.15881806646934,484.66445548624694,439.1139180845372,355.9567348824229,286.8995956948087,256.26097114667243,246.59341663816346,227.6840544334603,183.5879221884681,111.07658922558448,15.06944374478978,-90.82532635413685,-190.30253890678654,-279.2169637221265,-366.6817694422395,-453.08729075704895,-524.0739282447662,-599.0534670137786,-741.2981070443852,-909.0129175288743,-845.7705256715728,-380.2937165260215,202.43579607406636,500.12523895485464,511.8229022394994,474.938693142727,498.2458243587792,537.7640620595223,532.6785002596615,466.8636155613673,376.2816757829055,315.11930627335806,296.3614325469088,286.6472780548019,254.61116588641625,195.7386095548403,118.26089012396238,27.260344277829077,-70.94852530624334,-168.34403562333145,-266.9675994101837,-368.5574027942588,-461.17800527659364,-537.2199889609499,-628.5089351577452,-786.2907983192349,-938.0974642675101,-820.1464806025834,-310.742846915465,254.55204676783063,500.06932228747144,480.94660670171186,441.4178132988059,466.9040617848291,498.29202310356413,473.0443866091445,388.03984916991163,294.1827885990543,241.18305315115268,228.1627417047249,216.07612473537552,173.04121579382556,96.73959617338053,3.971006596361082,-90.89023264313442,-187.5644928717042,-285.63723646190886,-371.9451670740092,-452.0524717896487,-577.7545335464982,-751.807667978788,-784.2113319907729,-461.33328980789673,61.85731569770776,395.6260759049545,439.98822821425256,393.37713054729494,397.6762963237835,428.61325242994525,415.9166938551304,340.14579792068594,243.61841186423058,180.81900934149795,163.32393026670775,156.1448564767565,121.56056992777758,53.835615129297125,-31.567234928852027,-123.50050161697008,-217.31331071508774,-303.86036852104434,-373.6145633634174,-451.1686339751655,-588.9668408637935,-746.2653380345844,-704.2727841989685,-311.63894421726894,192.5766984497932,452.8696148560657,458.18950541032285,416.840019158911,428.8424227962999,448.2008981546874,411.44210739698224,321.3659839090523,238.608218962447,205.85662986948128,204.49101481753073,191.08053639472496,145.3025730224992,73.79011775698831,-9.115486891821199,-96.1521836998879,-187.6451200214216,-279.6919837844139,-369.1485443431698,-461.4488989210877,-547.489370773133,-609.8034941667562,-686.9050179144941,-839.8654650763931,-956.3821876846041,-738.6191893190961,-137.30252923855423,426.76605741153605,622.7720152075607,587.2039876893896,567.0804051850332,610.6696347839393,644.6210268723081,615.00759255389,533.702081948166,459.2780765270724,429.94584387408617,429.9994629244198,422.8847851413209,387.7901321743303,326.28736609217145,246.83355965654675,153.95312955652392,55.072549927582685,-38.8295721319055,-124.62147491254214,-209.72480911560382,-302.8577250282374,-401.98517962389667,-497.87745966223684,-592.5799380550628,-694.1942833247696,-789.3170938040957,-853.2626256592258,-915.7418958122539,-1056.304575093329,-1202.5161152035723,-1011.5978561778254,-310.4105533008305,454.03335990408584,779.3152504569363,751.6270849355901,700.5566056578625,730.8215455304401,764.9075525802766,735.5309767929039,644.2956934338222,542.6922303055765,481.27957528691985,461.883896490619,449.17514288344245,412.3256302783423,345.1499374524056,258.9576710516211,164.66597109909316,63.41391930308655,-44.67303288803619,-153.22598006296715,-254.17644132685598,-348.3986230302663,-447.16360157507273,-556.6081650431136,-661.2304212414189,-735.3045327469862,-792.3956395842406,-907.9978469383743,-1073.115852324466,-1018.0436521176551,-484.4653969406578,259.9393567703814,683.8405388795435,708.0937402277707,631.5846924234103,631.4570637266465,660.0905508726539,628.6431819140788,525.6059079235009,417.601701684217,367.8291413153374,370.4204922157972,372.89536260517764,334.6633888514874,257.3462678547033,164.08648264270064,67.38666162689329,-32.051016844457536,-134.7648988203495,-238.87532455743832,-340.1295805918963,-436.56831857826,-535.3175128377994,-639.4285374634998,-727.6875340212562,60.0,101.0,65.0
326.71931335618746,522.8080402685506,497.2714593503998,475.80979613721195,511.26873901488466,542.5930849578302,519.2250000193924,440.63395989941813,353.85741573845104,306.29081062851554,294.4688468523145,280.3604623168015,240.03308548894861,174.9400742576442,93.20520876546398,-0.8222530120401935,-99.29915204219148,-196.4300421800759,-296.2998148244863,-396.9683609136651,-484.4348169218787,-559.3702463491954,-666.4720637337499,-839.8852761178231,-944.4630792513758,-706.5265621442801,-130.77769323804029,364.425308745154,510.22521084692255,463.6849247312643,443.366814503142,478.96385503775616,498.23446986445083,453.0838419481363,358.99635406044473,273.6040124182623,234.70458079048498,226.46711088359578,207.4863445915371,153.8477556572219,70.7685190448121,-23.486135639481308,-118.42480323313737,-216.17581377317083,-312.35776520128576,-394.1574729147917,-481.04148502164037,-627.3880177067958,-788.4315692820945,-729.6962774874514,-313.0045984112941,190.6727323913481,431.9077194833642,426.0879220109307,388.04908075670926,407.32004837172866,431.6347055933277,399.54814803937984,311.61901490804854,220.3989861510195,172.04926432001662,162.2590560876952,149.90725350305857,104.84172434995786,30.280490383327766,-57.70104572778643,-150.63946549611728,-243.69738168976198,-325.6249141780352,-392.8381433986004,-483.35435297598906,-639.1875909078528,-766.4768137108335,-624.3213359663032,-158.4327688252601,301.2426935349302,472.01311397614427,442.95795988154083,415.127105797962,437.22257323800005,444.77181025809494,388.7866051628894,293.7644723132238,223.7415206911774,204.22859847922356,203.40462440987287,181.2369381755817,126.637641335772,50.46542167777633,-33.86744156357353,-122.15206055842097,-214.50045145913722,-305.63421706295435,-395.38957002496653,-488.04384405854756,-567.779144124832,-626.9720553656347,-723.1666871977358,-889.2000489128188,-939.566905768708,-592.2200914675815,52.463927813067286,522.787996533117,623.0210249668611,573.5230103142703,575.6678836428973,624.9232576669382,643.393174938132,594.6386815320346,508.8145629513205,445.96005813530167,428.5869041426809,430.06906755887786,415.89431128862975,372.3127735242131,304.92000935238576,221.18380669455524,125.49550346143619,27.054982909080316,-64.27221609451966,-148.80742655821712,-235.62088862766217,-331.31463940018506,-430.26480763168496,-524.8793488838488,-621.2308961007863,-723.6658509682898,-811.3224954671715,-867.9191532126764,-946.211606080879,-1109.224134938952,-1199.283116402271,-852.9780159739761,-65.84051948289903,600.8305278478878,791.6786678997946,729.0238505945348,702.9643935322533,744.4855064252289,764.1326483010398,713.8797381363687,613.1839275168486,519.6629611917103,472.5829100444812,459.2849831682146,441.7552970972962,395.7262510404423,321.54904178744073,232.33874626894794,136.21013200191447,32.72849075789207,-76.40402538241864,-183.38352840269454,-281.718293765691,-375.90211642628793,-477.91262322904555,-588.5659648717893,-686.471275443517,-750.9823713576737,-816.3598915835757,-957.4288858184607,-1096.7246498850811,-913.4525332549251,-265.18493047753844,430.7920414879451,720.9738191820849,683.2428575938692,622.926981455671,641.4930507438929,659.541076325085,604.2924984357929,491.16130418293693,396.0789148592835,365.14186311948146,373.62535528475723,366.7576963751419,315.3635604370991,231.14862272365718,136.35703032503068,38.99866999769389,-61.428990458934656,-164.8475534839266,-268.64165579009347,-368.34546110233424,-464.4068486663566,-565.2941676406681,-667.9507390113707,-746.6706184198742,-801.3986508230211,-901.6953925562345,-1062.2127432359866,-1038.6910973701504,-535.80070791253,235.45294320698704,716.6741933840906,771.3898114143689,695.4555558562554,693.2487047912007,732.940731407641,724.3410641403905,641.080022132047,530.8448223754556,459.58537342827566,441.6025261827503,438.5506888372837,410.51052422554494,346.1830713518332,258.1072186444776,161.55043070558543,60.98067031555081,-43.82276380209494,-149.28016494014466,-250.8135147370216,-349.5153127877215,-447.05442195857955,-545.6814180011597,-650.1966344337625,-754.6587011779363,-836.7978308965098,-894.1631928927528,-989.7359494688563,-1151.0723212970408,-1153.4555713039445,-670.6438512872622,141.98059149857042,701.1532036951667,800.9915069685835,728.9866752733407,721.1342595310985,762.080681745952,763.9209529957474,695.5726435747068,588.5404740701906,500.43736375950004,460.04030266203927,449.34024999636193,431.95965157067724,383.50463286096283,304.06212929107926,207.20127289886287,104.386857525111,-0.1250647622257195,-106.46053177111159,-213.0382227738276,-315.049191707557,-411.0743398446856,-505.18237716844476,-602.5207210872057,-697.4262004742014,-769.0682418088069,60.0,101.0,65.0
140.67856213589695,85.58287652195118,5.6821201449896135,-84.22073035194488,-177.85005958460513,-269.14012301494404,-345.8308473809207,-413.84993727380754,-521.9436280869528,-688.383159643273,-762.9510613797956,-514.0631404265116,-6.223908757453269,382.71520477565895,473.8522909272215,429.1422283899669,418.3454491788517,444.2129980657178,435.4903082262522,362.56541646461585,268.5663782786872,213.52880431132942,204.1926079994037,200.3025470241187,168.54172741318578,106.16140558977678,26.535407916591666,-58.91250388087144,-148.55603110535245,-241.21051690518243,-331.3906225738991,-422.0621032789053,-513.5673872850659,-585.7850604311485,-647.2183207482382,-766.9580598798066,-929.9905121641517,-886.6054330871528,-417.76480629242917,225.20189610934128,584.6338356791812,611.2827357801764,565.7824034872635,588.5720262761905,636.2660261380965,636.0827350737092,570.9397478376732,486.15130275602513,436.80660861586813,428.8289910346946,428.6735570373564,406.3067207577363,354.8521077908043,282.22357790537677,194.48897872758107,96.79549261984073,-0.2870610271461498,-89.08562384832518,-173.19631287944554,-262.3599098277439,-360.06586121769993,-458.057078036315,-552.0250087128503,-650.6043693833136,-751.92991424496,-830.1889778342754,-884.088762911568,-985.3424849557971,-1158.069201894283,-1157.069400404736,-652.6098942682368,166.75763177602752,703.1875550106826,782.8206131562711,711.6228107802683,711.7205473933473,755.9137901804834,757.0690188994133,687.7409589877327,582.8068358151911,500.91041401637233,466.87439113329265,456.21208640259886,431.782459501824,376.68776019175505,296.74041598060114,205.21397077142908,107.11613490435377,1.5222749281382202,-107.9511215507187,-212.73546683093312,-308.84939722876356,-404.13673616659867,-509.554476227799,-619.4945543531788,-708.5364834524546,-766.2553077603961,-847.6405073470776,-1008.8648921433125,-1092.371732637042,-765.3174392970863,-41.65167493838901,563.2774438173014,729.2769467652963,658.3466684592374,622.1067722041921,651.3075440689811,652.2314931021409,574.6461103869276,458.47637963679915,380.44522961985155,365.9451657557575,375.3456254783609,356.5931525904414,293.2659004585339,204.19605442382803,108.46327637844695,10.343674036633313,-91.07191216761349,-194.98174726372247,-298.03464252768083,-396.17860348872955,-492.7222044860725,-595.631156313106,-694.3311143765089,-763.0361268065255,-821.8561952613795,-946.9865872010611,-1091.3626649438802,-946.3485350434075,-315.3534154017238,422.8560858032234,766.6509518966093,748.6494039263305,685.3830833352552,704.9336570346526,738.1724479524985,706.9977851608954,608.6983394539002,504.28541596444643,450.0030779553632,441.3577846164608,434.1068522763483,395.4055288224915,322.3432859457307,230.6821271226416,132.92090550516065,31.087919619712718,-74.50454732235976,-179.06910371432568,-279.4997422510415,-377.793388102988,-475.2115527400747,-575.1856463313453,-681.155747046204,-781.7350435752392,-854.4006904767655,-913.9826593829309,-1033.482905866303,-1185.1600857592118,-1070.4730240504393,-445.5368628960172,351.6030635799054,769.3992444595697,782.3098467969926,717.0685578819141,732.2744753151893,769.3880138361847,750.9756555627466,666.0991185240998,558.9156572818362,483.9263372942431,455.4737783962988,446.50277001124766,421.5984562509612,363.218758286807,277.236532938249,177.78170637663908,74.33923863641374,-30.64950302544095,-137.41865849015153,-243.17088376733764,-343.3015557531338,-438.204295130689,-532.8576754868549,-631.0040319981576,-721.2226828697633,-785.4415930714989,-858.4813334306444,-1004.9074830423708,-1117.2489230680214,-871.2437275802848,-182.1074325066496,495.47766743329805,751.2844394559352,702.5458806645594,644.4107464140214,661.7532027410572,673.9651858558108,614.7116901213135,505.1633283941679,415.66254037147473,383.30977203245453,383.7839033151298,371.68722373004255,322.17896470275036,240.34349089982015,143.7887177918718,43.65945090330487,-55.07024778622335,-149.54455879326852,-244.3944181777805,-345.5211487361043,-450.81661703128066,-555.3246827550192,-651.1228992671099,-723.9377170365202,-780.7953661972318,-885.4901520899359,-1050.8677817389257,-1038.7750854313736,-555.8161221689656,195.73589366503361,672.6290704717185,736.8939503844709,666.5997350697817,663.2239661687396,707.1364073107245,713.5913743542914,646.5482932893659,539.8238746982757,460.6458907749851,435.2682408975226,430.52317221956014,406.7941607574887,353.0243456244664,275.4758500711482,182.17206618911592,80.57293633745458,-23.09464963752106,-125.9034978009037,-227.98103347041123,-330.84731604140177,-429.6903863401768,-520.1504062465319,-613.610239361869,-719.0773665335763,-816.5006796225673,-876.2083659099281,-928.1354754414956,60.0,101.0,65.0
-579.6292941318932,-680.4290887641642,-778.1356208049567,-846.388883503683,-904.3337902288621,-1032.5440679327482,-1193.5737057439997,-1068.748845334861,-422.3244633952321,371.92985184969933,763.7287689391271,762.4787726447639,702.0916929616799,724.3946971013746,763.2676329167264,743.7061231940892,658.4447712367147,554.6183437960291,486.5208050612945,463.18913275452815,451.8268001785852,419.09368460013985,355.5226582327114,271.0399118337631,177.58567976706337,77.35587156068655,-30.049057175447807,-139.07655834696817,-241.27233516489872,-335.8769326142662,-433.3399627999979,-541.7335445497948,-648.6164254335779,-727.4766821137545,-783.2799096950539,-887.1560216445466,-1055.5593792308453,-1051.220580609206,-579.7308331640508,170.18028714456662,654.888575556392,717.6511311662231,638.3428368309255,627.5184129255086,658.3627716933996,637.7134429240133,541.4933471854501,429.3964151965812,370.58802836893904,368.81598836803033,374.4398267921551,342.4441352319422,269.04666985805324,176.80650930210584,80.39517617688914,-18.604117686314115,-120.9365437601821,-225.06099385143963,-326.96133945967904,-423.8191781605131,-521.7092205560384,-625.7868485118388,-717.8874172928224,-778.0034220941119,-848.5926271996344,-996.1265344724472,-1095.9102884933418,-808.6187575672658,-84.90059393533468,572.7370697985726,784.5087132977657,723.899989741439,683.6163859612424,717.6714626612609,737.4814435200874,683.5864922201825,575.8458337227025,482.3844772520875,444.51085127583127,441.11399189659124,426.8252645555402,377.29862044756374,296.9913587534892,202.82950998047676,103.95935266386132,0.8369358278077423,-105.08577133934513,-208.465353490243,-308.02881359139366,-405.97914813362434,-503.5625191389222,-605.301390884699,-711.7850382561764,-806.2462544965733,-870.3446515352206,-939.3447279627861,-1082.1769392229626,-1197.066621697271,-940.0930141442485,-204.18323709822423,524.9807316181058,801.3398145317794,758.7778181819825,713.4469869848739,745.1904421501887,771.567187391955,732.1111876010622,634.6783020082618,532.2939431520745,471.5948315210187,452.57365777026246,442.20665963562936,408.26794627183494,340.58360812715455,249.32511963569553,148.08049436585847,44.18046821719782,-61.34787890739774,-168.31246089921717,-272.79042399515015,-371.08893589232724,-465.308114615536,-560.931130369401,-658.9452573559073,-742.44908347278,-802.1306292280595,-892.669475992327,-1053.1427016303026,-1096.8520723421511,-705.8623955025929,41.428234350502194,616.9472313602126,753.7569672961887,677.952548692314,643.8716872300724,670.1607084863506,664.9327870975019,585.3221071318837,474.37649885270844,400.54965061273236,382.1522521926057,383.27622280171465,361.49264597974854,301.09251211548695,213.26916929051086,114.96662404262527,14.791866424721686,-82.77237903380623,-176.53580505293033,-272.9177901989653,-375.74104735370014,-481.31889016978573,-584.4581655441584,-675.0825258857443,-740.2148798620982,-802.5936959445729,-931.9191877025974,-1082.3897262399585,-951.4809233767918,-341.7655099311065,379.83761127928017,724.6955433954547,716.7821140970811,656.4397857832954,675.0533468683976,715.7690593653041,701.5285534687176,616.826263369623,511.62691575888624,448.4518773794357,433.93551782452533,426.6617969660672,394.2027773176657,332.6831521062459,249.80576315452498,153.34646880439988,50.63837510724066,-52.940247714388704,-155.3829217575003,-257.6548408281982,-360.21549185318327,-456.4882638939944,-546.0870467885272,-643.0980334118967,-749.6724903402577,-838.0549860503306,-888.317144825259,-954.9603871293039,-1106.5881804575313,-1195.0657801375728,-861.8027600408008,-81.66522563851399,605.620104994895,824.6969072541057,768.6393382191626,728.8560603168594,760.4234296829981,791.9246682851816,764.4721764832703,672.3428610811146,567.8211262086444,507.29322285587114,492.28862229993047,484.1082356489141,451.3726088791494,386.4519873745381,296.7396541659986,195.15089423407193,90.61526032731528,-15.307105016431258,-120.82223052950901,-222.75842272332764,-322.9447320800063,-420.8615214588187,-513.188675900749,-605.2299701538977,-702.2949631569448,-790.3071011242797,-850.7161728574255,-915.8907353820078,-1053.1134796196693,-1170.4925534604863,-934.4785463042006,-222.67517811307704,503.30927694677115,789.4136836068593,745.5427732930305,684.4759731245895,700.0870843798101,719.3632679144433,677.6313318187357,577.2406169540831,474.85219128902054,420.28808949033066,407.28412065484383,397.0577552798134,361.39912253537227,294.6826890476008,206.07528267083535,108.81209362213075,10.04635155250872,-91.43566493874074,-194.60075782215173,-293.8112212660531,-388.37700414866197,-484.7469345381624,-587.383342069952,-685.0201406570898,-754.2348077981721,-811.4551420632897,60.0,101.0,65.0
-738.2908679049802,-793.4626779726287,-883.0977547061856,-1043.3056688159884,-1066.1612612931092,-629.6830536445129,138.87684048063963,680.8279637624103,779.1076230744524,702.8701431119022,688.9652328688054,728.8966424861563,730.081973165323,655.3150073230601,544.4022666345166,465.60185698529915,442.05123143637024,439.7832148956838,416.4036191459136,356.53235888490013,270.5590250514782,174.64598306516385,74.6318902896836,-29.690560014377326,-135.41402469809972,-237.51564236303278,-336.4461729983824,-434.0969062224314,-532.276566752539,-635.9472034418898,-741.476322044503,-827.8315858756188,-886.2556401765244,-972.009939442784,-1130.7454273076319,-1176.4440795415028,-764.6512720872405,36.194381173315826,655.6909920139223,805.6330562559133,737.0863426234035,717.3304837749046,757.3466963995338,767.7817822814442,708.0885030045218,602.8909215388304,509.51274848442074,462.9650326319528,450.3774999343351,435.7817167978017,391.9734224252732,315.9705480655362,220.62697024010515,118.20371399180594,13.89083613906514,-92.19971792441424,-198.99995296725464,-301.8449178116283,-398.5165322402149,-492.54152119150825,-589.3529255081795,-685.6908175017088,-761.1449930071499,-821.297154304247,-934.4105741988269,-1093.0565965903309,-1037.1726879092603,-506.83873271999846,248.27784098713352,697.8700147113942,738.6525121296777,658.7437694869969,649.0483211521242,675.5035547513933,649.0565494229916,553.136577450182,447.08955470486114,390.4596635674928,382.64217012938303,380.6571624530129,347.88066544244526,277.6886460026987,185.39554534119426,86.00848232038834,-13.8491116640773,-110.08333347801342,-203.77244451923784,-302.0426519183936,-406.1836252429839,-511.64914007743636,-612.6081932566042,-696.6933086926775,-755.7642025507615,-830.6466434016347,-982.3197066043382,-1090.0321707268172,-819.4730922591316,-117.35760405792426,528.0833873654557,745.4586005977662,693.8886589489846,654.2029856204026,688.7286728129151,719.3716994509355,683.1157077628789,585.2815369426851,487.38586432777004,440.6770437798249,433.0988815772514,420.4809173443618,379.1237495484076,310.57028107709397,223.00069816377345,124.01139425680945,20.656407017745046,-82.6734155720351,-184.83818907907587,-287.4272140158526,-389.01774920352,-482.5900400745348,-572.7292896787933,-673.6270703277293,-778.750029132416,-855.8403658013576,-901.4768062624078,-990.4370798580604,-1153.479137763463,-1155.4440064324124,-665.587397240451,154.1422192253167,716.9949919882829,820.5751686082225,748.5094639906754,733.156069313332,772.9111988029241,791.5003728584466,743.0732430082504,640.295021993111,544.5176781370723,499.68500379373916,491.0555060021611,477.91501750476215,435.7853141329514,362.53470164183557,268.059222816447,165.07928227579163,60.16004306192778,-46.02820667463351,-150.6529379110636,-251.7586297542341,-351.68358759023744,-448.0754261990485,-539.3839692692347,-632.9186590943029,-729.8000791449119,-810.6013622453885,-865.7340476770095,-946.942397511324,-1100.8606914455977,-1154.0997656222285,-767.0243108197437,14.234550123821553,636.6929475460839,795.1339584119613,720.3078841592717,683.0610874560954,709.239374703844,714.8006585261846,652.826499318568,544.8526568176201,453.33199977148786,413.8161338377136,405.7257431728461,390.0035998794728,345.09638970407343,270.7288397565735,178.3548692587694,80.3865789402549,-18.897772995838046,-121.30788862894289,-223.86742163373307,-321.4166616728149,-415.68723906483643,-513.844410791226,-617.1595695334429,-708.598034095654,-769.2201830410712,-836.7533761117876,-980.0473848431914,-1094.4498019515413,-849.1100304577292,-153.6044603136607,521.5547861497183,760.8850248596107,704.7580107243531,655.2062712630756,684.3987247887433,709.0815485522963,667.1755267636229,571.5970887797376,481.47336111145995,437.79606472404345,430.3153376677823,421.98422428465153,384.06451165238104,314.2117344382036,228.97765093832228,139.12041136264924,44.264588725628265,-55.03134944706332,-154.97263562685788,-252.81170436907985,-348.31778079497224,-441.39716116802526,-532.2826891627747,-625.0567553155789,-724.8769103042265,-819.337087785085,-880.2535643499606,-930.1175681032893,-1052.9674735050903,-1189.2288850155549,-1002.5152437405693,-309.1796235303501,459.44625088513726,795.9923214508997,773.8920267721907,720.0022221238893,745.8447522981378,783.1917356628703,768.2500100080582,693.7076280732275,598.4982810389823,533.6661302017028,514.1888990099086,511.9010164648315,489.42649366189613,431.4470553693818,348.64809356332546,257.2838718006045,161.97347532921611,62.74721097958469,-36.702154225113375,-133.57084970845594,-227.71615158277893,-321.2574700217417,-416.29317139804346,-508.9233032687211,-598.9982185612105,-694.2240323249869,60.0,101.0,65.0
-777.9682597682619,-845.2558939420015,-982.0107847752703,-1115.4944890511106,-933.7711122321751,-286.6143544221625,425.8959543668428,741.7466433742975,714.581290299157,647.0978785873926,657.5000540592509,675.8599735547972,626.8192119918361,520.1206850767755,424.399330606649,384.7381598136519,383.54822584331725,375.2490561588524,330.9896571665441,252.45909302859573,156.99942019020958,57.01294814278656,-42.15521933083106,-137.1207079933378,-231.44852901177265,-331.69993921091105,-436.72918212607686,-541.6552364671612,-639.3721014928535,-715.8601396875246,-772.2776172217413,-866.3646108717232,-1031.074416025643,-1064.1769873193646,-646.7452233885297,101.18045878307628,636.234649502561,743.2172737302222,673.8384630952703,659.0661294893441,701.8635675058064,716.9203539615728,659.1412888118887,553.8046096073379,467.9211485050325,436.3901016718748,431.6509580979796,411.7226948495731,361.7486721855354,286.8792210708007,195.24122725913173,94.33191418668379,-9.303348482220098,-112.28689510400768,-214.34316398159478,-317.1847856911614,-417.0533408542374,-508.30754470232813,-600.4281752154166,-704.7329932126559,-805.3267774505206,-870.3269625052612,-918.3611409646189,-1034.1646406472523,-1188.1406872967939,-1070.9288758506245,-438.08451044700354,365.04217489918335,786.2712639096166,802.6468090370256,734.9278090253945,742.3965474173079,783.3821946929359,785.0951334175601,716.7516437478952,608.9705855319936,525.9278503898452,495.2640851317909,489.3005990377527,469.14774526413504,417.5287702523709,336.8236554309144,238.71777280374974,134.89470098789852,29.569060458160724,-76.61509040010787,-180.1397791971653,-280.7138373494138,-380.12626984082544,-474.78015210476576,-565.7998601239071,-661.065554021066,-755.9380337896721,-828.2619578808248,-882.7482285749408,-985.6809074176725,-1141.9277386482004,-1098.1053343956098,-562.2302291515851,235.62054544559297,727.0280723237023,781.5102852720343,700.210666458513,687.5741176054856,716.3149289298902,704.1374235153557,623.8622984849186,514.0553384763394,436.5860575259846,410.07204323931734,403.38467597357896,380.3694899630259,326.25923467988775,245.26619612909292,150.22865307935768,51.90444886059203,-48.15304527512395,-151.2123361564722,-252.65999657319284,-348.70490559136675,-443.355855378426,-543.5098433388772,-646.0183092781614,-729.1807746293186,-784.356568740237,-869.5665710407726,-1028.4265445164888,-1074.8906826229895,-682.3352955740537,71.09689651065165,638.88463741897,759.3554671202759,681.4866373731575,658.2150459311425,696.0698839322861,704.6274563603516,642.8320244481554,542.2932638490208,463.61993883174205,433.39701309382434,429.6561937091071,414.72356838579793,366.58104951881836,290.4005126722897,203.40218442883776,112.29535652898564,15.889579562162185,-84.01574810406636,-183.50250472687011,-280.6296860232777,-375.48531899319516,-467.8033652806123,-558.5820503112461,-653.1899807075847,-754.0028718438218,-841.1062022866649,-892.3505362460735,-955.4434096032849,-1101.7049025682509,-1185.8403922049172,-846.6980742583115,-64.84010939644875,609.4133204584646,810.9207310461369,751.1540992453441,720.8740577471605,759.3134377782175,785.5923257264961,751.8396522086845,665.8280863297695,575.0106274733629,524.0169955782867,513.5952440849182,508.7260208967175,476.231754722358,409.22758946292305,322.6809679533073,230.19948808924883,133.59715120475494,33.846358561682706,-64.9926907215692,-161.01911635326238,-254.63557246658945,-348.6312357306414,-443.5276777585739,-534.896506831601,-625.7863202285371,-722.3470058704892,-809.2595249240496,-865.732555556753,-931.254626560623,-1073.0390038006567,-1171.2702059924902,-885.2514076366114,-149.8405463981095,537.9305956244763,775.0706469160882,718.8488182604992,670.0645339989949,694.6976758623097,712.3485230638337,668.8288750470053,575.7596655898992,485.65783590379243,441.58401403264975,438.4595561195541,435.8667247880706,398.8615797051844,324.34354186060466,231.95120140911476,138.4937241249584,46.27409197287409,-49.402980885718335,-148.2644275568535,-245.0955499103808,-338.5765653409664,-430.40081821625114,-523.3739825031662,-621.6010525729998,-715.4913214722944,-783.2460657609594,-844.2291078582923,-967.8339615794195,-1100.659728826714,-943.6087018056817,-321.8597200703755,391.1020313445618,724.9539053782947,717.097066626271,663.0369727695146,681.7213123682858,716.497787847187,699.8783645367381,623.1201969095091,533.3496397173843,481.47653218031917,471.17823790046344,469.54587826012374,446.06033282164384,391.77897730548693,313.12191881865994,219.75010167806562,122.79249266418509,29.437747811238438,-61.91133783590189,-154.17705478008017,-248.48038563305016,-344.966588041802,-438.96926876799114,-526.404553023721,60.0,101.0,65.0
-941.5662081747951,-1083.4131691189211,-1200.1234442864693,-938.5089756258601,-194.55381816335588,539.446154377868,819.3380714952089,779.3264121378535,729.0468529520226,754.4820205022993,790.292078565722,772.406865775588,686.8671014320479,580.0051273319851,512.13242059952,492.9543503367644,486.1861575052476,457.6271271285526,396.78630757087893,309.65853387570917,208.95967281329192,104.61305915015701,-1.133192306383399,-106.94794185797842,-209.3533812156869,-309.6365651730898,-408.12853683212666,-501.1144415906155,-592.658361320711,-689.3475035569493,-780.034942257464,-843.8846400358111,-904.0399914936638,-1030.931679379401,-1167.080479712679,-996.856945618734,-332.58527502544155,427.5503414663345,777.6330781392144,757.7163138217107,687.6013406066523,695.7590433321277,719.5440007164271,687.3354418921697,592.2414172405121,486.3074956668983,424.46348318502356,407.98517003290556,399.51680924007,368.01605832620686,305.1222320924929,218.64509924453083,121.90224937516756,23.300373455385778,-77.71794492756196,-180.97415351136593,-280.93983961510634,-375.8523840748323,-471.54519644252315,-573.5273548260179,-673.2297173780663,-746.8737826046408,-801.8908230678735,-910.2601910152763,-1068.9363459437677,-1015.6459544544017,-481.31872175840726,277.71916370191366,714.7982518306926,741.6725993738302,664.7474764015454,666.8680227989513,704.8603714713706,693.7920123347164,615.0402834267923,515.0887465727602,450.16785931792884,431.2987590258179,427.9478204246209,404.490533815284,346.6687249876137,265.78715605336066,177.53940364282158,84.9929674347348,-12.792366972311179,-112.94769853323486,-211.81878704267402,-308.2669853253213,-402.43369278735736,-494.0463208316552,-585.1991230578858,-682.0152764579343,-782.0803320255094,-859.3364813831088,-905.0245643012624,-989.2768181379232,-1147.3358783620706,-1144.7056225128126,-648.9513930103101,168.77938554517587,715.188111191774,803.888232790608,732.9787816200319,728.1839092094893,771.4124019242822,782.6254317511637,730.7795162137976,637.5627891501389,555.1821048352529,518.009590228793,513.4360854606595,503.0520208724031,459.99570684750057,385.39977879235045,296.3205306932488,202.76244421404067,104.92856571009015,5.045236157837528,-93.03747743614763,-188.24540986498207,-281.5983451646778,-376.1367559388023,-470.4004724269401,-560.7789162930616,-653.2247497785324,-749.7712200197055,-828.6049144566646,-879.9421365273823,-963.9945601325755,-1119.1348994610844,-1142.0825487308934,-705.0680026159356,81.38121046744838,655.0868344006643,773.050492007275,696.0657533358622,672.3919164391848,704.210794240958,706.6707231590757,645.1395075854776,546.8344717689253,467.41997768567956,437.91744963845633,439.6568437522378,429.5036846180198,380.52635537270965,298.4917574245792,204.69892991274327,111.9086213195275,19.144447065020564,-77.86554224973298,-176.62471752273265,-272.37694714873794,-365.2092979634044,-456.9227182075924,-551.2066338903318,-650.1873990919603,-738.2754101536189,-798.7250792328357,-871.3050100535071,-1014.67349999809,-1100.7981226839404,-805.7257213744855,-98.4192487666462,535.5215200746948,744.4523568364737,696.0003467517403,661.7723702624997,693.918236471251,718.6312252054124,682.5871622591103,595.7188551304846,513.2540612460359,475.3442205032518,471.4925363084796,465.8321497886552,433.4108591908568,371.1458543141304,287.18567114282615,191.629296618427,95.37630607585167,3.032053460599778,-88.43237180145132,-181.14814917441052,-276.24619809169445,-372.6656324685172,-464.9176983716137,-550.6556601246151,-634.2561808197544,-724.5367352099619,-819.3675997499633,-891.6537870626594,-941.8227974130871,-1042.5872318837417,-1191.646875632925,-1113.126018007531,-531.1632312628955,277.5913457366758,749.2903540342943,798.203569460014,737.8362803781084,749.378800026077,790.7085220321484,793.1697486560768,741.2766516028043,655.119521619771,577.60173395332,540.1848547978988,530.0417037457637,513.0497278361526,470.59407776308495,400.47709703521457,309.9881274552619,210.7166324813664,109.03137140482657,7.318364956120988,-90.20217352454304,-181.13257743971474,-271.744528410431,-367.32086861459186,-461.52314404130516,-549.5698474962227,-638.5715722358826,-734.002418158671,-818.0971200684178,-872.0053207670709,-938.7294299485009,-1077.521094996998,-1146.2866228466928,-809.095159076344,-60.463384619884984,578.1198778594281,765.8241940324565,700.9542041764851,661.2893564282934,687.6964217402204,701.6721257545128,654.3851566000056,559.2875373984252,473.87969694356934,439.31489105316246,438.71129706211855,428.9060619515458,387.021929209425,314.9741082157903,226.0366061708449,135.64183218221356,49.52667393021579,-41.50705597694089,-141.95284619082707,60.0,101.0,65.0
-824.2349361874875,-957.2578353456721,-1092.2580260805332,-912.0127925473279,-258.9643156768809,453.4190259052329,753.5433933870548,716.6715799398761,656.2933404821322,678.6471628716898,709.0444133821196,676.8467178135722,585.409590191304,491.1661973023971,440.8513779783696,430.5136029028196,424.40882632890657,391.19654452889756,324.8068786876132,240.67332850047228,151.335956181386,57.217946073061256,-41.67675651140108,-141.75140836972062,-239.9227638628858,-335.72339913359946,-429.15382259077694,-520.2113494246756,-612.329727372636,-711.3201563702467,-808.200260645292,-874.2494430607434,-920.9345594377722,-1031.3877067798514,-1180.7978387742512,-1058.470003979863,-420.57084857492504,376.0726232363566,779.0209491434351,784.5535229816767,722.2084717427048,739.748981181562,780.432112495274,774.0608104525242,706.0295087477315,610.3385758839819,539.4808840514006,514.9006594802051,512.6947300931448,494.446431914041,441.0116174623991,360.43202886490576,269.6666223975331,174.93516757868784,76.07681833671124,-23.578751497567474,-120.8363304538062,-215.28980185532475,-308.6998378959306,-403.6501611638926,-496.85631696995875,-586.8438159569495,-681.2166757648013,-775.6901406339329,-845.0615245639085,-896.823203831237,-1004.5173647038939,-1155.6089863894558,-1071.1475628688388,-491.7538039011737,291.9690984501027,730.2193692994626,755.287014232883,679.6954494769072,679.8123281444718,710.8247244342974,695.2432867821004,618.1664887688822,519.6752911445102,453.716777112061,437.026894433396,439.7340424181581,419.6562484621928,359.3274458869273,271.7346688378943,177.6306343901095,85.34897719090233,-8.402349985564626,-106.48969687392541,-204.68798674638126,-299.41181727097967,-391.7365731622803,-483.6453090298255,-579.5750036148467,-677.9332978353207,-758.3173897427445,-814.8704211013667,-905.6202822437416,-1058.6113365471251,-1067.0685844613065,-628.963073099069,117.63789173585104,640.1933297967458,742.0493825680059,677.9496610403627,666.8274304985187,705.2509128064802,715.2581572694133,660.7096760018009,568.8096375062178,497.2688072386955,472.2196786421798,471.55935576939135,459.72503560355943,418.20022551040523,348.7039136969304,260.262817974703,163.49663617173925,68.35178246821037,-23.323983783012356,-115.05774104624169,-208.3292323518493,-304.1657156350079,-399.9881919392587,-490.2764368409192,-574.6904075054447,-659.288028396738,-752.3192446491655,-843.8544616166961,-906.2927862756527,-962.0413661561938,-1087.3384423262444,-1210.0769132835585,-997.5296368680118,-293.5012768714829,465.0261830836505,795.2956947459667,778.4366213931031,733.0662864152774,762.2314124548234,796.9912139057911,783.4178464032123,718.2878437744916,629.7933393785439,562.3617775927008,535.9892495843463,527.08625707883,503.7032957918184,453.0211379650765,375.90076974979297,281.78238975250144,181.4712074873764,79.51169820300333,-21.513733593928617,-117.04398816755278,-206.92050090431133,-298.945740405139,-395.092274549354,-487.4860618541147,-574.6844995249569,-665.7485500395085,-760.8035176708947,-836.4757264784589,-886.1588579739198,-971.9175063904627,-1118.671425555594,-1102.6740372153113,-618.2395652379076,161.2363010166794,677.7786019988299,757.3200842351749,680.6184975635338,665.1839159558745,696.3146647242398,694.8781724743621,629.7373940211216,530.8606046780013,458.33245573976905,437.58615444640577,438.4233443300823,420.35768984674013,368.837774410779,290.30005216780114,199.49894548526302,110.53432059486006,24.237201604841477,-69.80991532278063,-171.51109463481,-270.20269986413535,-360.46974612385867,-447.38650581465134,-540.0912076291532,-637.8046834455951,-719.4887499698771,-772.3801259276133,-845.4438377412324,-990.2300410360868,-1067.2555424328855,-767.7547264731313,-78.32561166312165,534.4839354942245,736.1747505900645,684.5072981152375,642.6662078836765,666.9373448417826,687.4067228864982,652.4644759943677,569.9792114722756,489.1224324144959,448.7595011175175,441.2279289450022,431.65690785694875,396.779520304841,334.7299703462837,253.9789977236817,163.58525191695333,69.15491958349807,-27.193385869802302,-125.23104996481513,-224.48442898918537,-322.23554053922567,-415.59888349085213,-503.9572979979422,-590.5135123317061,-682.912381708846,-777.5370351188639,-850.3257306001452,-899.775314962212,-993.4709759050468,-1151.410330037317,-1137.0857427644135,-643.1925006082381,150.54993356618715,682.798651296819,778.8502367782578,716.4998784686251,710.7158228784442,751.5462988830346,769.9935652412089,735.2447004143895,656.4599487513486,574.6727520273905,527.2454385630552,512.6271422474778,502.4342598070065,473.61098125957477,418.9379244399357,340.7526512798141,248.12709791428816,150.5519952917763,60.0,101.0,65.0
-709.4228587925477,-799.3138084822436,-859.4228335532707,-918.8132507517598,-1050.8539845717285,-1172.7304010821263,-954.4142442387669,-259.10659575688305,469.50223264582377,768.0757347120473,730.5588874509895,671.2852517496922,689.8682789213033,713.0652792276362,678.3178251280171,589.2940612804528,495.51802409758244,444.46502982270033,437.83549516021844,437.71903820561397,406.2263993210204,335.8064980263814,244.53768069023536,150.79555875708039,58.662393247769366,-36.37714357944714,-135.11174424942416,-232.41954476206604,-326.25403481089984,-418.20127274876495,-510.7271868675554,-608.3163079316578,-704.1273764234503,-775.8243037994729,-833.8753189352417,-946.9543424543054,-1091.6631849118019,-992.6337779676805,-422.9871704257695,311.9790934981547,706.2303602618141,726.4781326680928,666.0606242939097,676.393226223262,713.8632621585806,706.0565169593879,635.4758784998099,543.857124616255,485.5247600216924,471.2047107309637,470.5580652471515,450.99382155209594,400.62001012533295,324.67364531928155,232.63970970655689,135.56271386069875,41.66042476412484,-49.71673700535884,-141.8005979213905,-235.75330610938175,-332.1147312529271,-426.80208774730625,-515.1075218188238,-598.7038756754365,-685.1461909892301,-780.1822447050549,-865.5536156880174,-919.784218032525,-989.0182268212816,-1134.183756604047,-1199.5263466227748,-835.8904641359364,-50.930703115586454,611.918186719908,810.814512383535,758.2578673421181,735.6926876355118,775.2527577118761,798.895195915709,769.182851870396,693.2018369671127,606.4011514698662,550.8954889207417,533.2879549955,522.7598367988418,492.00380018527034,433.1810253252943,349.8932636654872,253.11573456541845,152.09982895918364,50.04466359187115,-49.85941081708447,-143.33778703196688,-232.93663798701365,-326.5808932280857,-422.4919682837218,-512.9263093452595,-600.1739763874599,-693.4683476267383,-785.9183270671108,-852.0893556427752,-903.3795938647748,-1012.1422582662043,-1147.3468761784588,-1016.1813343931276,-399.36723784308424,357.5562929038306,737.4529752292449,736.6866059550848,667.1959960003942,673.2473679312495,701.82527721019,682.3560276395982,602.0292951473823,504.90451976523013,447.53710297441313,437.7066042233895,436.3444829018822,408.88457329201424,348.3510853111924,264.5973633739687,173.21160792874207,85.75190894989629,-1.7989772174035565,-98.83330136649731,-200.7700276562494,-297.10953944142796,-385.49866069058345,-473.2803811467562,-568.3678992758129,-664.3065480520299,-736.9695992820983,-787.730341546127,-880.8395737943767,-1032.5507949443431,-1030.4912648399736,-594.0519124587563,130.62991608728794,635.730140210072,733.099053417689,664.65433180959,645.2241756250628,676.5773903496126,683.7725771370634,631.7747050816163,544.0294767819419,472.7182514339083,444.61826804516323,440.1545167294262,424.58704394269415,381.36180676284437,312.8698187225297,228.53386874057963,136.5617756040471,41.48984268627775,-55.34332889173709,-153.8550442604486,-253.04375979579984,-349.7349968284586,-441.60387414470466,-528.8475971724888,-616.3422152395947,-710.8271580751713,-801.9474783643517,-865.2667627730409,-918.3957465011446,-1037.1667426555375,-1181.9382388080105,-1048.7206693021703,-420.4637304277458,351.301525247748,747.2175773228477,762.7815419269399,706.3091021272955,721.151112208602,761.3712852227625,765.7379475893322,715.625648365447,630.9828225606809,556.6758984710451,520.7081209734649,510.55433983153455,496.5943490893279,460.500866995726,398.4776894581411,314.95827216975675,220.20567172963848,121.93112558400769,21.98126302590563,-77.36432840010748,-174.20127284880022,-267.7920375698188,-359.71842354792443,-452.0435381060432,-541.7317849597957,-629.3039863187576,-721.275737969075,-806.0703480562539,-862.2103442863114,-923.0822655222807,-1056.9415108497928,-1162.2795877569804,-911.5545544848602,-211.82045929868883,478.60958174687386,742.2886255964253,699.2888534561365,643.9875996095295,660.9046080919614,685.2553645001865,659.8780745119225,580.3201609076126,490.421349246182,440.58221610755385,432.1895304763526,426.9714597644564,395.03443953116243,333.90873620948605,256.19274201392227,170.72812582096398,78.70187808331153,-16.662291172431303,-110.26923126606076,-202.08520749792305,-292.96580550559395,-380.4006920191375,-468.01123269256436,-563.6591530178814,-656.4761095860998,-723.8087182610423,-783.3471500353519,-903.9375671931004,-1053.0907530981087,-953.4135051278812,-396.25876250997914,299.7263752388184,653.682024386362,658.2280771966002,598.0198904299942,608.4238729142035,644.2228811949503,642.1888544090846,586.4539116412411,506.4052643477627,449.99112114768116,432.67355092932354,429.5392425111314,412.7138284652983,372.34224839265596,311.44451313016725,60.0,101.0,65.0
-539.5119504814627,-622.9363118950715,-711.9154394224064,-807.338201644571,-884.1114942228979,-934.1907478052918,-1023.9145385959721,-1176.2839296652226,-1150.5813888462405,-634.4263963449241,179.59359554532546,715.5634131572438,805.2400393942692,742.6696652516033,744.1370051864782,786.5183701445634,796.0809665913093,750.9002914317207,667.1346627968388,585.8934897220266,542.8842128807655,531.1155855395407,516.5972639501045,477.90287233247346,411.2389620854134,322.777726650358,224.14570736319484,122.6359915061701,20.739199639352954,-77.61750135201356,-169.2506480369846,-259.3790711505179,-354.4567764653937,-449.3484149425505,-538.0341889786094,-626.2850026643335,-721.3027050726188,-808.6051347226448,-865.8556679132171,-925.9847845908184,-1056.780627376733,-1153.6664361286587,-884.4468016274328,-167.31413295408896,517.9609660326342,763.1428966713383,711.9602615087722,661.4886845786441,683.1457711991912,702.9140372715443,664.3546519398914,572.8071045928144,482.6526019355856,441.0620622182009,438.4644154655186,431.87765069584754,394.5502471508169,325.8924260353799,238.2727942099899,147.37738380541302,61.01228848439863,-28.756261586676686,-128.30261312428416,-229.49777217809532,-323.28033540422217,-410.4696679709063,-499.8775150373255,-596.8796250849794,-688.7234648571134,-752.0644606176706,-806.7928161269517,-922.9126357331502,-1062.9614121351256,-954.1378736138612,-393.1468573051555,318.42601564611965,699.5923971339196,716.7688896707122,650.563699564597,652.4305428300012,683.8528112019839,674.7975067871627,607.8820153650458,519.6511064183143,460.2725161450575,442.5457322406689,437.9984797619709,415.0822570442753,363.7934767021005,289.70130495030037,202.47568756774777,109.30280835253227,13.683273590194519,-83.6365739748978,-182.55798145014393,-281.38414505670227,-376.81716491146926,-467.19447843578274,-553.7201461574389,-642.8835195124528,-738.6109930788449,-823.7623544616023,-878.766110252226,-943.1758417175562,-1085.2745852784087,-1189.0107322383965,-914.3229343539119,-184.2964686328544,516.2200282915089,777.7120265983569,742.3229606575651,703.4201660712686,733.6316100571233,767.8982262290559,756.694745968045,692.9233393240099,606.4941969709505,542.1935028701367,516.4328543426352,508.06344687875145,488.80714731964895,445.1826100392488,376.1752958766905,288.2465329227691,192.0441291266955,93.15160322845921,-6.89688605973151,-105.65363698584255,-201.5698102972719,-294.37505597836144,-386.39265384044137,-478.41042951940204,-566.9293317422115,-655.3760718270207,-747.7278195197517,-825.3554630934718,-875.7723436282935,-953.3552578494164,-1102.4900005733139,-1140.7021200976083,-743.875182166126,15.693985578866242,602.8580391638633,746.4821713230895,676.0514696903891,643.2517221513197,670.6175907724398,684.2494838457327,641.2885165617697,552.7025741976325,470.677021086378,435.2684635865706,432.1744380007717,421.08060812755485,379.9214467870531,312.571388018899,232.17597720151042,144.77450406461324,51.225975930398235,-44.007335116023526,-136.86933511509014,-228.52988528251095,-318.64230891729846,-405.25103984503687,-494.78111556133535,-591.8878336701842,-679.0497033826622,-739.1808163114588,-809.3167546874092,-952.0254154681511,-1065.7472716659433,-836.4471613459426,-183.65912790049646,448.2698112261277,678.9304429142152,636.6806503076579,593.8642924844445,619.6832888260171,649.1593103056384,631.0825067591057,563.6164155584497,486.0240696880328,441.57713819682266,431.81494775275087,426.8677625202553,403.4870607081072,356.574819004884,290.8901549877911,211.52897869637707,123.69800396193371,37.4941229639158,-42.897226613885785,-127.14241819454858,-221.96360675740803,-320.6210962045313,-414.5153735667829,-502.4606136692834,-589.508170200498,-686.0076200421876,-788.4265581082312,-866.2484065417514,-924.3283348291509,-1040.6571828538647,-1195.3947975656265,-1095.5577175130325,-494.8450604028315,287.7495297585224,711.5736016936205,737.7595859877728,677.3996197716598,689.0190747245904,729.2984756826545,736.5914352158661,693.1286633723371,615.7346520810457,548.1194262417164,517.789146522392,509.3443601783632,495.28376044081614,461.487563092445,403.3103239847178,323.25598330559427,233.03372161052604,140.8199248328435,44.382407589226226,-53.55315669613011,-144.42359041864563,-232.10941438367132,-325.08714345426796,-419.339908590784,-508.05135858766675,-596.6332977466973,-691.580368247505,-778.2387718145668,-836.2548279616841,-903.6361667406152,-1046.7627866965142,-1143.097003394437,-858.1579576942065,-148.44866370724353,494.9611274407592,707.1762657625275,652.8406389285143,609.2088155084791,633.1300982340551,654.6902859957277,625.2268206751611,549.7232495722177,470.9953204038863,426.63361862338576,60.0,101.0,65.0
-157.90440385616617,-257.5345349368475,-348.84005913697854,-435.64364594915475,-527.2371565414471,-625.0883726975252,-710.4599924683959,-765.9329349894396,-831.6298889289565,-968.9536455183787,-1072.4415738400282,-835.8945843820627,-178.11989382544806,474.77986357052623,730.8214195199056,694.7940044411862,643.5422709240054,662.1844708810269,687.3505958312578,660.6173988271365,582.1030183599469,497.97275652520034,451.61090795384564,441.57416150731797,434.13685873874556,403.1116229877663,344.2984818660224,265.45881555098583,175.94412803742523,81.86031778772087,-14.262496416435699,-112.0739293451642,-211.26917784152417,-309.4256764010591,-403.4629051784424,-492.4230778677647,-578.8069268949292,-670.1451239864024,-765.585713042009,-842.6169759416637,-892.6305111042707,-975.7248911867495,-1132.2522590901112,-1162.7441109997067,-737.0978461868872,48.67244902821945,639.8946012265027,782.6453821235173,723.4958325152508,707.1717733360895,746.1955233069187,770.3652794671012,743.0100188013179,668.2041138597733,584.0727697685353,531.2114103373552,513.639980456266,504.54145046776745,478.90969919446593,427.7018814976976,352.25363274989496,260.89200305205554,163.68752888193336,64.25886288245329,-35.65549459326803,-133.70218698381186,-228.65583585618776,-320.8983207170097,-413.1180436009758,-504.42104045267695,-592.0870063183859,-681.975691829309,-772.9691704938059,-841.811654694541,-891.4563325249104,-991.3165131856343,-1140.2964811222462,-1079.8217404585325,-541.8845377160494,226.42714069958797,686.0853512993016,733.0557879033148,657.8108487774027,648.0740470413002,678.8770279128828,678.1753852237754,618.5729448072458,525.7165366852192,455.25545378677094,432.82723405161437,431.33135210417703,412.4965427102241,362.5621793766102,290.21123780540495,207.61502879356266,118.26772413558683,23.61092831046464,-71.10403108317314,-163.38824069839004,-254.870693605278,-343.94961408909785,-430.3369058113693,-522.3740598904973,-619.3222257358146,-698.9632868589805,-755.0233832741542,-842.4609133579274,-999.6526502005247,-1048.2444523520555,-679.6075018385444,26.545482387678252,559.0841478905786,680.6390707012371,616.8514482599096,596.3069646941684,631.0208972539358,649.8003769813649,615.562268043791,539.885742194326,468.74631740000876,436.284345846949,431.2798421006309,422.5270717156196,392.232446170471,339.2470550370838,269.2033962763943,186.65340046557645,98.16391875111205,13.90524725715698,-66.29546338506368,-153.53865915731086,-250.56011682237596,-348.4366246009285,-440.4217539935918,-527.3081090959131,-616.0114114255186,-716.030715415153,-814.7493538401758,-882.479478506731,-948.5108823333721,-1089.3458500239801,-1210.1775657666371,-971.820496120214,-259.6452463171518,460.9915731902907,747.4905059718297,716.8524312822055,673.160934214501,701.2686396306672,736.2970252754561,729.1573750763997,672.6154444606456,593.183406980821,535.5146883816502,514.4551929239614,506.7676834532913,487.8500966248296,447.256930216891,382.03774882051965,297.6471249123234,206.57066113529146,113.52550012707053,15.791295139653672,-80.67522108917369,-169.58229335396425,-258.3403117936067,-352.633352719442,-445.55287274745683,-533.1723497728872,-623.5398378655459,-718.729424700119,-797.8962617953076,-851.020459872218,-936.8816394783564,-1092.7541579955282,-1113.0463978694406,-682.1469426664855,70.28768355945887,601.5931096627056,703.8472527961275,632.1433975728966,611.6501487798377,642.7662980189655,652.1792367661418,606.6791135443052,525.1212946447766,453.8529972403436,421.2266422948119,416.65564815773615,408.3547095548251,374.7002866205674,314.4185447393161,236.06801084985034,146.46298481749258,50.695211928179106,-43.37864442945397,-135.1204576646903,-231.88412168333872,-329.85661456139707,-418.10835696522696,-504.68718483606534,-602.1366160320031,-691.3354758544799,-750.5620279772319,-826.8609892566318,-979.0558160169192,-1064.083758298929,-763.9650554816285,-81.27371111536507,502.01638811306964,677.3352622283892,623.6287902184522,592.6851828766448,624.816243578671,649.7083831592972,622.8237889335043,550.6103380181146,474.23233716910534,431.8564125242774,421.23612714462496,414.2881230017176,390.15488712318376,339.8921122302184,265.04632106184613,176.72968795063593,83.7845026052714,-11.834392856095956,-106.54400515890447,-196.2672052793357,-285.2368583802228,-375.290936305482,-463.33830897851317,-555.5784917291298,-659.9269545679399,-760.2703766268296,-827.4828845215447,-883.2440120975494,-1007.9286476062866,-1159.217698955906,-1030.3295455020043,-416.0794607722779,322.7717879921941,686.9655817865361,689.7624206669722,632.293755594623,646.8334934964262,686.8978216056883,693.7427265923974,647.6744478962157,567.6031253860006,60.0,101.0,65.0
135.14793593582766,35.319099646049494,-64.24795193956909,-161.48620311300724,-255.48972160736875,-347.4504154255525,-439.796464576939,-530.0386356385432,-617.4642795935221,-708.8859902085006,-796.2126293542699,-856.0519304410659,-911.651279023834,-1035.4728970038027,-1161.1351168918832,-974.9311481549505,-318.10543763974266,407.569110912839,731.9211237923058,710.6143918036555,646.6314171206586,656.4472969491912,684.1542295298457,666.8400651851582,592.8314961059554,500.8360214693023,444.2525876694663,432.18891052727867,428.84425060171276,401.1611929622927,343.31441369045393,267.07479447814,182.4997417370238,91.27746859394327,-3.9842166309747657,-97.95738852449612,-189.87826510486622,-281.0103379156026,-368.94296235419716,-455.95381697688174,-550.5708496088764,-645.230867871817,-716.4097098329324,-773.4041347051933,-883.0576317858404,-1039.6406918801608,-992.9698266713749,-490.7996759643873,219.7538044421892,631.9306145872143,667.2481777736765,602.3703205433181,603.8086758204116,640.7048895455661,645.7097891247238,596.3172751251276,516.6193828998987,455.0575301447097,433.41230934904667,430.3095343059109,416.2759494223767,379.04008933523465,320.5156774302969,246.4610922780878,161.23425071810289,73.06501333935304,-9.247612007490405,-90.35767194541343,-180.8456364193181,-279.1996366024477,-375.7044032036957,-465.87393186089446,-552.2555157971145,-643.6196487592317,-746.1549931987959,-838.0418664634768,-898.0066324453809,-980.1140324953328,-1138.5642135329067,-1193.5731762965563,-803.5754576482473,-24.006816145475415,593.2852315103419,755.8574398010403,696.8053268379656,675.8945637451368,713.8151282351424,739.5127154006309,717.3874297126641,650.0197295557781,572.6909218563618,526.2601196188402,512.2125442034653,503.14040255586445,478.57465990125314,430.916235984398,359.0972952188245,271.54937625951214,180.0148416728392,85.7479905889904,-12.703623497716123,-107.03830958794266,-194.74759206048142,-285.14600113724896,-380.0374741491832,-471.21651099882547,-558.5576046237012,-651.0441921681565,-744.5258020666099,-814.7995768026593,-868.4419715294565,-977.8590255490407,-1128.729629132626,-1041.8686178505322,-475.6717867547444,267.5427458354555,668.8031548282513,686.6392027365567,617.4947132783262,618.7600797400194,650.241133479257,644.7392904139028,584.9133670523885,501.5243044086929,440.2199559137733,418.31262987872867,416.0044876476998,401.6162420955488,359.71123017296736,293.23142500151425,211.1578544663254,119.09678430551602,23.056315145589064,-69.80985476728328,-162.37361297050822,-260.6697363937907,-356.47567539921135,-442.430599935368,-531.8478191759256,-630.3547217933078,-711.1199452819278,-766.8825187382799,-863.7578800465634,-1024.2280246567793,-1027.9308580059899,-590.1390750244237,121.00639078080145,593.729947130196,671.2036125542,606.5146661144063,598.1531529939305,635.7594625733423,647.8403699190928,605.2435049744028,526.7794478829479,457.72212624065185,426.64072671275017,420.0602860527856,409.6441736313243,378.48249469855915,320.40691845211376,240.36749538227355,150.18607143813566,56.380097431967855,-39.576755930183595,-132.93991428977952,-221.7765713936836,-311.31941072722594,-400.91224151463996,-489.0105321170942,-584.5828524068418,-690.7900294787597,-783.7235701702099,-841.5699786252313,-909.3711036567357,-1058.123289494552,-1167.5808134452413,-898.1361480784209,-187.87402090478994,477.1495200570873,711.7608187091313,668.4623339263604,629.4509705367932,659.1029408695321,693.8464877388087,685.8228721789166,626.1484491075091,545.0216446719481,490.5083448349719,474.90054471506596,469.3383414605793,446.7272051869506,401.2481705863078,335.2417244032472,251.26800428183023,155.5707349986866,60.15503240683051,-27.508611370512558,-112.13872151647013,-199.26449766556857,-286.92428720196864,-373.8476611652594,-463.58300842709156,-560.379554126495,-658.4787161941447,-735.8078529209082,-791.565656947611,-891.6971479432062,-1052.8966274870713,-1047.229560861383,-596.9371793315687,108.52371634516774,557.5240083066022,616.6500861453777,548.6653736399224,540.7528677747275,573.5303418522825,577.7380516160612,528.6683933658296,450.3108474989137,387.0702046948778,359.374860597965,353.1844489813762,342.52125274394024,306.43408020123223,242.37165354248683,165.6903838484571,86.80474328822771,4.173442581090998,-82.60106051371042,-167.89854198878368,-247.53874904483254,-326.84163645478134,-415.71490031562007,-507.5563242483546,-577.347468543064,-635.4600298728807,-748.675313478632,-905.4526457144294,-873.7835721977945,-445.4536206947483,149.95578780338658,490.43727468077526,521.4354538259289,471.6712682995459,478.075388819946,517.148023195604,528.7460252025842,488.9569968106292,420.4140134499277,60.0,101.0,65.0
300.5120971141074,222.75207345740355,135.5469190430787,48.569019682171046,-32.24919115258923,-115.30732283839802,-208.87149359910504,-307.6348823024456,-402.397393096719,-490.972086690733,-577.5993630193211,-672.3939096549934,-775.4678038851248,-858.0419028357373,-915.1513918414712,-1019.8549247708958,-1180.8225019312447,-1136.867675769946,-598.4703804564854,195.71851391578522,683.3985119285998,745.961148106813,681.8980652444261,684.023014035561,724.9793726566455,738.5250742346101,701.6047329756445,626.5216828277761,555.1035502841843,519.9144876270467,510.3010748148878,498.12822473382096,467.34680695909384,412.48619184581526,334.8085203390564,245.21287307647933,153.2608182039646,57.51443257792296,-40.80207953827924,-132.73927894135878,-220.209486582187,-312.4151271511753,-407.0585280847506,-496.47690208460403,-584.4648225943333,-678.8236521814163,-768.2055717471752,-829.6892189776922,-890.9564059814765,-1024.5120606246226,-1145.0058772221046,-926.1968946906645,-252.53686824234606,432.0858036191827,701.5910705257907,663.5950685969941,610.1673614789042,628.4139305523295,654.2604347789642,632.4335088589017,561.0686651528822,479.9924182175025,430.1417961624663,417.11607825259745,414.2090642742793,392.45451772944114,342.6325490757719,270.7824959275621,185.40693401061,91.37147621790047,-4.230327256674485,-96.17795309017637,-190.23797137348407,-289.25356505414675,-382.07825774767207,-467.08830935712314,-560.063878990417,-656.9917839055734,-728.1707227629344,-786.7609388903418,-907.8875495662893,-1057.2312816275532,-951.3385829934398,-390.49160542490256,300.22176049733326,649.3100538903917,654.0008331861235,595.7185921734068,607.7459884478126,644.2063018475909,641.1018637803579,584.4690402894078,503.85328655868693,444.716420031629,423.55528912457646,418.45632225832634,403.2132031079145,364.4851574394158,299.0323735722482,214.89132278623987,123.38296681997714,28.755786987535664,-67.08671223421838,-158.8808008544792,-247.4127233177406,-337.41887807076535,-426.3097530102592,-515.3319429707187,-614.7003592739708,-720.5826465556042,-803.7369671250319,-856.0944846413133,-943.5979286407107,-1107.0891555835988,-1142.419783899888,-724.4269128531839,35.57939935637104,591.1448578523639,712.7479109699465,649.3997847008493,633.1338948031686,671.5502352040617,696.9911476438986,673.3247030072886,602.6643362749837,524.9521890260343,482.8219410832377,473.85219325392853,465.15344247669645,435.8497744935063,384.1858040865867,312.6671762082416,224.36678432278697,127.42205992720419,34.042041843684544,-51.89160041634011,-137.04008491285987,-224.68658788209046,-312.03762703860144,-399.24426186580206,-490.7729225443589,-589.316893756388,-684.0279776801185,-752.3978001329452,-812.2013634519448,-936.6867542334096,-1084.3704947894685,-966.4321498489281,-396.3693295867629,281.8303615784119,606.3078283494879,597.2137998025767,538.2593807629187,549.5342695567826,579.8088447444634,568.7745551733121,507.05751128281054,428.83317972489056,375.5351404717614,356.5052017264574,351.67863914610854,335.2869839616375,290.2924723188307,220.76761257138958,143.0613024263473,63.45914296135514,-20.636629627283256,-107.70720796767635,-191.46050380460665,-270.00647302766555,-351.29648359368343,-442.9803774749763,-530.8053990950852,-592.9983045718257,-659.6217493547025,-795.5962871958891,-929.7915445159449,-790.4472900542885,-269.4959450830702,286.2004683960417,522.603442391696,505.5083207532252,466.7300349594631,488.97858635405,525.2797629051015,522.3504626292718,470.1514166008586,401.8580101259046,359.0293758096275,349.0302289437966,347.7084895423264,330.2814464934935,287.14739697126504,223.3741580767499,149.82053304411008,71.40259743489574,-9.141430643785702,-86.67360899391419,-162.39354776621835,-240.65373828369263,-319.171709664728,-399.1639965625508,-488.2209184891757,-580.5782503797936,-651.1043965151363,-705.9730912486217,-814.2356291044961,-973.6390870548317,-951.1517846519278,-515.2927297296342,117.97628855150694,492.9957495779144,530.1473159643095,478.5544318129769,490.8070115339658,536.1640278615588,553.853072735375,524.5638725715039,462.75393975093465,405.2307408423984,376.2914685101266,365.77800645333406,351.1481236841555,320.79432754226696,274.79391707228905,215.54273443979562,144.7606917102956,66.76850624365493,-13.737263924314123,-92.25519118887718,-164.68836377921036,-233.60989522875207,-307.4531088984646,-390.2542942378811,-472.6143804970558,-537.2745721795952,-597.5028699261189,-710.8205037539667,-859.6923377751003,-831.387957552897,-443.08073794230813,94.5338358209242,401.72304460794345,428.2690262074215,382.90662051272113,390.5688205804463,426.01174211015734,434.2014059408316,396.0189974821143,333.63505388211547,60.0,101.0,65.0
423.36827871394536,416.7708841837297,410.6827659697807,380.8510550586056,323.7009045187085,247.24813032883682,158.90318924062538,63.516341159129176,-31.109887277144356,-122.74039394774232,-218.6535538962397,-317.2425972165213,-406.8581460649376,-492.5681953586772,-588.8650059615146,-681.1772854929908,-743.5578252178003,-812.5170258172006,-956.4870640227957,-1068.664239880542,-832.402141048943,-178.76175647149557,446.88323792983135,674.1686202859051,632.9875345059301,592.076974213784,619.3582070798186,648.9744181094238,629.6131674689209,561.5597542006901,482.9437773829893,435.1785147536922,421.80886550826193,415.90164609773984,394.7728705218711,348.16951406413415,276.07325722525854,188.86423271489315,96.33670790037871,0.9848644688522752,-94.20414585166196,-184.50650862357017,-273.25514872110006,-363.39109131300506,-451.6271102524099,-542.614176122972,-645.5863663790163,-748.3707222875505,-820.5630375572108,-873.5196707385314,-986.0471534029449,-1146.7358451503626,-1076.0568176858706,-518.3568878415124,239.09709331676876,665.1532581193729,698.8561903337533,636.0531015798296,641.7440972134285,682.6121720052056,695.8218888370071,656.6164316959154,578.5497479911055,508.2191392826787,478.1236380888076,472.704743785327,459.106495161779,423.09604100666934,365.46794351795717,288.6572105811119,196.70009790324175,99.63640310173939,8.638530427741614,-76.24579150761181,-162.20293024978776,-250.05273343796114,-337.1075035084109,-425.0057679738608,-518.6378150004565,-618.0706795678628,-707.1164937206065,-767.7005336913046,-838.9294128640605,-985.7364398767731,-1093.2565170518703,-843.4512408159351,-185.7839932643985,421.4704899830331,625.4518049166625,575.1798573355703,534.9211921160767,559.8148281965351,582.2754312549959,555.2774240955582,484.0118015955927,409.6912848346652,367.068068483571,354.83656430552657,349.16312313115503,325.5038149120118,272.0070929564876,198.57618636077854,120.34167318635807,39.696216199535314,-45.73531770737753,-132.5042021338924,-214.51106866537762,-292.68612744007544,-376.79190019459116,-470.03563868349636,-551.5197400142054,-608.611687547263,-690.4865943839749,-844.1597291022892,-930.2859656416679,-671.3942777314388,-90.65201179548444,392.2628135484982,532.5990067097755,489.1084725438441,467.764727013211,500.996631407423,529.8345492775143,511.5323882635098,449.93302588656724,385.701787793587,353.4956909222418,349.08080394572227,345.05858014126443,320.48153183031144,270.3393312724854,202.7575868520693,127.60179166389915,48.11743234104571,-31.991342819939142,-108.46508797824946,-184.73672624359,-263.45902660051934,-341.80404699352096,-423.75497538332104,-515.5029889364574,-604.1870857301108,-666.343710184007,-728.4977193749172,-860.798497752147,-1000.6006608879625,-868.6928945984168,-330.8199345829435,266.58693343267606,529.5399446219373,513.2412259494596,474.6337592542204,503.83281140975197,545.736892285636,550.1486564690175,508.65144203048385,444.0048685781403,393.79536787412195,372.41540147371427,362.7735396514099,344.13926728246844,308.9687363453917,258.9857223970276,196.1351705956671,122.73743176154122,43.583779366435394,-36.85356385885042,-113.87717267223954,-184.62000023070664,-254.08936627712168,-330.55937708534043,-414.9112316379069,-493.5557889783811,-553.02183202671,-622.4578033127138,-755.9973298458566,-882.3647536526057,-755.5778885376106,-284.10194869515993,217.51653707356508,430.48592193620937,413.4703109460703,378.8949921300732,400.78482724825585,432.8462616090883,427.6735553369005,378.6576958687417,317.20633961931514,280.50240162655473,271.8786813764266,268.9524198086589,252.22677018269962,213.31344522331554,156.26441594410085,93.24132807338223,29.20649982019641,-38.30129122311477,-106.29655619327617,-170.3407941608735,-235.44597741169625,-308.8714849388558,-381.8051527535924,-436.30111699089935,-490.6321889176262,-600.5034015724752,-735.4750941485939,-695.0234708012198,-338.2255511220187,125.45616366608536,374.2783364749474,388.0849707802607,352.942408193148,367.85368094669803,404.737066794118,411.7028426715953,371.4361414135802,311.9899565656581,274.5100774811374,266.34896655546936,265.6709859684235,253.70873095987537,222.72472013979277,174.92825800857136,118.18560687622245,57.45890986271896,-5.292010443079754,-67.24733654729272,-129.13831366946053,-191.55803393408667,-253.81001266178035,-321.28184549262187,-397.1938840159178,-467.7025934440028,-518.1246148513167,-580.5485536176866,-707.2227298429435,-818.7217371382877,-678.0724967364949,-220.86350764126897,241.692829392048,428.33274787831914,412.01428168371,387.48362959355904,416.94499861675934,458.6860055088806,467.09232061621395,427.64806798301373,366.46962871896704,325.3655568339029,313.3811615471148,60.0,101.0,65.0
555.184106255594,495.2292966425966,475.59412708387697,470.70728774402863,451.0895160707532,408.54382692636494,345.14078158940174,263.3366681881171,168.58710473810504,72.44822005950621,-16.195248136984322,-100.75447647689775,-187.54751084818307,-275.3151993678397,-362.22222034902614,-451.27115328140434,-547.1036514502557,-646.0412764169266,-727.3921281868177,-783.4991285825106,-873.2365760758604,-1033.4194484032735,-1070.469871668132,-682.0362959495802,19.581553396433307,523.3046771802698,622.8420582879305,555.7749854053583,537.7891434577449,569.6312697471428,580.2650899356265,537.8197217524701,460.7661580577153,393.4743100352415,361.2842140102877,353.7052324782328,345.0747955359897,313.0553264962747,252.02314798102876,176.0984789835206,97.44874562488727,15.483377451958404,-70.97040728875666,-156.85082468082658,-237.17065715150784,-315.8876694650645,-403.2603101795647,-496.09634927932893,-569.6921170028238,-626.1372886097159,-728.7299678950633,-888.4833810999557,-899.7422975626545,-522.0433378345566,78.40208632859085,466.49294938498065,527.2087726794424,475.97863418024895,473.910852613625,512.4599932023286,530.1400381045587,496.8248509095074,429.5407766380796,372.5245380372838,350.43967835824515,349.0955693526117,340.58642508970604,308.45328096589174,252.06517277282478,181.57283715237978,105.0082090910319,24.762116906044298,-54.46300693247154,-130.24895783149773,-207.34643179523957,-286.1656175010433,-364.70405183060717,-449.3068915816953,-542.6700793425513,-625.213208765917,-681.0983671572866,-757.7575526579508,-909.8897844050412,-1004.047057196765,-748.3083627702794,-140.99864996532702,383.46106460838286,541.4673138764701,496.00549410881433,477.37807352297057,517.7313922744378,551.8937256918041,542.421486239867,490.67126768559456,426.6475432029948,385.0076955403581,369.522449602849,358.9154365244648,335.6857583999178,295.9180013044832,242.10194776473367,175.82310765557284,100.2430622611024,20.287692576843206,-59.68205867500662,-134.90885094023423,-204.4215654780276,-275.20096380693116,-354.4329835194147,-439.1304827562808,-512.5836468121358,-569.2751206919481,-653.6145764908968,-802.1426531861874,-882.9318034329164,-647.5597015439854,-122.63466943869545,313.2490704672593,439.0865018729069,398.45344649668067,380.42258717580694,411.75116988084545,436.291778544099,417.21700661893783,360.2012375670801,303.12147926263856,275.92427244706374,271.51761638732677,266.114347309661,243.34170408339585,198.18827630436792,138.20042304753613,74.93972278991826,10.08760153312308,-58.19490600067977,-125.19393585015708,-188.59975426843383,-255.77069212516284,-330.9138747813165,-399.7533743234754,-449.67352185479683,-514.8802935509252,-643.0719885792512,-752.7158368234556,-622.3829112511951,-198.35360162083737,227.43960661517778,394.9998603870231,375.4312586616185,351.8246722539598,378.8687655590724,411.46441814983945,404.4547252157537,354.1683349525961,297.71522333288226,269.87598713949563,266.4467054343377,263.8983445978117,246.8025891793236,210.31829672590163,159.12690718043555,100.96588590328798,39.40839511726409,-23.340938169211487,-85.0203697193227,-147.21104049393196,-209.449093833063,-272.4266299860715,-342.5762026881572,-419.1491692922365,-484.1328659629786,-532.0225921729404,-610.0766896087032,-750.0651477768492,-814.0105102270312,-570.4181175961173,-69.61909108239934,327.0361398450117,434.8291136824829,399.8696902473933,391.41433736674855,430.2075876640572,465.87371678887723,460.241084140386,410.1654390055621,351.2669629759884,319.58188531146936,312.47368888854163,306.6937903683659,289.09980107713295,258.32094694407965,212.72367687275982,152.05249154652307,82.79425761699513,15.87336036981705,-41.973566406257405,-96.81532391508256,-158.0348299614915,-226.78402094464687,-300.13021921526746,-377.5267754027061,-456.4113522057361,-520.8730331710011,-567.2014250957852,-647.5057733208522,-795.8949971304611,-858.2991966107804,-581.2128656762463,-34.706545716854016,373.5730511011177,461.5113317613487,411.5738961507892,403.3024970321475,442.0743918118195,467.8563837163044,446.26182354273857,383.2956431854187,319.4850243230391,289.50096978892833,287.67549576606746,285.79232905759983,263.992527501832,220.21344521566715,162.41412098041414,96.80816962206906,27.166326037017082,-40.91552483275075,-103.34142779700757,-163.0769917565953,-224.31517257515105,-289.5490124333812,-359.580373672369,-425.25859508937265,-476.5786137440304,-536.4358882706243,-655.4252826884527,-787.1367560416012,-705.7845795104956,-279.8885263891735,222.541719470569,460.3698632447901,451.17383978055176,405.9200343796201,420.63017883266656,455.6256572231739,451.1037122981427,394.242507398772,325.1061936965308,290.33153331646474,291.7678783061294,60.0,101.0,65.0
410.16230349207297,362.55874042271563,349.19829132200266,348.4134684792887,334.0407387811332,294.31774534631796,232.6384215404872,159.9338229105473,82.07286392483911,1.5042490523580234,-76.57445618272284,-152.19121105595076,-230.12810207938156,-308.7664033848757,-388.1235894439428,-475.7728530390333,-568.9699708495535,-643.5017391210056,-697.3479490287802,-794.705525500207,-955.6906034439888,-976.1780789962096,-594.8174447696601,40.518644472498636,466.1028946210822,536.2260873201883,482.673783953844,485.62929225156404,530.8006578918727,554.1738076195796,530.9665657942604,471.61235741416425,411.409030389058,378.58489433885944,366.9864742587743,353.9034452115875,325.80917972508126,281.7157072512168,224.16081613218748,154.72044267517745,77.39365581997434,-3.01896328989831,-82.09391086468727,-155.39533598231938,-224.32989539307002,-297.0830620374315,-378.8776798935019,-462.37209250401196,-529.8051034771352,-587.735247014092,-691.3884642609452,-843.8290791131212,-855.0532961971004,-512.340307694387,29.950707914850582,380.18268215597715,433.71289809977065,386.66784175642437,386.56979654196834,421.9402681371995,435.8155988013436,403.35054066865155,341.79719808673667,291.82901401120085,273.35053743262824,271.0001208068115,261.7603452221568,232.49706936962866,181.78809900780033,119.95344204994048,56.5317332220829,-9.385455759893429,-77.96286686682093,-143.70662847527726,-207.18743415481825,-276.91387182397676,-352.4593781445382,-415.7533924721445,-464.0925386120193,-545.3111796036179,-685.3703161712274,-748.7869463167438,-522.2978381250867,-58.6671302186423,305.12391158437185,399.44551674909985,363.5697414553283,355.5985101209229,390.2742647495189,414.6007384099033,393.2841744813875,336.4026569792528,286.14892701949776,267.40285087593315,266.5323401354509,260.85159214796613,238.2072536256551,196.66445792138566,142.78167797418018,83.47076183304735,21.2458136282086,-41.254672052418805,-102.86777248481859,-165.28143773594934,-227.3440847517949,-291.6865441816853,-364.55860219193266,-440.0870170634725,-498.69193556913103,-548.4038270466975,-646.0712957074184,-787.564458829776,-781.4784683482451,-438.615692012536,71.32847919274268,385.6471254741142,429.4961946378347,391.14276260156606,399.70147216015454,443.0644122349911,469.39928183713414,449.3776070267096,391.93857635245894,338.6544448966984,315.9862430595894,311.57964431146735,302.98509944535533,281.5735260274457,246.7836103439086,196.58747854090802,132.4797579545417,62.729871988723005,-1.7474796950571017,-57.61663265595819,-113.62975446074705,-177.25257907128287,-247.60126686086278,-322.026824641189,-400.5995746912171,-477.4153244647013,-534.9613857520185,-583.5458225416421,-685.5661382192447,-835.198995031275,-819.6459175260472,-435.18638565780793,114.27873547712426,428.069671882357,450.1260040044251,401.8359151522186,412.32698939703243,453.1196022348195,467.0081591506592,430.98893010130763,362.81894786259096,306.80510780101423,287.22850441698415,288.3440699669091,281.94795178052226,253.31870458411586,204.58506527511528,144.0986782718369,76.89919649937228,7.052135135215892,-59.53250518124861,-120.63127491314472,-180.51534541098903,-242.61833992936803,-309.4620316928424,-379.66225602156413,-441.48921796235015,-490.7072895252609,-563.3974526728733,-699.419711767211,-797.2417038201039,-613.8913494066604,-123.28968042000831,325.25803905615845,473.89118077201954,434.06585322300725,404.19574225564344,431.7957087483032,460.0785384614688,439.08309670561295,372.98923935297097,310.41764824733303,288.1929280727674,294.3841722116663,294.2335784807304,269.4122674132334,225.66288912607058,171.5335709025597,105.77940991041683,31.495275037278326,-39.60675237454641,-102.95485859846838,-165.93281526015576,-233.9712297156837,-303.94340383293576,-375.4241464583123,-455.93859340942237,-538.924368188926,-599.0390655068876,-645.7126818914296,-751.1094177942622,-910.456203909947,-883.9051164067151,-446.14675646300026,170.74107426792114,519.9580746714246,544.5867585585825,494.77308653857585,511.1860631551468,559.2123732654087,577.7140214771425,544.4002484520131,477.08878328993944,418.7606719201609,394.91515204996995,394.0989545527712,388.6791317967674,360.074234523079,307.3900074534407,237.9898901420386,159.72165910280518,81.971246904184,7.168708139571712,-67.46782518664811,-140.72490550739496,-214.5227813811734,-294.2658263041958,-379.87181060602796,-466.86461161355504,-555.7079173809838,-642.1394143337102,-708.8009376851486,-771.0355450242643,-898.5196392735203,-1057.3759971691893,-966.7672897957794,-425.31447251559433,246.4273134682628,582.6623378019847,585.7441698378758,530.8864166254591,544.1904119854379,586.76468147839,600.6588990396174,560.565982819326,483.34086000048933,60.0,101.0,65.0
324.5289978354417,283.43849784193816,272.1509263698988,269.8286726656114,255.6667841755527,219.76918802494941,164.46490446478356,101.66974907807533,37.90038668088884,-29.137971601482885,-97.4435654192398,-161.95879761327632,-226.35678577152834,-298.701655169484,-372.90261207819907,-430.07338372550896,-481.2858139224362,-581.8977546399793,-722.11895051825,-718.6336807904255,-399.97451119315394,71.18204832183352,357.86274021471854,393.1243419511738,355.1990283125669,363.32577277295843,400.6492833594963,413.6126134827693,378.89189547094617,319.3318689318032,277.5204164621642,266.4563014817086,266.12911525245494,256.33051199083445,227.96807287857274,181.9828883489874,126.0248904210703,65.71990265307035,3.0681436150090025,-59.058067816808276,-120.82531417446778,-183.2867307303189,-245.3881980981237,-311.7444389045156,-386.9017803797687,-459.4344989247146,-512.053828803389,-569.1068202593598,-687.2545578686655,-813.0138102188275,-717.9271056178337,-291.2174120760287,193.4302199080701,419.7273173114657,418.0068851910421,387.39502246288674,411.06725038660346,454.3189102389001,468.8114555296274,435.11858439417216,374.1878970187047,328.905204819579,313.9659656035753,310.2151408216283,298.15267745511835,272.9612205229921,233.9305669458379,179.2410951968602,112.41375482634213,43.154662499822294,-18.547323524841048,-73.2904685372503,-131.1481110869035,-197.03917662212933,-268.72849062613346,-344.30027882469557,-423.65525572370206,-496.64160453181086,-547.8083987677434,-604.7077456964284,-729.296956258081,-860.9782062803833,-746.870046969297,-273.683584780245,240.5731070430149,456.18065998107954,433.8591799280885,398.1761475382525,423.9499280267304,461.66125910328014,461.73145775079195,412.81245161288103,343.5186212638283,297.47505465192745,286.7524459857967,288.2773453870339,276.1286757624458,240.92648832897987,188.01210252008715,125.22786359962802,56.748229550380984,-12.76575783192619,-77.63271314973947,-137.84086835667748,-198.13915423181845,-261.33255838373697,-329.74781298933783,-399.022599132052,-456.354942120166,-506.6267033798589,-596.6447169203495,-741.5860382395641,-782.3474065651484,-493.1184694043561,28.920019078029245,399.9233389657956,471.27534187416563,419.05865920959616,407.95479892882605,442.90030396407695,460.03599987571516,422.95829679279353,352.1260486701831,299.480233292786,288.5781628153156,296.33303128251833,289.67915533105,258.1611298404325,211.0166336899725,153.83145295794668,84.73080479751545,10.145880952303346,-58.51967865801383,-120.77978396727133,-185.08837730510697,-254.2046771381493,-324.1575959152053,-397.5326565321,-480.67901578447294,-559.5331611977592,-611.5022945019855,-666.8145530517037,-797.692500318667,-936.7932732777688,-799.8683217480503,-264.2292864854721,311.6966495213554,550.9596274856813,527.2590869013382,492.20062267955416,525.0812039360545,569.3545737302119,573.374063635633,526.7124916188764,457.4841804412955,408.21856175938615,393.49052575374907,394.1511430260072,383.1439064232934,347.02794390328705,288.7337921546787,215.86967605497819,136.87787197138968,60.21051845999703,-14.40410233709401,-88.8332362081553,-161.73317731375766,-236.79908561240038,-318.6007894873402,-404.97381474778257,-492.2334160403298,-581.6044069209198,-663.9918221373229,-724.6737141080426,-798.4662854499417,-949.3876835947804,-1072.6050402260655,-853.2028678802144,-219.30668055760128,388.4079383004912,605.9257716090563,565.716909703908,527.7879449512435,556.5391303044543,595.5179505623036,594.7763290900497,540.1527956711568,461.11639928673276,406.5501504004587,390.70203532161815,389.6278203147481,377.31722709128525,341.79687506631984,280.26946231275616,199.20814184172087,110.98498131824982,22.779789606627105,-60.94215222372674,-139.18425637860733,-216.14341203722583,-293.14142925187116,-371.8455334715044,-458.73387830050666,-551.4607744320236,-628.5525516082747,-683.9345035239521,-775.2113754242774,-935.8230618976802,-980.4816902961084,-621.8946133741356,38.54735566482527,518.3819513509989,612.747311103386,543.6002918134761,524.3702154102697,559.7112689516431,574.1446429671864,528.8826928803262,447.35963695995747,385.4782208879728,368.38992977771204,372.2059958925793,361.41347398569303,320.43424762114284,255.54496080142397,179.24728833103714,97.6711937146233,11.673740813526853,-77.8355078255245,-166.92236689162723,-250.69421756625724,-330.327577407745,-412.4540443843882,-502.7647443606245,-600.5931883514974,-686.6828838202883,-743.0913427779284,-815.7555825583117,-970.6489418802303,-1075.1504239185995,-799.6149997891864,-120.70280332943814,477.55832562872973,661.7665619338495,607.5204883183962,578.0487694667036,619.10228141639,660.8483120164434,652.7992142677176,590.1218446073227,60.0,101.0,65.0
312.856444762589,308.03516641860114,292.20756458022584,263.21579907403094,219.72580073898547,160.83847833136755,92.13460601843279,24.290477066905368,-34.68741719110836,-89.2764013313629,-149.39013419696667,-217.3039222033284,-290.15014151925055,-366.9624292727326,-446.27533702398296,-513.7322191772718,-560.7329093062629,-632.3350714046312,-775.3157047724249,-865.4222378216012,-640.4579924779991,-108.62721234275033,338.55661293078293,463.4033676747572,417.8354273388973,400.4870894037484,436.45413750352805,466.8074848121636,452.08825571610816,392.8026609692769,326.4159100952231,291.3533957127784,287.29594143016055,286.94574530974126,268.2806466324132,227.04686007979905,170.650819659856,105.87273717998661,36.49488343179633,-32.15042732648648,-95.30320291853533,-155.0887271965639,-215.99141106434558,-280.52843030404887,-350.1883315253169,-417.28772602276103,-470.2703608275476,-525.9451701537681,-635.8198647659899,-775.8953555111171,-737.3849005642173,-350.4196591543778,166.40795450052178,447.0626406399966,458.70581653733416,408.73273134294874,415.9606687237316,452.2795564785749,455.06702673318296,403.7660395068893,333.0129712188919,292.38308731952014,290.5737476339486,296.89953885421426,282.9010703445668,245.65196045665093,195.60547459440235,135.05305814749372,63.18021921455296,-10.618438062977924,-76.82657986743959,-138.82784703007826,-204.7061799139646,-274.450233375449,-344.60064016219087,-420.6246767524449,-505.1796082348981,-577.5088095090334,-623.7677886019704,-695.156963734054,-846.886468452231,-939.1117320630237,-678.4759706978912,-78.8431317483477,420.73978549508905,558.9067766754029,510.54023420736,496.21221309122495,539.7575413754668,575.8665920198558,564.5390243455183,507.018158637805,439.771774618585,400.80376160335186,393.3925481811257,393.1262490442829,375.39024795825867,332.1129666999127,268.8632601781648,193.21752142056283,114.31082228735833,38.626826853015594,-36.003111898365,-110.01740294734633,-182.91605160831062,-259.6933943410208,-343.33463016052156,-430.0850126865682,-517.8589626819331,-607.0252091524521,-683.6658937469413,-741.2209357106465,-833.5103492210939,-999.8911594347604,-1057.6026563532228,-700.6299356070513,-16.2424177890493,493.6833795182766,607.0589457079523,547.5735345436173,531.0070835326026,569.580810184656,600.7405919677025,584.0849210466084,517.5311782535308,441.2218460788419,398.63120627870046,390.256255313995,388.00518819021966,369.68716272718314,326.6219560376138,258.3017547757298,174.00131328074283,85.30982738184457,-2.054565217528138,-83.95492256681212,-161.3990651963343,-238.41427132119537,-315.46196260968867,-395.8647671765275,-485.5749551848706,-576.4719942272876,-645.5244405960984,-702.8994496658784,-817.3986081271728,-975.1500980664733,-925.0617517382839,-442.95164546374656,215.18441550427102,580.3211093029746,596.3069579482064,529.304435448514,532.2825805848076,568.8839217928887,567.3105955632066,506.65825541411874,425.30570086742523,376.27961287799235,369.088295709374,371.7724363303916,352.71043921691495,303.54512878971406,234.2472900121905,156.1318735456808,73.2775666227669,-13.935600296665385,-103.86853769602416,-191.79141650376215,-273.8626697105603,-353.51218090579863,-437.5144706104043,-530.6862823114285,-627.9875782999588,-705.6559146030862,-758.3999414527221,-852.1501874467324,-1019.6737106505735,-1046.7819433790653,-629.7722562697875,85.11052708081094,573.1964785595761,655.9458634127167,590.2286552115664,585.2515454374615,634.18563711854,664.7118426245494,639.3375277815718,566.532202263707,493.2065597483649,459.40779433192495,456.78158102147336,450.7264865600424,420.1626617604321,363.96247096886833,288.1261379361036,200.14625047697925,110.23882504069873,25.654167989708906,-55.992074956251344,-140.24857958303787,-229.51851409369525,-321.4129909157527,-411.04151266814915,-499.5202845633622,-597.5995510725445,-703.4315945700412,-790.1445956177645,-847.9122272764023,-937.1866098979191,-1104.5522358802307,-1165.832470991064,-788.9070464050094,-38.154243818262934,546.7746567549091,691.7307132800464,627.6455831679303,604.765172297605,643.1512236145167,672.5648274038881,654.8761002145669,589.6525122321219,510.5101043649022,459.5585930620149,443.0308935284002,436.7022866665646,416.82307124860887,367.90644503548515,287.9762853767462,190.54735853168748,89.37349119939103,-7.681015435671178,-97.48275856651287,-183.8099572521666,-271.16596406920473,-356.4494216611168,-439.1726781408356,-529.9252701193418,-627.2849178828133,-704.4849895386023,-762.9563126835191,-876.25919875537,-1048.906805177753,-1025.166507091166,-531.7232937239334,191.71028125964918,617.3782307313977,651.3281202853354,578.3696506363551,576.9329972403793,616.1896036605489,60.0,101.0,65.0
293.2110640058289,295.5718554731083,274.08455341077394,232.16096580418053,179.34719396177547,115.23203588736436,41.4659439398809,-30.639974151263104,-94.74972522900701,-157.26961492008644,-224.68134037982375,-294.64456305484936,-365.53313604438324,-444.63443464402866,-528.6628491949891,-592.7849680498771,-637.9091253876461,-731.6560265347545,-892.640371285867,-909.7061974053644,-525.1017342934681,96.54989237820479,496.0840856326099,551.2745390301977,498.294085107589,505.5611558577078,553.5434280405215,578.1675700036346,551.5847263277429,486.49574777488294,424.69366628431254,396.2147746745033,393.8798245894093,390.5200848036866,365.40523301428124,315.5367426013045,247.94100089531776,170.3018620122927,92.096887445069,17.09937958493036,-57.563382807667,-131.0522803660659,-204.4416162023255,-283.2192399324251,-368.3130508639776,-455.23391909596205,-543.7330036034011,-631.4101655022843,-701.2452946223226,-760.5499664992924,-876.4404708153494,-1042.6852729857571,-1004.9737899232779,-517.0934683824745,169.70781596029258,562.3382012301183,594.2274864276433,534.6309762233689,539.2050143447783,581.783557588009,601.7476708278133,568.9022056665837,494.05902758521256,424.49400715315556,393.7634166434246,390.2509775385043,384.94213852597625,359.9563006133559,309.26021294031585,234.98273750035986,148.48791432782397,59.73520828055146,-26.388177704434526,-106.56885710617584,-183.62072689330935,-260.661558627648,-338.02557258092855,-420.7609833637868,-512.6661568909784,-599.4534969935568,-660.9617821111708,-727.0764335944608,-865.1565097458305,-997.3066793960307,-829.6479775508014,-247.4756509859786,363.77353941111306,610.7613370039973,574.1336945291641,522.2518286543491,543.1069067575318,574.4936762857532,555.1188589295831,482.58867271523303,406.29912294971575,370.87730605090104,370.5807916700758,369.3509480508043,341.36607085573866,284.976509722479,212.2724822921083,132.64413120867675,48.509635921372,-39.79697035443636,-129.7343469376222,-216.10994570626514,-296.80999818277127,-377.0721157553967,-463.3911106987392,-559.1178664076701,-653.674786873024,-721.9350627536226,-777.1542692086725,-896.6428797878763,-1058.1031944663478,-977.8041629796247,-431.7515050322726,268.889066053902,631.6254463245988,638.5034545665774,579.6890056402844,597.2528828803948,647.4289047783319,663.6263894611521,621.6203246252312,542.9406522009914,478.78111698614794,456.90815878623437,456.77168371229993,444.7404901627208,406.3238970333366,343.7799954831483,263.5459052383895,173.89897021767,85.17878521960942,2.0438262398337765,-79.88942742350042,-165.53448286080408,-256.0151987954153,-347.71400635693306,-436.3362596131476,-526.4464952531268,-628.2222753150431,-731.8274027573858,-808.5958731995637,-866.3465339607417,-979.7451302649464,-1148.7262721805928,-1111.5548763827376,-590.5979571824446,171.56186843036892,629.947352383382,679.6144977064904,612.0493023218478,612.6648556539822,655.12786407772,672.931522055208,640.0560473045616,566.0568772104493,491.7289463682761,452.0591611592563,441.37138770645,433.18670257216536,406.10906448059825,347.5955830626313,260.8892453887562,161.26910205912168,60.65992167959013,-34.335457208942515,-122.4865867316909,-208.93716539019346,-296.26327289940747,-380.27510097916877,-464.10482765597425,-558.2431156704083,-652.9019281682696,-721.1334870400203,-786.3044963495639,-925.9740317783696,-1079.0841792303167,-932.7144605365133,-321.1795406636527,361.21260268568125,657.2960770159963,628.4414119885721,569.2951929561236,587.9095528800705,623.4350665514428,610.7941933788502,541.4350999342729,458.147935637716,412.04413063324625,407.97354259972946,408.70911238885606,382.3187222036517,324.48358888466583,245.7117714493524,155.65781981057802,61.74644848286028,-29.91036138216812,-118.69848594936579,-208.8562609169047,-298.8574348695571,-383.7176433612181,-467.7039535827001,-561.5529133018413,-663.3820945556778,-745.0054675034551,-793.2977174156945,-873.3060170786606,-1041.898726318298,-1121.6339336007666,-772.8489288246404,-40.05713887297973,545.7371937778466,697.1621815789221,634.4866179405628,612.5055221365973,654.8681768053603,687.2727384223258,669.9335975723606,605.5296863290106,528.0138268250619,478.5140116287134,464.87632742463165,461.8995332466837,440.75955238398365,388.7036311183396,312.491811374494,227.02598170619223,140.4894720576635,52.48416567980415,-35.69986509672535,-120.19452191359926,-202.92783074612294,-288.4890769446769,-377.803518026691,-469.4321965947182,-564.3170192768403,-663.8508599469005,-753.9445217210996,-818.3059532186096,-898.5824793916127,-1055.8900430363615,-1155.3250170950337,-861.8816168918253,-154.1814925122146,467.8714512454718,660.3789720966832,602.7497654069844,60.0,101.0,65.0
471.13740632636797,411.3676038043657,391.2685984189081,389.99437690130907,380.15837491936804,348.04074588538833,289.848588756447,210.6642915498407,122.83067626057243,34.3694509629076,-50.16557418877461,-128.92525650268166,-205.87519834470976,-282.887610538069,-361.031504179408,-446.5623884971149,-539.4261434914474,-619.961367302839,-676.3309959115921,-758.2407963822501,-914.3458817997887,-993.3415366738886,-695.387975996883,-49.566479900690034,477.97167469141635,616.3591456686422,552.3084227324101,522.2880801425625,554.6828302924686,575.4574163539493,538.1007372016669,458.2464523396708,391.1000870301211,368.6148054754878,371.89908584873996,364.5208568931357,327.5565718844986,265.07840999430704,189.77106296424475,108.79190161265866,23.376932212774197,-65.81750043859537,-155.2854441838774,-239.89027983137595,-319.7239403907136,-401.1454484596081,-490.1425414505117,-587.6080636982117,-676.9274664665686,-736.5036314420404,-801.8258413180055,-946.8438678093731,-1076.2923597023678,-865.5180281472948,-219.26168417417813,420.34072305268853,658.1755999484843,617.0558864176186,576.8593433060621,611.9722220067035,657.5287606200361,657.3898463174074,600.5965147126648,520.7428200715703,468.26400850118176,456.2943899767594,455.6087202715636,436.4383493930103,390.4581050431953,322.11142216872315,238.15557149133625,147.7684693941857,60.66151020694579,-21.476639723405075,-104.11667352507696,-191.26274994923875,-282.6228758610177,-373.6940594998128,-461.6864744203922,-554.5010981604668,-659.1768927681203,-757.7500871875135,-824.8527740035861,-889.7783345692974,-1029.0569714584599,-1176.2666288600203,-1012.7078653643184,-369.48993067915154,352.02706092941554,676.0535998612809,658.9268689531096,603.7376661461847,624.1600216566894,664.7125300530926,668.8739930336617,621.5534693388514,542.4689508521064,476.17000815188044,447.10980967292284,439.8564000487863,428.0531178463601,392.65800560105833,324.83614762701353,232.76861524826245,131.93956527366157,32.445005647937045,-60.36392045951456,-147.367028960629,-234.20713912218443,-321.02275757134623,-404.0000683542345,-490.0548668298978,-586.7950968463782,-675.954380658947,-736.9434343428891,-816.764875080907,-979.0016162748677,-1083.5026865509124,-796.6867011620692,-104.23497416386503,494.0536934087467,668.5890813829242,604.740877764035,567.8709273573978,600.185724533696,626.2613271779436,595.4560548177003,516.1400533211472,439.63746418630524,407.79034694892,409.5721358620233,404.5624689589666,368.4657753986628,303.37269911082967,220.511755610824,128.60299098732395,34.85818743860764,-55.68917929416822,-144.482139189693,-235.16804343977483,-323.942963148962,-407.6105769207967,-493.43042605220217,-590.9603986905195,-690.6113747925467,-761.1673577245399,-808.6032188024061,-914.6931598237763,-1089.6127205067842,-1075.2843056428717,-581.6121883158783,168.2664084785615,630.984891140659,685.9779950660278,618.8594821245239,621.3401171747846,668.0207488260522,687.8956040379599,655.1975391770317,582.3992163583587,509.6416957097724,471.61582640148276,464.36820713565635,458.6108534724207,428.92021467462666,368.5089557683781,288.17446628342674,202.05756885375425,115.27681687534448,26.813860253789098,-60.545675790946824,-144.0471980179775,-227.23302901634307,-313.96446475371346,-404.0872284762147,-496.35342786284434,-592.7942437309372,-691.9790886338608,-774.9053299563859,-836.1228156561552,-936.3185566807965,-1104.3783107211289,-1123.3429444211438,-684.2773869221248,59.75994510862407,567.5649069440324,654.3630233945637,583.6450041410437,571.7357592573259,610.9978761700249,629.5278086686199,596.8563673657704,524.6153408582129,452.87314792723294,413.2343660964672,399.81599296768917,388.58657218611967,362.17201225355024,310.8178844968805,233.52195846257595,142.20749863527246,49.198285984106384,-40.93444310122328,-126.75666833432614,-209.8165481775115,-292.81034290507654,-377.23335654777037,-466.3699352616923,-553.5806254158866,-619.8622961953779,-680.2210527285208,-800.7015792466393,-959.7164357146695,-910.083068502313,-442.5075225537694,187.8302778965904,535.8593950359424,556.860501498274,502.3928432469934,513.194774011127,553.9698141791217,556.9997867143136,504.35208810657906,429.00936783876193,379.0686781454232,368.9758864908245,372.2400922785187,357.3671093790631,314.0495390939257,248.6267590371541,171.38884939297628,90.13535766463163,8.997362431108847,-71.08006723972623,-151.02968146542594,-232.63503053976734,-313.2987879127338,-391.94523402479564,-477.3179067197715,-574.7587161261985,-667.9515825452493,-731.89786592084,-789.5885261613241,-919.2209731504744,-1077.256485691247,-965.6486321374348,-393.1443981727692,288.30806975427043,613.0641437762594,609.2389985112546,60.0,101.0,65.0
577.4961791045329,501.1289398611344,461.4487823400585,456.5960710864826,452.73564117773776,425.8183415365783,372.72417309801637,299.1207662421198,212.2149367850306,121.97375844090648,36.616770153103595,-45.06123929023342,-128.7450447531141,-217.37532272262874,-309.20479100044474,-399.32512447619945,-487.42463102579984,-583.7494153919541,-689.7229374282524,-780.6535454060839,-840.4103141942984,-920.3333535505719,-1081.2241398330098,-1177.0914728590371,-869.0178837848267,-141.23702225214657,494.7657062873127,692.0833003908659,636.8203951117373,602.9011519334036,637.1700902903085,670.9761829522015,660.3112953626915,600.1836667009105,520.1088246587461,464.0329506144187,444.0259509164552,437.8986119856157,420.9002637394137,376.36660887611833,300.00449410529876,203.96991421018498,102.74345388320663,4.830685027370904,-85.86432277404033,-172.28107260551616,-259.52164827364805,-345.36395805424746,-427.951733843318,-517.1113096027284,-614.802393498081,-696.1137771697129,-753.9938563668021,-855.5818964709308,-1029.0815133920578,-1052.982878487757,-622.3171948657034,103.23685264352932,587.3351598899518,659.7559272572596,585.1599410499474,572.9316560998047,611.6676454073063,623.939463876025,575.7542811708057,491.14040933152927,425.27244052983565,406.548145033356,410.46018544619994,397.625214976199,352.1441091734639,280.8092448795128,194.5612563717802,101.40338521591998,8.286752676414945,-81.29534601357666,-170.49800992783045,-261.3155026850091,-348.5173523962224,-431.6546030096592,-520.2652175254136,-620.7536068922979,-715.184014151162,-774.7129601841937,-829.142085341618,-963.9735047559864,-1122.2288776202386,-984.7991632656385,-366.183870438406,348.8708021720925,679.1517995614797,665.7139959546552,610.6975982005622,634.008885913887,678.5562791411255,683.9144188250975,636.902246882207,559.3008241895193,494.4734594928104,467.45798234365014,463.941566668302,453.19504788314214,414.38928391881296,346.6319657596601,263.44736466691955,177.08334672239477,89.87949144955172,1.2335496429523205,-85.01218045659701,-167.8756635307489,-251.8676077965944,-339.73142839538735,-430.52005815663347,-523.6264144690643,-621.6593604073137,-718.7168364183842,-793.4823888922645,-857.201578363419,-981.6384449653808,-1141.5978053031176,-1049.486397333882,-477.8209943997938,250.7883989591166,628.6474372280531,635.9674673941736,571.206378492323,581.3516497343213,620.7741485087572,625.5291093861697,578.62563085658,501.85252220822537,437.67708306056664,407.69169752270324,397.32258967625313,383.03586290731005,350.191434056849,290.81428815619427,207.89901758721552,115.18028931089235,22.778819564634052,-66.18955267091513,-150.88024424160363,-233.75333507404693,-316.924257748706,-402.43560036202894,-492.5820187498747,-575.4234927299102,-635.4681017611092,-706.2135526145179,-849.4682221976174,-981.4754663993717,-816.8937206222457,-254.52972539736348,329.28283282530555,565.806388197563,538.3831233363869,498.1925160766132,525.4301689347127,560.6576989956209,546.8214182554818,482.6250902198143,410.3760246584035,372.69344213457725,370.1960130535926,370.71758978335026,347.6822258672486,296.9504900182827,227.1169715913842,148.06287297364202,66.60492770851792,-14.256599988117237,-94.08050863201179,-174.4549926688157,-256.23208440026633,-336.01842478081454,-415.40413563927484,-504.4796744840807,-603.4074834939001,-689.9182549204555,-746.0576054741832,-816.9768469053412,-971.0483688578298,-1088.83056044638,-842.699211008301,-181.24189742465032,428.0762561836004,632.8902407394764,590.2268589092938,563.2413485228617,602.6687357476585,643.6872811737173,642.0061274114979,590.0121541949281,515.1694214309351,462.7214639724335,446.5289606525145,443.16222025687296,427.2959036629738,386.8973742082222,320.3687290096433,235.56422736183575,144.0130422452825,55.93284752100823,-23.433708415872616,-98.96852897867437,-179.10290944777952,-263.50865744776667,-347.07117719442385,-432.91385366738456,-528.6857783012338,-631.7046428072907,-718.4224450846266,-778.7264816413399,-871.7087091856332,-1038.1655270033868,-1087.447708705972,-706.9838981004979,2.960797288417018,522.0298740882624,628.5324246522849,559.8725339064383,542.1805389383834,582.6938104889517,606.3525918425902,572.2836469945888,494.52100216426516,423.7437812217083,393.58285123554924,390.02999620319036,382.04140369221597,352.62563489121504,298.20237949684,220.7322686104143,129.59345380423238,38.32814349024111,-47.74671985832451,-132.3007902911366,-218.59408301106743,-303.2837279470589,-385.13360243428593,-473.7606430973206,-568.9260363723722,-644.2534870843097,-699.3034273907354,-804.5082472273754,-974.9935793282515,-982.1404084831332,-553.9507779043412,119.89332877720804,541.567635325362,60.0,101.0,65.0
620.5831131513269,616.179942933798,552.7702275677321,467.90781165783267,415.25519247045406,407.2814393106029,409.7591415348329,387.80193187393957,333.6534026982124,257.02852555850535,168.03393555187816,74.22655872113219,-17.933916805854345,-106.87431630303462,-196.72304494511422,-287.11706897915894,-372.6739809620064,-456.16226085692267,-548.2738485821291,-650.1855233184644,-736.4198148027832,-787.2461151208728,-857.3094155908562,-1017.4614860352143,-1129.5197173969505,-849.354581654609,-141.91145529603634,492.8870712500217,696.8961366077588,643.6831745560271,610.3164417611713,648.3007009010843,685.4798438721623,675.3590998326688,615.8693248613629,537.4100440260124,482.76154008291644,465.3628514821955,462.83171988770533,445.2976216016788,397.3380031222677,323.48304153736086,238.5342663227648,152.06078251111904,64.31121603849341,-24.119108248739337,-109.14978249891264,-191.8181059034141,-276.8531878610868,-365.7426391702555,-457.1087344919239,-551.3579537254083,-650.6077298002948,-743.3978557667145,-810.5435154554041,-883.8721756168264,-1032.133857823326,-1157.7439858837677,-931.0316183253256,-256.6735693998894,408.30817755147365,656.5522790001922,613.0632975507867,566.4193107975194,593.3624866770641,627.306026113648,616.9828895007513,557.7266041228921,480.3061988083431,425.61701634634807,403.8236528993946,394.4212762406268,375.9090143218121,335.9218503615197,268.7561635545684,181.49737856395225,88.2343380273493,-3.3546002156604895,-91.05321671780699,-174.86187993787283,-257.72037546411144,-341.2060149560809,-428.13776423901726,-518.2682211815966,-594.9932747807956,-651.5971161165031,-739.2448604891047,-899.1087815328716,-977.3224529424793,-686.4390275459428,-64.89502166879423,437.9553185165808,572.7103892488573,520.3585627647299,500.56558453077173,538.207684624558,562.8472109131437,532.1361794027649,460.2137803675013,394.9587582948652,369.4898565475279,371.6075814638094,367.05669039051844,335.60822367718254,278.2550391554983,204.85987610651495,124.56229734526865,43.138755213920035,-37.40933473511208,-117.12581133773547,-198.0433133509091,-279.6272948541688,-358.6203935968293,-439.7440165381875,-532.6389828102034,-631.0428338552471,-708.8708747124108,-761.0770778576032,-852.634920111567,-1021.8053229786103,-1068.1147827482391,-680.5956152994394,25.20237787103024,529.8679984059588,631.6203794523577,574.3386777667853,570.2192131869357,617.1465463504927,648.5161500576443,631.6524673563906,568.6585742521414,496.1680932724448,454.9296190172023,445.5952373148594,440.62241293307676,418.3983692259684,370.17302959723133,297.2273941780407,209.32380786338655,117.81522379569165,32.12961227150202,-45.22600171527013,-121.43223864498954,-203.3350355503507,-287.796595731756,-371.2843519532748,-459.33119021431804,-558.3816291768611,-659.7558690397997,-737.4027055072654,-798.2197172205543,-914.9210258974567,-1079.8942571189111,-1029.4467599236443,-515.2414513472961,193.62070747090516,589.859904238818,612.6076703999817,545.6887249848219,551.1973572438495,594.103180168196,602.8309868183846,552.4095119872611,471.01232840186344,410.67238120634414,391.2680292431829,389.2912499956699,376.0513735229264,339.47457246895135,277.94569666113205,195.17786118354272,102.7671336804905,12.988484266428303,-72.09233655997423,-157.08304254582603,-243.46856361223507,-326.96216427819365,-409.55453243948546,-501.3997310568277,-593.9896718328561,-660.2567752311071,-720.7524811747845,-851.917603511377,-1009.623103366742,-906.516381833128,-361.90714239327497,284.0299613614825,585.5801870988337,571.5177164320419,517.8914199237723,539.3052245228557,584.8429997126041,588.3892132100119,532.6610282773856,453.5912385854322,402.4020656979051,390.37083216006613,390.948458034961,377.78989093021,339.34777846936555,274.9577613664394,192.83883812884372,105.88281399016486,19.223827673713892,-68.60450046773929,-154.22964946945453,-234.3023656327621,-311.57670812446503,-391.6310662257144,-481.40976154420224,-584.7674983353686,-686.4867899870868,-758.6128976160426,-815.4220107564597,-932.6083189354385,-1091.263069073138,-1015.8867679673342,-472.55913334718576,242.74786809738708,626.965829825,644.2608302710628,585.778984579849,603.2933963960936,654.5048894390637,670.4936852647188,628.8508360988293,550.0324643232511,482.2738490913741,457.39162071681915,457.6220606091581,445.75538834065657,404.908805393149,339.28443836802825,259.1355354676314,171.54064454126456,79.28287607301301,-13.024160564741434,-99.20214754907738,-180.6858265634115,-264.80016654299754,-353.27166649087866,-443.1932866925755,-539.0513140843553,-640.4470024989595,-726.5254760550789,-784.248435207353,-863.9910494752859,-1022.9780904971242,-1113.7213394762139,-806.4210630805555,60.0,101.0,65.0
591.7546883935202,568.711262731612,605.6993340047227,629.8367270446244,604.1178297877752,535.2152793574946,460.90474266712954,416.5303944144301,400.9683117801827,390.6863638320498,366.9673653020862,319.28263713939276,244.9673821392323,154.65472393857928,61.464786062087065,-29.159780608785958,-115.55948395909283,-198.7877342649955,-281.72502320574523,-365.77433626826036,-454.2537460327718,-542.8166616588178,-612.4032308937284,-670.2121490874022,-779.7579517810186,-943.3171518095609,-939.9286039769087,-524.8185909919105,113.0007098124801,512.4515862270125,564.0414707621577,506.6390017480134,508.30740061779034,549.6199660122384,560.0260329304701,513.7671121751372,438.4654065866491,383.21509950368056,368.7376818830591,372.3396446093815,360.9981005306499,321.32028992264605,258.23321792297867,182.0464335578587,100.99834904102251,19.75077523000597,-60.47011276793266,-140.29222848711865,-221.72002231818269,-302.74180233429723,-381.34414320680685,-465.18656967219067,-561.4247602059098,-656.8620962892927,-725.097269683202,-779.3635600301552,-896.6129747196492,-1063.5919047467687,-1007.874768807677,-488.38099011688905,211.98288999058224,594.5392660385702,617.726554866517,564.581442561731,581.7475807990055,630.0106426057222,649.1324012788992,617.1864144120142,546.4594260227244,480.10438723435414,449.99998551138464,444.94895705691704,436.5577007081146,407.2713603261382,351.32013179446636,272.836634350144,182.78895217755678,92.14870692242965,9.098184921360746,-66.92157750432915,-144.46035448070091,-227.78231916906103,-311.92506513976963,-395.8669192614255,-486.7670673063925,-588.4417344587184,-685.6305221681838,-754.3612709534269,-822.7826240078398,-964.26842862793,-1103.95766315814,-928.4929847088862,-305.17704420588836,354.27220543313547,624.0101175452938,590.4884430776557,539.0004535122825,563.4381103636631,602.3070321948339,594.01390548539,529.7526305917947,449.52087617143644,401.3497318359371,390.41423670795615,387.4763767385791,368.0525938318493,324.2182851771958,255.85243654925262,168.8067864426517,76.24591613135156,-11.914125375927092,-96.45362853857131,-182.03831229327986,-268.0541507223045,-350.4743531201258,-434.8865089639958,-529.3070290617803,-616.5125976494038,-675.2078387425296,-748.854739356538,-903.624066170503,-1022.0220389581987,-789.6712538891389,-160.51875579039975,415.33894739198945,601.5947961064026,550.4034584626911,516.9733542927994,553.5529349599992,592.0264854311956,577.6748963057966,509.6724044048402,434.403487728758,395.70292567619435,390.66981723313256,389.32857725375646,369.47724580349706,323.2148412703738,252.47845268795353,167.74275247004303,80.88569460664587,-6.062493849994808,-93.81970886510075,-177.91811077143356,-256.68798661746575,-334.14997737784296,-416.2322906310548,-510.0539516521372,-615.6321029549558,-711.1420660289991,-773.8972681704738,-839.8943014152163,-981.6006903659713,-1110.0298896063618,-905.5767891352774,-257.6862538577225,400.70617243950034,658.019653288403,623.4716606227711,582.7066169772019,618.352118064467,664.6569376756408,664.2099170723149,608.0527826014867,527.0976118198547,470.56186379103076,456.62265941363614,456.72025858360445,437.0050964082633,388.0433728196445,317.2055156201343,234.41878593100503,145.26011974203132,52.28577570805775,-38.67833361926609,-122.93329681904298,-204.43707801853878,-290.0968323394895,-379.0596856554279,-469.98263210778856,-568.3227619939023,-668.1412486300442,-745.3892163876868,-801.1024810099741,-902.5974641222026,-1070.3020807853377,-1077.4146135916608,-626.8030648172651,110.45725059010074,595.8803870950749,664.6892873649355,591.3993075406355,583.8315965002715,622.5571449406112,632.4573286866813,586.1163002498132,502.4407020260866,429.0931989684337,398.50324459609146,395.20447890761864,383.74264467593764,342.5095455759426,270.195381203574,180.95365766077802,88.77145360306943,-4.143054019598747,-100.31233963552863,-196.72962779337155,-287.0146493070347,-370.1211781659517,-456.0314734154474,-555.0916611601682,-652.1835098713534,-720.3377837182862,-795.8679602179595,-945.6295324337692,-1051.011136561401,-794.1534663075638,-138.32736050498502,453.1306533213613,642.2840549467778,590.0983394100289,559.235296991382,598.6373356085654,635.7219992035907,620.4291407824132,553.2923351858389,473.98941655792635,427.399414288722,419.7211984588181,418.5091214595402,392.29043361405115,335.20841237893177,257.27884756372777,168.67734888597548,76.19686623755511,-17.533446043935612,-111.92097234769781,-204.73838103591103,-294.5881594608052,-383.4950621372422,-475.4808566974743,-573.4406596780761,-673.129596094445,-756.9368275862903,-814.1987726496985,-892.9037064639126,-1052.637181671347,-1149.9158392089944,-843.9929607135347,60.0,101.0,65.0
