-27.953791697518476,-83.22604268789306,-115.1218554148204,-119.39960621415726,-114.02361697773289,-116.41830373684486,-127.60054862687768,-128.45617910353877,-92.33181485596246,-21.118417561059022,43.10769198683044,67.95984657258752,66.4849599741189,64.16216643228387,65.2976815156272,62.89758961049409,54.65751483952111,42.835679532427754,30.77640839510532,22.687731951016886,18.128643809352756,12.245965398127531,2.9815836892467686,-10.533261918918676,-26.13972648205152,-38.66425149482671,-47.494672902388615,-55.69398840872459,-64.38100721936465,-71.26338293875402,-78.0021060128527,-89.03550257016882,-92.02438720640782,-57.30156102082195,17.125539485494215,81.76058205086308,99.74187776955374,92.28546968880156,90.9915123105463,95.84813319754103,91.51144332351662,75.37588293418248,57.04589106614525,43.84917938991794,36.25579849701943,31.214648287261365,24.711787355519064,14.005414803948167,-0.9103566073810735,-18.21847395826769,-34.157742121680094,-45.09919598043824,-54.1511767623352,-66.5166400248521,-78.65241793696266,-85.93417358713664,-94.1872515183279,-108.26757409031553,-110.48018682907102,-71.92857037844378,2.5192873208394926,64.353916949681,81.75566966407571,73.56166564081474,68.93588776502303,72.8126912270099,73.42925910009369,63.42950802775064,47.63435680701316,35.75208089498068,30.700950307481623,26.838148992474324,19.84137750907859,9.296691924834983,-3.628760983936348,-17.54445774134353,-30.553395537544432,-40.15921904822902,-49.391288821284036,-62.73971791854844,-76.36528474604624,-86.91190920722582,-98.79304120796297,-109.66919289956657,-94.14272505097712,-32.55344115642919,43.47582644933306,83.72015553944145,85.4247271003054,78.64219408837334,77.81070606254531,74.7500674322621,62.568878553786995,46.893362731814726,36.108781634862055,30.86228669649395,28.154570556243563,25.475354637302406,17.564580115216646,1.5369121298720054,-17.410682861187336,-31.77538545892417,-41.26612864501422,-52.848190659386475,-67.97939920667591,-80.2614254949289,-88.36188043501222,-98.60846531011968,-109.62145253811904,-96.06255579866601,-35.95599360714088,41.3699858286726,85.47931917852763,90.80150598329739,85.78562335509147,88.15232036159341,91.72829126720282,85.06897804304961,68.46837220708392,51.35370430411949,42.02642252393372,39.529400554047236,36.113396585341114,25.936925234450634,9.397419725453277,-7.9162885425789495,-22.97319174504339,-37.22681544485105,-49.9624147399157,-60.12022756662504,-69.43340460282117,-79.84821161414538,-89.44608603236593,-93.76518014809365,-97.38291760643116,-107.82045473970213,-111.77715259125243,-77.78139636261213,-1.625258654545334,70.25545875272381,96.27538799498957,87.86814223480506,80.4126111474741,85.58911956812297,87.58498302507198,74.40850329541131,55.456702933505234,43.620543509926286,39.344721623619186,37.15494062850364,33.644254646979185,25.473854748460987,11.780595207995114,-3.9491523396031742,-19.42931314213277,-33.23286740950391,-46.10522176572746,-60.62841661064953,-73.75325542477185,-81.43333433510385,-88.7384304317237,-101.89052439948351,-107.74504337847664,-75.79505315854091,-3.0556934269555684,63.49834953173355,86.73247996387725,82.17138976012531,77.86551745779431,78.55392781926155,75.12381053492179,62.03753880025127,45.122384106329264,33.441458892563446,27.969386953798168,23.553654600550303,15.739345595660817,4.825174693286617,-6.119076199771744,-17.105946917102447,-31.61927691277572,-50.787749744061614,-68.35979493754363,-77.9422946269775,-82.40883665272402,-88.70774907086134,-99.78365599965773,-108.75192872952118,-93.25037808074961,-35.22616515198464,40.31345429175408,84.25527255536137,87.2159845349283,80.01549974380254,84.91482235405938,93.0796599605489,85.87628569105982,64.82157633656875,46.737302368253005,39.62541722094186,35.74532591740349,28.10526721976187,19.38825494446762,10.487160547102421,-2.4092232285335484,-18.92335883030514,-34.52353852862452,-48.11341274116039,-61.592304328047895,-73.90179471559512,-83.74742339445814,-90.88313442963776,-98.05339427302617,-109.48968641314552,-113.99324803372912,-81.1069612623457,-3.5125163690216152,71.3733560695512,96.99159620445346,86.87490901736751,81.04448817333314,89.85922953483167,92.86146761632293,78.828611492811,59.566496227997355,47.09675083660035,41.075445278757115,36.3997672014206,29.90141630082848,21.392524388779947,10.786814023446773,-3.527792820775357,-21.35667140971049,-38.652195886521476,-51.504700898880024,-61.42351715588494,-71.80906718459518,-81.74150719335785,-88.16309801934715,-93.04019936676929,-101.67272366503116,-109.91352767832645,-95.13219232161929,-36.706685260996366,41.641779246175616,87.92804756784813,90.78727095295707,82.60045495604635,84.4810516858646,87.28942444917195,64.0,114.0,68.0
80.44674215083624,71.11670191618965,69.58178699634922,73.8802399929147,71.62400603213631,59.01900996592206,43.46040107033023,33.74770264406079,29.757340562753637,25.19831726224514,17.13190112227807,5.73161660841104,-7.594413132622282,-21.53725650622792,-33.693830072082115,-42.566599320830214,-52.83756023541691,-66.94250428884915,-79.64308634539398,-89.96221619391677,-102.73200299947374,-109.38799935672556,-80.794641346863,-9.460146755017016,60.04055974520219,86.96816211229465,83.1340701013142,77.90149994350226,77.68516060700695,72.12879547857013,57.942511297820694,43.08284369969594,34.16692956495019,29.915956155002068,27.54690508562039,23.994611363067456,13.676474720537096,-4.010643902975415,-22.249318309685183,-34.76044676050735,-44.11639355354944,-57.08573885279573,-72.07579799021705,-82.8274054424397,-90.81102055901711,-102.36762334331067,-109.78014410107296,-83.32766500506365,-12.82092204863255,58.874326758407484,89.94732469955038,89.15072107930291,85.61301757396254,89.69414411035069,91.1032037762522,80.96811042994183,63.09429985975604,47.69510576182772,40.896405386422494,38.990927109831816,33.98095923588882,21.620394794270396,4.212066727748368,-12.457323513562908,-27.13303569395394,-41.1615630122931,-53.124290397577894,-62.78850427810208,-72.29848668386205,-82.94337192092965,-91.28368699470053,-94.3976987582943,-99.73055934860136,-110.93769611362688,-107.04709908828114,-58.80039150003762,22.207370933006402,83.00505369935347,95.7563078738586,84.41187465728986,80.99762724353808,87.39744527501891,85.27360380979508,68.78967245835908,51.03934478263827,41.85440273291481,38.69103637988407,36.40242120123723,31.909726324864266,21.964940353731084,7.294727073260848,-8.505742061519461,-23.639836592626096,-36.90318862209433,-50.12277824524922,-64.84512038592928,-76.50620808650712,-83.1514745947378,-92.00415398619505,-105.59507614104048,-103.54721514790414,-57.59545607609544,19.36538894617871,74.85198816651494,86.74838865466349,80.21427857515279,77.8727916402946,78.41337255511314,72.28955357386329,57.0667224109897,40.97907969238989,31.400792569823196,26.842748954682122,21.738061250759948,12.763286670491913,1.5771215350313614,-9.171779348048824,-20.771053062951054,-36.81909567737505,-56.433297138315616,-72.00652287122264,-79.43643587192201,-83.79329582456953,-91.4663443738384,-103.29030150905272,-108.04005459893988,-80.76584794824709,-12.89087061534295,57.79535920932595,88.31686986114251,84.65313757723119,80.02710101649565,87.91023180019874,93.01710700524427,80.54155352113465,58.602162322323096,43.68172369230129,38.677209080423445,33.92921071347921,25.510862361381285,16.992137482740283,7.288584083096836,-6.991999773246262,-23.69341018533952,-38.556533825092764,-52.00491399865478,-65.35772681800889,-77.0238825037088,-86.06129772674869,-92.7018515443473,-100.9348529419222,-112.67603014886815,-109.61599481792271,-62.10643953272523,21.300666979348396,84.41889717612972,95.8644365560457,83.4500621096849,82.71394112043313,92.32046869503127,90.34032752024947,73.04460492044319,55.08193535939662,44.912766662611915,39.791520127361146,34.760586309452805,27.619286542136454,18.604279486873537,7.09011888240681,-8.427956724298442,-26.650468279944835,-42.867639272445246,-54.486682395150176,-64.31082589748684,-74.8880397688573,-84.00818310814576,-89.47385061887582,-95.02593991193324,-104.74618668844391,-109.34874012032903,-82.77215888622686,-13.751480044076695,60.027613951485634,92.16384234361126,87.99010284073626,82.07912249270295,85.99430653737355,86.00252956840828,72.9496160002163,55.38961030898327,45.5416919696979,43.71186846947818,42.15138444000822,35.604293502730535,23.926498652332523,10.941849541361144,-1.6250863457933695,-15.528108756171369,-31.649298325116,-47.74026725894677,-60.974106519370885,-72.26474489422962,-83.20601331880819,-93.84463778640742,-106.56833737928143,-113.5588014702898,-87.34200203122545,-16.88080484333681,57.39281052317336,89.33842274246179,85.0026176188057,76.73020816081376,76.81266965275917,73.7341619368156,58.791827130213896,40.000520613649655,28.391184834418702,25.817896814456304,24.760787887756152,16.98885681464641,2.702505019519007,-12.64929332649912,-27.078924244689706,-42.973418663824525,-60.21319611772531,-72.38300202201111,-76.3822615611224,-80.55126513477887,-95.36715488775263,-110.14730699840189,-89.22359471813265,-18.382333791307392,57.974327924398594,91.09589386915314,87.79786158748551,79.87258945082627,80.54862629837915,81.60921109741497,71.431624236551,53.11938746530112,39.324329394689904,34.754609417465176,33.77483649334742,28.658772446433062,17.57043946271311,2.803573918396286,-12.997923631018987,-26.30818331278675,-38.321268848237665,-54.76554301064499,64.0,114.0,68.0
-0.8678837475432839,-16.811494470854864,-31.271350167079706,-44.90895082614482,-56.07668182575127,-65.44696490928287,-75.29742424451459,-85.85460683043102,-92.58752236679398,-95.23072991439848,-102.76249856941718,-112.8912985844299,-98.30408778550672,-36.73459015592795,44.13899984585332,91.33569237869688,93.18979465851163,81.8584313958717,82.55484639737824,88.38505190359524,81.60799432405369,63.106392766362916,47.43669903138251,40.598168252133014,38.0871966103046,35.480441499907215,29.68551886703851,18.038077984355684,2.73802708324122,-13.013475323197873,-27.6661829038538,-40.564884594887026,-54.326273957490976,-68.78649037760864,-78.75925847398067,-85.07716967990623,-95.84101621002378,-108.09341599181428,-95.36986222829785,-36.46249000791623,39.72799429585197,82.18913855860286,85.28780221798047,78.79657612526577,78.16429740669999,77.66429979146031,68.60858525785568,52.03533731108305,37.450627159040465,29.80327544164268,25.65446443141091,19.560129768048576,9.595441369900213,-1.6028333093055276,-12.274899447443273,-24.839315195840122,-42.37550181203947,-61.71400405813411,-74.8981424849296,-80.67119452292185,-85.48992826375164,-94.64471998577022,-106.33123868838905,-104.56304429426623,-64.50967448316761,9.732233015888328,71.51551768581933,89.3341663295292,82.17701540199701,81.30587258924183,90.66338382186095,91.29614647704977,74.36204184579493,53.07665577200206,41.556243410225164,37.69162295065955,31.741565472832647,22.95972421025782,14.516473408899083,3.65852940333742,-11.794905396587394,-28.26555534551188,-42.465551012605395,-55.91986517735512,-68.96816647831693,-79.92691129878214,-88.14336590618151,-94.64724659509622,-104.26291020655593,-114.75218437198464,-101.24941948211914,-39.697127348109944,44.20863351712887,92.67689868955065,92.71336693571351,81.29916391465117,85.40344426861301,93.6498149465096,86.39716034414504,67.27380777888744,51.3305417948049,43.15802304081583,38.4927769700021,32.926545466833865,25.189601973765736,15.617667622204403,3.0387912045505416,-13.584087666187036,-31.7610052777695,-46.65347407065809,-57.32264348181319,-67.30180098276472,-77.84664331374013,-85.9198008050435,-90.78118122958865,-97.45019158266194,-107.53747826010132,-106.10314151785003,-66.46797826785871,9.688433861230768,74.49967365372989,93.1572196878513,85.25644067623259,82.56801786204853,87.13102024515285,83.48436150371911,67.67883341627264,51.46404888859207,44.49767482856782,43.55549801329162,40.885585042253005,32.6202152036857,20.141987632812285,7.313851925870274,-5.414561808106162,-19.99833030952501,-36.463224047608755,-51.900230384554995,-64.31587994637741,-75.4727473791083,-86.23979454231521,-97.25452695666684,-110.13136138916357,-110.70177955027883,-70.6819073103242,6.87018468618683,71.78753666890857,90.35973199657869,81.87691204000228,76.1343074515506,76.93881388526876,70.54451313124889,53.16448649565719,35.61723456932461,26.91381512723125,25.817346249945846,23.38384202975399,13.302106701633345,-1.8267065225107701,-16.84956892466716,-31.40299900506779,-48.015195023593826,-64.570857986744,-74.22542818166379,-76.9704817301805,-83.6055364630867,-100.95467274505621,-109.37960979609771,-72.94981603541792,6.02064373464609,72.77605163809767,92.42190490731647,84.88375990189645,79.26075875061763,81.4595135267418,80.04662891338751,66.4157088247952,48.223935921812526,37.157859175673295,34.498938279227154,32.941201037974814,25.987769890145138,13.576871149667227,-1.810017027010488,-17.204379765371243,-29.65399907832686,-42.46185682203381,-60.38723714496223,-78.63436526172315,-89.73065615366545,-96.5388927579765,-106.77767049555855,-119.32483668989335,-112.67851668263285,-60.11121297911173,23.715983891054133,83.64761376552086,95.31417963005075,86.48828748931456,85.11249032817163,88.96701541308174,84.23755121798573,69.23785295388159,53.57208297657485,43.12754533428159,37.01387137241791,32.9713876649471,26.355664097731466,12.767898224118126,-4.41468828338362,-18.987167477412132,-30.73336072255451,-42.332846946682395,-55.41593595843061,-70.16009745121815,-83.78333934491168,-92.08932569899642,-99.10524966870796,-113.8660587578572,-124.01521569880622,-94.86089267300356,-17.544002624001283,61.660422343676466,95.18803296999648,90.3278425156224,82.60029327792452,85.69024155328673,88.37537645952995,81.38570163168629,67.75867771751732,54.72026824251734,46.56694923275764,41.939799949881895,35.71907289648227,25.128683796621875,12.228088515334303,-1.545639358673881,-17.521198438477974,-34.36094593459689,-48.937136092406014,-61.42274659901993,-73.75991316494925,-84.2535122164497,-91.56249668551844,-101.42939037962026,-114.52162406515635,-106.62035265691331,-50.33607797890315,31.627919726108047,82.5060609164465,64.0,114.0,68.0
-108.34967739231183,-97.68863229359684,-45.034295811071026,31.187272445797596,81.15807831786692,88.19822835170825,80.44233688428137,83.61681625465488,92.59895803102745,87.92938250514534,67.82331836781142,48.4962491783956,40.12947589315954,36.445443663059635,29.287816149262483,20.497853286895218,11.830552927376457,-0.40390417584796495,-16.680886950367253,-32.601410963298974,-46.32968428425414,-59.817501815082736,-72.39148812623252,-82.59779609452778,-90.0436234664178,-96.8843278828414,-107.85041260090608,-114.85892799403875,-88.48440715980074,-15.132062471756946,63.7736445372953,96.50893336503843,88.70985686761608,80.75077461201812,88.49061651584597,93.48557306292962,81.38169388871823,61.8669653721736,48.28570965168279,41.692002409303605,37.094657868281296,30.89810573792841,22.62327657418468,12.379373838903307,-1.3749570892340093,-18.892988300561424,-36.565679535421005,-50.049018330275786,-60.12111291915137,-70.37798729931706,-80.58083474653051,-87.51224987213165,-92.25820452508668,-100.27533298123747,-109.48759820394307,-99.47422420163215,-46.721504848983855,32.07619774476647,84.6706672568597,91.86614890281102,83.20945049065824,83.78633206272798,87.48011743528271,79.82874217047126,62.395505788803085,48.415224735394,43.98248918272151,43.22214155796302,39.11709703138016,29.263482060896482,16.359626295692102,3.711531229447341,-9.374359226283328,-24.649467537417884,-41.186402903146345,-55.77190229032203,-67.5663396202063,-78.65685232001914,-89.25842195611773,-100.93680601704366,-112.81342209856273,-104.23184500911385,-50.48544339355275,29.425761812615594,81.87961869704375,89.07781572303415,79.18940216299896,76.21684350350995,76.37283969051879,66.32194352490501,47.549132176949186,32.0444646928742,26.130566520783987,25.683904926195197,21.296854218871836,9.177909260457852,-6.306619056891898,-20.98678993503185,-35.93397221980014,-53.09908667667032,-68.29892418889875,-75.40456583810358,-77.89653256939657,-87.75180882070006,-105.95810848532558,-104.58888913141297,-52.67545194079619,29.223046403651058,83.2007506481226,91.45274234106897,82.31408427915578,79.42076653797655,82.04994504717575,77.32670965502678,60.9953210499826,44.00783017697585,35.753857038891134,34.326924176176234,31.60406916461953,22.849022743258093,9.336804437639215,-6.43787434916334,-21.109748323907947,-33.01063381127748,-47.11381198664061,-66.06128341269817,-82.6770578919583,-91.76688014378198,-98.90944812285618,-110.67781165211025,-120.82331149619394,-102.71074654714164,-36.935102581759466,45.75896539270454,91.4055104109493,93.13899064847948,84.8847335241228,86.3566796900548,88.88377294666275,80.6237487609706,64.33964812982241,49.994583528011866,41.00126667046593,35.77276125040797,31.600618310926922,23.17051811863865,7.8382777951602,-9.029463295041735,-22.550520482291073,-33.99980218762698,-45.92415768474372,-59.54882067600688,-74.43527715370567,-86.79310401760338,-93.76044957079566,-102.48983423125227,-118.65469495858136,-121.0370607999343,-76.31967861581275,7.9804527382092685,76.83497755977564,96.1573894998494,87.1202890833828,82.62755765645508,87.15925421490923,87.40298667429106,77.80843393812809,63.646769505516374,51.81190586741989,45.06589124658303,40.529342021275596,33.08344723804458,21.501657342286883,8.382147123742445,-5.903088468051928,-22.46050516217613,-38.87974922586704,-52.653009207722775,-64.98754777698937,-77.14163248768311,-86.56489752484477,-93.81032313362113,-105.41160008862144,-116.0382585960646,-95.5860329872543,-26.753663110853175,51.46166941316347,87.6016966258182,83.31176357162607,72.80294650975944,73.21611910965649,75.94961356918473,68.07955151869174,49.71657680796243,33.06659709305671,27.11743333967804,26.691023698083182,20.9902039498385,7.049933019885559,-8.771907706109266,-20.683152683402948,-31.083675143210534,-44.86974782962014,-61.674335749221086,-75.24942904907856,-82.1881576930016,-91.76738393634739,-109.95350267698016,-115.05663234729894,-71.80341052721464,13.03411260830585,79.36265813855067,94.75604939192831,86.20412794428589,83.7094380070596,89.95062804079717,91.52448842624642,78.8903428229337,59.66108263938116,46.145439874323664,39.97542506062824,35.10189133975951,27.163840275156343,15.565002356407401,1.276469871994543,-13.400346423294057,-28.080685059763724,-44.04784282162766,-59.93234367651446,-72.66143402937196,-82.14681195922086,-89.89295215901883,-96.58979624346931,-106.59934933419754,-120.88698351544967,-118.94881305293035,-71.28804531421059,12.217054073076175,78.3810392981457,97.1337544938269,90.32744631466558,87.2843161484578,90.41328199694392,87.2432172999984,74.3774027030013,60.01606857978084,51.053244275493526,46.06922112209916,39.33739745418475,29.46261742043744,64.0,114.0,68.0
86.74865864927158,75.26794999916254,57.46207055715966,46.25805629289033,43.76965441898444,42.58013269590664,36.82841553375253,25.64770518188464,12.634687868832254,0.0779459391147593,-13.536944462366328,-29.425975041033702,-45.72803558861807,-59.38194813519881,-70.78377198882397,-81.78676823584912,-92.35729359504023,-104.79747368517566,-113.86001011587855,-93.65216555645722,-27.7999697465155,49.37787739296148,87.83774979745802,86.43545047316357,77.29608823087723,76.62861073557437,74.82402467070139,61.2953328386321,42.258158694628754,29.34410297694723,25.846799414733617,25.17599755562593,18.499689155446212,4.779271269706842,-10.676630227479812,-25.1370401220817,-40.70131681982644,-58.04082036346797,-71.27656721767104,-76.12629500465907,-79.50242499258526,-92.8241434054352,-109.38976672998231,-95.17802896666787,-29.569509646632145,49.73729912029961,89.45845182824587,89.10820651225434,80.44687670917406,80.12588324836467,81.96157346620944,73.50883490877138,55.54502324365751,40.60494889566353,34.964734997977565,34.01740821958395,29.715273903390482,19.3142514557482,4.8999186858909285,-10.970761448271007,-24.722006393463086,-36.566010189367056,-52.25800627194097,-71.52472644280475,-85.99836312967889,-93.63793028603405,-101.7439659032801,-114.61044491937993,-119.94527569461135,-88.36769638350879,-12.134284714600799,64.30600842398201,95.18986968028031,90.27483514414563,84.3114751820876,87.69702853892836,87.78121733869419,76.28667080742709,59.66723063005472,46.8937308754175,39.189011537222925,34.645752744190744,29.86068674687199,19.338428225757582,2.788219027612315,-13.311714443298852,-25.939412126307754,-37.315856746594264,-49.664043928114616,-63.815002570635684,-78.50242548009261,-89.2683062569789,-95.56343838870691,-106.71217041119074,-122.41687549840323,-113.82124706708238,-54.07627317995511,32.03564848008174,87.43512451988467,94.69580478568288,84.53112335558617,83.53281459459642,88.19276898445563,85.53091506063079,73.84503619894103,59.75860751681293,49.368012169282494,43.76788191431562,38.844348976615755,30.070094191895326,17.76963327054739,4.454745159692083,-10.486323488339616,-27.386471145398072,-43.14705540237449,-56.2454874166619,-68.57634295161088,-80.27288625972716,-88.63245914537083,-96.49395176093076,-109.52940599975682,-114.89819620033863,-80.04817652812278,-2.2790358250775578,67.33354120271672,89.09535163486663,79.56996519120968,71.83048224968687,74.47243329260085,75.07065630234838,63.44731287150774,44.10961044164529,30.211901815465374,26.9414167113985,25.933849043152883,17.650583706200894,2.2934427789200487,-12.663077241582913,-23.580462017453556,-34.60606978311114,-49.60651471475194,-66.26457400053022,-77.75934508087092,-84.08524195424188,-96.47580759033964,-114.4667961249394,-108.53381451673012,-49.441189719867864,36.84587270701461,88.61529472291097,92.95792011713327,84.25422169670011,85.06137073725833,91.5664894044351,89.32029375303111,73.35276269518174,54.86233744869774,43.81367881822228,38.725378831123635,33.18516668479046,24.181574715174456,11.61622725476494,-3.005438672106742,-17.577849257767358,-32.546982573457456,-48.794907397497695,-64.01827246254437,-75.64899578000984,-84.54600435714848,-91.83829225194272,-98.86920014953584,-110.68365934312615,-123.4999452146447,-110.57366389007895,-48.88577310665111,35.509234424626754,88.45896886568603,96.15108409874915,88.39856675910133,88.07633042994861,90.5935236523294,84.28099767246617,69.94542060523783,56.77227511146887,49.455632570567886,44.50234590726481,36.69346118759474,26.48114040750791,16.543805565440387,4.515354832227795,-13.114210807011537,-33.63043441873898,-50.868604100273345,-60.9861370450575,-67.97226062807964,-77.60513468184097,-88.05843654030029,-95.58122387828467,-103.4461598004578,-111.87332815905528,-96.5918059762261,-33.258873211525696,47.221330439883836,88.5223341118629,88.87446603982553,83.87075472475941,88.77468212210046,91.39056484549047,79.7667921500886,61.03897509696731,47.573839426716034,41.75849796421263,38.827974162030436,33.27281556789841,23.820532747713017,11.89292164537676,-3.599892010823798,-21.705141906829585,-38.711299493895325,-55.23866641182,-70.51045165146262,-81.14200607677988,-88.23333184726432,-97.88010023051129,-112.37495460999217,-113.04811936821311,-68.85847308359081,12.044945502179795,73.93156006141598,87.4314466515383,76.9498884809619,71.69787375105427,74.12319017220166,71.71784276529159,57.716000910717334,40.62587800167988,32.02703099323861,31.447589754974338,30.42336687484641,22.481536867844355,7.969990637920083,-8.207388980261637,-23.11055483593711,-37.67465496326502,-52.23405894779625,-64.99808180997842,-75.74198233809972,-85.37419257196636,-96.60840986080697,-111.08879131460924,64.0,114.0,68.0
-57.773594769488135,-76.53247524936457,-88.67305547173477,-95.57033956901422,-105.08348772398358,-118.0717018782807,-115.85054163201306,-69.864930477999,12.703296717952503,78.58665039775106,95.81542113227367,87.53905236834632,84.688164376413,88.71215370504643,85.59567728481935,71.5075456712866,55.38724989414804,44.2259166789663,37.647053166418395,33.524216105915045,27.602602843207762,14.943435490020697,-2.18876585538297,-17.264077980851177,-29.230117670535485,-40.72276531751102,-53.563307900109216,-68.15721420529782,-82.22081070916553,-91.2761421942227,-97.82724343170857,-111.55230290285981,-124.1676020125501,-101.93060705962336,-29.355932539435035,53.19033205735708,93.64757893077147,91.84114842438423,82.94929323585777,84.9651796776605,88.5151203793386,82.85219868272324,69.68847820901857,56.214493826783745,47.36193386142866,42.53068969442296,36.79766818091425,26.743949843238767,13.985123085387826,0.3901597667077946,-15.267778895657695,-32.201285347794126,-47.16253949957786,-59.788760378346005,-72.14408646410715,-83.07829192855839,-90.61765110328047,-99.7406686268536,-113.19811120636948,-110.19171546365256,-60.468604246021826,21.410678232715636,78.75142297567153,87.88525888022033,76.18013509558558,71.87530851263956,75.529775573181,73.06184485890866,58.10349126655164,39.01952907347768,28.35073364800024,26.958378677285662,24.49429119275465,13.663859013221435,-2.397297700017821,-16.153011829148145,-26.494022609640876,-38.50386098088786,-54.52210364739118,-70.37909195954643,-79.72936991406716,-86.56904248280746,-101.883162923064,-117.01907233282822,-97.14672591828403,-24.48290145671265,57.34385830636671,93.54998274757841,90.21265878951893,83.28469561257882,86.96029838795306,92.38273814218812,85.83464957718343,67.62692735179506,50.77374978037741,42.01289393273175,37.40290644696081,30.96400694118361,20.891620768735677,7.487671771859457,-7.259894437588925,-21.78333598471733,-37.14890526420112,-53.45959496064672,-67.77272107826867,-78.4097190894153,-86.81955191562226,-93.71791206500727,-101.59559999666264,-115.04337291797549,-123.9704275705921,-97.74140805765983,-24.34511027905398,55.83354676213153,94.4257267901477,93.96388548343093,87.30751748546831,89.14505708457811,89.93129999373599,80.58785869607219,65.65023937475878,54.07901862094995,48.068517054940806,42.64807007294517,33.82955075411746,23.568734665161053,13.50921195864966,0.007089181806213443,-19.003779719540876,-39.21754192179626,-54.513258510268635,-62.979094095157286,-70.4120202797166,-80.77549569373879,-90.54630562873878,-97.52779296654074,-106.35510055175826,-111.5181881411356,-83.17021659045335,-8.91376534498114,64.62238253892714,91.3364949431485,86.6415069657504,84.46454120063837,90.58488916336614,89.52821834217684,74.42764949819382,56.28887091625036,45.249153925269944,40.89020961614675,37.66079364900248,30.864363257792974,20.62525646688694,7.854922665464815,-8.760109780433039,-26.785634241872476,-43.465551126413246,-59.94784930365571,-74.13391509974929,-83.34734508825021,-90.44676715220388,-101.87193813817805,-115.46872134567519,-105.75224503009406,-47.21836325131335,34.353288162899034,82.44742691531678,85.17934632921713,74.27526474562333,72.07738256939804,74.48284712319493,68.76026889360328,52.448075024066554,37.02980858843886,31.356649227397764,31.587615766158404,28.963219823971894,18.777869810735933,3.2518598129480045,-12.652755332762064,-27.28066744305314,-41.95000987043038,-56.16694092988324,-68.27048762163939,-78.58334925671491,-88.25742157960373,-100.67567454147849,-114.2528497988643,-106.4286621832911,-51.2930078213596,30.51381417226281,83.31523383412087,91.6773512121916,85.12041465577961,84.63188066233344,88.3708206263459,85.69962912661627,69.51893731152913,47.7668867498503,34.25671197660377,32.07690942037376,32.37323948101052,25.575356559839392,11.058289280604937,-5.997388700807191,-21.776273244293964,-34.99767918097063,-45.82013443692496,-56.19893835378673,-68.67581986768957,-80.79915164482743,-87.88630509670114,-94.25761410087577,-106.37367598263523,-111.27520690508612,-78.59052227428121,-3.1761333723788723,68.50443980768833,93.93157730284206,86.69321421834495,81.38607308741892,86.76895615832485,89.34368493833381,78.820138006089,58.42056182254095,39.7709808327401,31.111762839039493,29.47556953695377,25.67559609464906,15.935602149176153,2.5226600695241332,-13.190680322095178,-28.76130938093497,-40.7650155445193,-52.755997205696225,-68.11068287155753,-81.87702206239732,-88.1927309990292,-89.83624312585461,-95.69016607417421,-105.65659241873152,-95.47294877843575,-38.203996094391115,43.4971557685927,92.34473934408172,93.72969063401824,81.48469246237907,79.94269577418973,84.1072607993346,80.92802749170515,64.0,114.0,68.0
85.74673346329207,84.96576797893006,73.62513819500043,72.68392430434106,76.0098754181699,69.90129498410417,52.38036957745923,34.72572000616864,27.34987485642514,26.85665298952786,22.278406037951463,9.205470527101275,-6.84156728547701,-19.30852910025145,-29.57369573290811,-42.780733239410566,-59.45126702915658,-73.87013232851575,-81.41414030604275,-89.90567798396746,-107.49495584734338,-116.55710037669125,-80.84818137609122,1.3463818924956692,73.50776597927002,94.98794796724039,87.36906547188892,83.35319683961943,89.04151241351374,92.08988484864955,81.27108460823108,62.07696741330529,47.438567664340624,40.57092312060981,35.887395212997724,28.434319774197895,17.307921774469218,3.248803386105049,-11.47096232732007,-26.067191993809235,-41.85718591155131,-57.94698218422178,-71.19134598801392,-80.99928566825585,-88.95552166310647,-95.64415084183437,-104.88514305052348,-119.21135502552069,-121.39044295377656,-80.54448006236464,0.83378748648513,72.26084733744021,96.91820284983791,91.4249434852686,87.11010225968666,90.10720757544986,88.31271173536079,76.4007786539096,61.689217085303035,51.90472677237177,46.72176224590816,40.45861731888751,30.848363259275274,20.721758059227668,10.174535931631574,-5.014429851739779,-25.00188581513769,-44.371192446877615,-57.51897618539303,-64.90360338574384,-73.16038478955183,-83.88640950945089,-92.73268764497644,-99.68505516957498,-109.18108279422971,-108.27041031196308,-65.41040549085825,15.37290556834295,77.58373509167274,91.43025553770016,84.85279644652131,85.90739736957542,91.7189793668342,86.34535616832973,68.85728441555314,52.213911851397164,43.510919736816646,40.11294326297608,36.15382610276188,28.164544926896436,17.24703117744813,3.457828429346457,-14.042743873795214,-31.70916286872708,-48.241466691001754,-64.4706314224073,-77.29803405954515,-85.34687688653791,-93.06416176233975,-106.23230678687528,-116.66252652542612,-93.97339223630964,-23.381211048903168,53.47641897475114,86.849420761133,81.89778109628023,72.52773120410882,72.8920374718165,74.08772697961581,64.80455204318054,47.28123644886575,34.3478411485192,31.208418247150306,31.458207604264633,26.821022272208445,14.608251667872752,-1.4700058612283704,-16.966296398682672,-31.473146078571656,-46.19925118081384,-59.9010863570431,-71.39729333126104,-81.34811029363921,-91.38378277506486,-105.00744156788558,-115.69953401099116,-95.664187644008,-27.961707176896716,50.69592809974048,89.36946057695016,89.86918496878913,84.1309483942044,85.67677222615295,88.77380116494253,82.3680206428934,63.12820245806309,42.594930657526405,32.69862311901611,32.43815372760298,31.359493267480588,21.977333758928186,6.159994296217344,-10.775132171197082,-25.880261810551175,-38.32337102648574,-48.72636814423734,-59.557931166629416,-72.48621719897243,-83.39875267012837,-89.36468943588669,-97.22672605245035,-109.77630023887042,-106.88034915809754,-59.95558039830288,20.639790863707944,81.05219149231445,93.50151964943754,83.91428865921512,82.25897205971388,88.48623803048098,87.75889829381379,73.49569900248835,52.31792166842158,36.14882330869611,30.312799128551976,28.94216273856307,23.41605963474713,12.328922720575976,-1.8080918624041522,-17.921820500626676,-32.585554017638316,-43.94824590204752,-56.92148061871221,-72.60469201704635,-84.54261623222916,-88.78235881048624,-90.75382628828586,-98.71990726225839,-106.39134682102663,-84.02299396149705,-14.56193101349155,62.952452089955315,96.56313500948596,89.91019462329851,79.72352358512104,81.21212404613975,84.32626551530716,77.91234822181937,62.36762876337991,44.73854434480825,32.30540797980242,26.43364061796007,20.63113103357248,9.773964764828143,-5.806546302300925,-22.896423816040958,-38.29035818383434,-51.89225686083195,-65.5470966628821,-77.21900343802281,-84.88416469221777,-93.70191492383829,-104.82956703990847,-97.46789584537191,-45.82389950929155,32.54896834593994,82.43397374224706,84.04807197670983,70.51326130510704,70.59897584717864,77.50315197257193,72.0018525347715,52.82708082307226,34.58080337305309,26.040402154177094,23.019238434965203,18.669180746525143,10.349708525601015,-1.7426053647799284,-18.150116376719144,-37.638181702411956,-53.124729679976674,-61.08897680421315,-67.79517351611102,-79.7930195189346,-96.19761926795493,-109.51082979217662,-101.02149270469316,-48.6490607301482,29.45884607929339,79.66811855042093,85.63578061689924,77.57930559543773,77.93333278342385,80.97721734467592,73.36075582585973,54.247487911022006,35.64830885137447,27.373333104858048,25.09155593851002,18.804990230946395,6.527217775593712,-9.274941970974632,-26.96987762341163,-44.02080175823745,-56.921937153242006,-66.48017149391144,-79.16329991801767,-98.68735198490856,-108.67717612424846,64.0,114.0,68.0
27.84902140295397,17.880273621365426,6.415778040745648,-10.477822207735418,-30.949608347549717,-48.96456632441908,-59.985837118792006,-66.94906707304854,-76.16344079607471,-86.80528742467273,-94.70389748407841,-102.17905329918084,-111.3304478842892,-101.26375142168365,-44.0177576891488,37.87013003514442,86.03323590482536,89.86958419179294,83.94107735503613,87.84271796008515,91.78903667326905,82.04187683411924,63.41849120301726,48.8713500252653,42.232437170410755,39.27421924271917,34.26828747596821,25.235222857736034,13.645362307573773,-1.2994859761982136,-19.31121314327755,-36.516139756503385,-53.03571078945787,-68.69260190519998,-80.01974685102294,-87.29928136673355,-96.22368545542639,-110.55769579008503,-115.01246338414795,-77.72371548737063,1.050198962961448,68.50549273421275,87.85641742861199,78.42879364493075,71.75605221783724,73.78601671550786,72.71473535580753,60.072476736791735,42.567697677503766,32.56921774973784,31.35053056168384,30.87998730386119,23.99845913291203,10.112566328711287,-6.110259152553366,-21.184163294513112,-35.70863438023876,-50.36134196092777,-63.43317878210666,-74.3976048149936,-84.09235570361298,-94.86523833982979,-109.27970555839877,-114.53758664955201,-80.48132087602058,-3.58216513170054,67.0828834922322,92.0282825959652,87.72106143063057,83.87380992970107,86.88369415023172,88.33515319208661,77.84089716485379,56.6319918335593,38.411194596053974,32.01259536660079,32.707137704324836,29.577722376151833,17.822786162705064,1.1909524208667144,-15.388351375213674,-29.753229256766414,-41.46616354509269,-51.66577452325562,-63.14481293601591,-76.12646560133606,-85.4950003872683,-91.02027126414355,-100.76528461346423,-111.98593928017573,-98.5236005257774,-38.13369596939568,42.54767384672112,89.16456318814697,91.23497724970095,82.04351695984872,83.88383781592196,89.55074102845764,84.95057175189456,67.55538009889159,46.682656451433566,33.47417316231078,29.90741535882461,27.99816888839545,20.665643542499165,8.491884981194213,-6.330912584628167,-22.52730888671719,-36.066832364806146,-47.30190628715384,-61.37584476534039,-76.76653998862683,-86.4925247651337,-89.15408899398322,-92.26498030298174,-101.92395211046122,-104.56187916111227,-68.17902891955976,9.87053450388936,78.27140687740827,97.18268107015356,85.9979247942288,79.12001643375044,82.60968093410864,83.65641458918364,74.09658641569158,57.133246011172844,40.37345281970272,30.130251489781255,25.08450578029256,18.086918937852857,5.642388626662658,-10.752997543745936,-27.609691334925916,-42.302038589893236,-55.822539543081575,-69.31281186888323,-79.7449604457423,-86.99474936134176,-97.11228961564498,-106.05816490363962,-87.47843633169043,-23.659862087991748,52.03400545558517,87.00706621913838,79.8176191868512,68.81187348856373,72.85161655560981,77.71666110599897,67.33574647990842,46.803616460686605,31.110451117856673,24.959872491144978,22.100329803621996,16.68730549573849,7.231439748313273,-5.9898138435904045,-23.694505216780875,-42.87023980297559,-56.06568983554332,-62.7616049853152,-70.60748382537953,-84.29383913939579,-100.8919251114655,-110.50519313971056,-90.73036927015522,-26.460774709152545,48.80430192512428,85.0357787430199,83.20027751380184,76.63563272764337,79.21937483830358,80.23299572599106,68.63541809875817,48.1899646790263,32.09983005557573,26.603524099363597,23.9558240952001,15.768303119373442,2.2332481911857935,-14.259776804640726,-32.13575186125301,-48.267443301789356,-59.81294047410909,-69.48856301973959,-84.28038186070617,-103.99878668731873,-104.78429364401673,-57.82770026725813,18.465709815022556,68.87384053970277,75.2631197699123,66.82459467275689,66.88139719107322,68.90416309266003,60.0388638099564,42.682095376449745,25.835586095702986,12.958352616718205,3.4959644188786765,-4.267367705300262,-11.882245632615994,-22.397108195891644,-38.460446735692074,-55.20958521813299,-68.03703819435734,-82.80313786299826,-101.49937212590567,-101.63751967397715,-54.44803303175525,21.648210431699123,71.2646939202589,77.02370562213481,69.99028409863804,72.7993369670075,76.27244811615337,65.52618816306835,43.91650653880509,26.579802953823062,17.660296930695118,10.162292839614796,1.4185185532705094,-7.21994325390312,-18.220080147817935,-33.318452714398546,-49.92543737150384,-64.3470493687358,-79.08366307756444,-99.21233999371782,-113.66045335880199,-91.14111806785868,-20.012934131402382,54.929760703215905,85.71220216739631,81.99236676989804,77.2909698136233,81.70366822078721,83.51548660737099,71.63731984286164,49.8782057995096,32.052869347433976,25.389688154209715,22.787215102253956,13.85771781636934,-2.140066046589916,-18.32910146662585,-31.9020816824745,-46.1526016162218,-61.51319350346849,-73.59696330101833,64.0,114.0,68.0
-112.95554562041187,-109.9166914702134,-61.27204674776016,20.194610116055145,79.18464061190343,92.1837965381219,85.81404262987513,84.27113018466622,87.98232593819782,86.8118657040018,72.31728102374002,50.42896570217098,35.31648639392407,31.96303165165903,32.607149272408634,27.01030691789113,13.25891495449908,-3.7497285546682293,-19.808975765105597,-33.394423096687994,-44.468091169129615,-54.72597078945055,-66.90924948405261,-79.42844663575859,-87.1891999662896,-93.10286352788584,-104.6158034491915,-112.14058978503756,-85.86638207874405,-14.368958922548156,61.23517787782635,93.22492747258796,88.14531070749905,81.32538750680702,85.85964093775968,89.66683847704287,80.99102409532986,61.31111777777565,41.75548921472281,31.680983966976257,29.63099226987841,26.53582521840266,17.505961069226963,4.45196413370649,-11.00600491912959,-26.87282982053608,-39.3084876818016,-50.95347565765164,-65.98410204319046,-80.41087000792811,-87.78433133649668,-89.56314450139473,-94.45876602337773,-104.7182910068816,-99.274072982059,-48.39673714170418,33.40027781224259,88.96845864728077,95.20995177120344,82.68467249171086,79.50949148613995,83.75597944809806,82.0128028537176,69.64309369937824,51.918663299387475,36.608899573813744,28.437773567972865,23.535889395608695,15.054261830519042,1.168882282763545,-15.734730158842424,-32.11031746716736,-46.213003541227835,-59.792122742882405,-72.80215102350937,-81.9429143467791,-89.40693154632669,-100.61574712293312,-104.95688910534025,-73.30400230336195,-0.32515489756968186,67.68634415807936,87.76115318864024,75.44975709718733,68.62197740051312,75.17299368372504,76.48455741529636,61.751908159539624,41.272178119933294,28.520241925418677,24.138582590913785,20.93690624299328,14.354035399141146,3.8164496681033913,-10.638284647365365,-29.40807280921667,-47.544903077840914,-58.39763925279438,-64.55842568363494,-73.96488587554916,-89.06709994322254,-105.10495707982189,-109.04530350810222,-76.32520363876384,-3.1955008878634823,64.44668437115898,86.99707378043274,80.55030428443077,76.63806683658024,80.36369100915272,78.32197401363904,63.10043858377599,42.547669739360565,29.550819631352336,26.06918071944735,22.282628232942834,12.279415791615385,-2.2966997898252495,-19.375296555402134,-37.15850577499866,-52.0890885002852,-62.513033426255184,-72.95646012052497,-89.99383212535137,-107.8117871813927,-96.53738585395983,-36.44475048376673,37.71574219559577,74.44041506457867,72.76431278572603,65.77669273291946,68.01153975377967,67.67204943209705,55.45476386929007,37.4891962930413,21.686676171736067,9.947912425700764,1.1468469184590262,-6.398357235059842,-14.427616081755485,-26.51947407735058,-43.594122033683526,-59.23684377507047,-71.71464320681275,-88.25300609071239,-105.04930525973468,-93.30618811491742,-33.05482771918608,40.72082810496817,76.55566398007234,74.66792058638673,69.72373788001231,74.57980125881106,74.90849301324903,59.73595989700983,37.94781858037058,23.375817635871233,15.644323935615848,7.670992627577024,-1.0495577575606827,-10.000942793278234,-22.200875645843034,-38.1611278029195,-54.37595208357172,-68.26105995636219,-84.36100797778393,-105.12496322013686,-112.37642535273196,-74.61376642958736,4.149402772328614,69.06759610077624,86.56089458405629,79.69403583599698,77.91694120995831,83.18669911992828,81.63647720845923,65.81723488788319,43.734403189460764,29.06196278201952,24.764832144944396,21.125725626287178,9.703564856210802,-7.083589968428436,-22.426953681273982,-35.797756552952286,-50.64084484803585,-65.51032984995679,-76.17038461976489,-83.37015949210402,-93.05675521263524,-109.95958022820551,-117.80068429420396,-80.59152000518178,1.5239117742178576,70.90644015108116,90.02403715858745,81.85610295335609,77.49380300373399,78.56791310856116,72.93834969465419,57.579746166257614,40.3529438794782,28.20257207816316,22.537859126137306,19.724662909572523,13.035734563823556,-0.05286875759862558,-17.628896931314753,-37.84480984083958,-56.305222799677395,-67.36448368072543,-71.99068368965894,-80.62392888076256,-98.68639952838429,-106.73613803485011,-72.14502199834457,4.179158995489164,70.22398814872354,87.74479522177843,78.68048791527843,79.51446159969608,90.09603945324912,89.20316034842615,70.95210376116108,46.5250729892993,28.075022476921184,19.87563750717169,17.42768462970609,12.1009452247364,0.1251256023000334,-16.19388511156422,-33.28214973064604,-47.040880475555575,-57.08625174843759,-68.04835214002783,-81.83780927136493,-92.99595174264381,-99.57912936806565,-109.18300398216721,-114.01742030571667,-81.79909812701898,-4.299644065373051,69.86797331134247,96.48270590756303,89.21034680306124,83.94223945843535,91.07346245786289,94.77824779456655,81.97216180110804,60.47777692686595,64.0,114.0,68.0
79.41075318249219,64.7329667880313,46.919539461666076,33.51043314665636,27.038538438725254,21.64539338462118,11.543525536885127,-3.562885496269581,-20.66409795048351,-36.38718248589451,-50.09554791154903,-63.750599635594085,-75.92012627088475,-83.9610940226305,-92.24449356029719,-103.71920077664059,-100.69206510080004,-55.250875668244305,22.579065828651263,78.84803957506813,85.66444039380649,71.79319663279952,69.74702676529363,76.98269909723368,73.74409575987035,55.67380509178423,36.49013359779829,26.683798734662744,23.386781130137212,19.463545582622906,11.686127055737833,0.08973468901944014,-15.693425283788834,-35.091035010827134,-51.53225902141187,-60.297770992001546,-66.67253070417992,-77.8462209318697,-93.95617907903073,-108.42642053082307,-104.40573982826417,-58.11842964435544,19.565745293701138,75.85264999382683,86.45498579580331,78.33528629321833,77.40648190510328,80.97213851477434,75.19454548899225,57.08288186824259,37.61910594473925,27.894057671748634,25.465699469775156,20.031843409003823,8.415593186031089,-7.030776371549424,-24.569051116360278,-41.93132301377474,-55.485852636067705,-65.19573425677042,-77.0427051310212,-95.9812362477493,-109.15378750791116,-83.77211036908213,-13.73743464216746,53.40783720395798,76.555679911094,69.99276775899568,65.70448339286773,68.88960907928075,65.31915781497297,50.39199000132787,32.525561525839684,17.893819824235344,7.1851856119648065,-1.1013923986328318,-8.551428818561835,-17.322980047234644,-31.130225111893466,-48.56890071040711,-62.91453968973324,-75.80315951244411,-93.93413165049165,-106.19202093286667,-80.46939452228528,-10.390079208403668,56.18904499434292,78.44093422862065,72.26146868701223,70.48002356734685,75.94420607124972,72.09094717713019,53.3560822516852,32.7056377149469,20.791127388018776,13.539468986633052,5.116501680810698,-3.500898463490942,-13.077806848711484,-26.524045526994044,-43.0257988196489,-58.56807847948064,-72.36163448279594,-90.18118269419189,-110.04554405164589,-107.0862339844148,-54.22001992992878,26.968854378122526,78.78209718081943,85.37212219984633,78.04007200951798,79.23786113315148,84.04631878165685,78.44953706346158,59.43059330774598,38.293064472579346,27.03494985087263,24.18224670642769,18.727927465974098,5.068107137099696,-11.850682131880529,-26.32757740400932,-39.86090153264299,-55.156547764946936,-69.11174422324346,-78.42275527408121,-85.56322268219553,-97.3191177503891,-114.68614511753773,-112.95031326534358,-59.62720838743376,25.750634015351768,81.46151768466066,88.6750611197499,79.56588746231455,77.78398314170614,78.04300480577811,69.26726092877287,52.37932089308049,36.16506376064705,25.95958823868618,21.723408018461768,18.438626430852008,9.851302849000533,-4.753332790448449,-23.311398632945316,-43.64685612061947,-60.41031940749762,-69.04066090347865,-73.5180997927557,-85.18713498124781,-103.55027251987298,-102.17096756183577,-52.76329973762454,27.038024309074125,80.33681089663366,85.86655335684442,77.09036258787522,82.50734894400135,91.73459402800903,85.39872751804467,63.893008672529014,40.21268191388524,24.70366890422488,18.95103577311671,16.5125796646966,9.281044372491333,-4.29124757125399,-21.234583544018236,-37.74200759103976,-50.1701430607385,-59.939607545887604,-71.87066913068861,-85.64251664897705,-95.10093388141824,-101.80989083017016,-112.24612274041264,-109.93063539072986,-62.801065911706736,20.328120905656156,82.89951739929963,96.14663057891777,86.33431243412188,85.14690631424828,93.39083308934457,92.82867580972615,75.88822954009002,55.01855077982209,42.26399629881806,35.40083370659378,28.37993199480575,20.02898046331883,9.015244862626062,-6.033069008496474,-20.845311335917007,-31.675024932034187,-42.254855887843284,-56.19828046906407,-69.40745609715263,-76.44661291523462,-80.27912183728512,-88.3228179583928,-102.74485413289317,-111.77825338534205,-86.53949714294696,-14.98169344433199,60.45169805365086,91.48873692833358,88.31773590827713,85.77747313832253,89.70620947373465,85.66666359213838,70.70411271766133,52.733851243886114,38.492959256380544,31.078629984734327,29.391600074560042,26.626855548589138,16.877620742045487,1.9835901699379217,-13.198154911530024,-27.578157477575232,-42.38346983564964,-56.709403530617145,-69.6710380109403,-80.83030667822547,-89.02230493667744,-97.10587886674875,-107.89892043813205,-103.57047508377937,-55.58806767476508,23.27064947516943,79.14093408203402,89.6068959639689,81.9205772772924,81.25404004939467,82.85491017949836,74.04204469806216,56.857182803095775,41.572477955211795,34.08564068052494,32.07183296654225,28.07909508060953,17.22768674725827,2.2234489522628937,-10.991857321082788,-21.721375457892034,-34.42438314183295,-48.77048848784809,-59.76771547362559,64.0,114.0,68.0
-107.09316922544556,-66.82813469128627,8.672638956369955,64.96792402958425,76.08276386475048,67.63946539617008,66.40015926558802,69.11065301372408,61.914474811855676,45.119343311951674,27.868129418089907,14.442447870098018,4.622589005062426,-3.2790219860917467,-10.793737049862878,-20.676256857470875,-36.1004535630928,-53.21020940992913,-66.41691246271819,-80.45686393398748,-99.31800137669866,-103.99410665104985,-63.46699279181421,11.919856153246371,67.48731268630794,77.84569712555272,70.48274077180794,71.9762504371224,76.4389172845688,67.87903572352157,46.84354735721132,28.315891123367987,18.601327897612848,11.267507331614132,2.57390819314871,-6.0135783079003415,-16.51028533474343,-31.126440963956497,-47.79120457786218,-62.55021541155101,-76.84455871750198,-96.35119823363193,-113.12095422479105,-97.25390716694973,-31.138793621814216,46.96884501403712,84.35606962635639,83.13451145173504,77.30259577159443,80.91761627494074,83.9504613693218,74.03480344766915,52.86033114136246,33.78350195838175,25.780530807178604,23.33759877598273,15.562045083125726,0.15778381369945368,-16.351390721214713,-30.140394825658724,-44.12483031245214,-59.5600049362505,-72.27999534039147,-80.46410456557938,-88.15706047692684,-102.25027464693723,-117.92941751984011,-103.38819200319641,-35.61016533973174,47.116929301428264,87.57439348181137,86.072561592854,78.11596410445448,78.26825379378892,76.66636803217833,64.86075681884641,47.27236341876051,32.51088650564344,24.24918976675977,21.00355469799448,16.659882328321736,6.148688994457977,-9.774663042531715,-29.17394096514381,-49.1482296334822,-63.776104052700205,-70.30182665538334,-75.7235142222337,-90.5126833652318,-106.81005863598831,-93.2536195967871,-30.499693226376632,47.38330479527653,86.02516826582688,82.86178057411101,77.00594016331792,85.86598526129845,91.90642258350512,80.24578285889706,56.67930565966296,34.64336311659672,22.201776819822623,18.320024148625663,15.139800617795409,5.904323204182209,-8.989146892571288,-26.24721861482252,-41.818949134866926,-53.04901434435977,-63.01231870913925,-75.90368272083789,-89.02305996007108,-96.90707708173777,-104.5355178749812,-114.40844822128952,-101.79254624035092,-40.38298670902589,42.9922569509665,91.38005629862239,93.87550950570545,84.42542311474512,87.2736097917639,94.88624804772294,89.34900637484442,69.48898959559918,50.35618894135307,40.00922356486775,33.52246878599781,26.097468383219486,17.2538860170397,5.000655936991445,-10.618173699559435,-24.348185224651097,-34.485003854038325,-45.97021685722364,-60.42136511102929,-72.13035577398362,-77.54329570514746,-81.91400210861387,-91.9917408071359,-106.96086843149723,-109.35829347304478,-69.7837341271069,9.286429474854147,74.72031735299625,92.37022970004057,86.52528048334821,86.85232858273778,89.83614278601362,82.18800383049849,65.44387299710279,48.04211247829425,35.5921720837384,30.212857814511036,29.074469606505335,24.599537748166213,12.859457072874678,-2.5126727299492004,-17.37527835125246,-31.801504381656414,-46.64833765928136,-60.59122844819639,-73.14164465986234,-83.49971005745134,-91.09242932007591,-100.18587662054803,-109.65400263260838,-94.8259169553659,-33.838557633633435,43.948869183832066,86.21265793373966,87.62529289385336,80.70330231585834,82.20310528128704,81.60313303269908,69.50020092415677,51.83511061309572,38.56053784120476,33.228039804163224,31.459909011558935,25.67150029868423,13.041309392743603,-1.9680193294800268,-14.169542270528732,-25.040909899472844,-38.62078026609118,-52.4373972180117,-62.192865566307965,-70.33219792916337,-79.63782959136154,-87.88930914555054,-95.97577034743172,-104.05704187619625,-93.71263984216314,-41.560495872775604,35.827507321915874,87.91970893185939,96.21119867566543,86.7474928859983,83.50515572789728,86.37345956370068,84.10361820138513,70.39071533440699,52.343420884643244,41.91107175596816,38.040407336864256,33.027517019929725,23.61819935477657,10.816203638744005,-3.356431922363439,-17.749223696206467,-32.08731877061045,-45.34411341141504,-56.595843036228,-67.48798529348552,-77.09873854340073,-82.84111946170462,-85.37646194339986,-89.51673936495905,-99.43359170817905,-105.09431942586656,-77.49063015239285,-5.620344943830364,67.7345563560068,96.73805829679672,91.24071746927088,84.57525414071016,87.355244134026,87.85458419916496,75.65725461010472,56.77701932555665,44.580218529381305,40.22575900140391,34.564995956383044,23.93276267820855,12.12621307421386,1.4597921114369674,-10.17747825881504,-23.017916409692283,-34.82349959519113,-45.23077886248826,-55.70215413331227,-67.2340025167448,-76.57552689934097,-79.98857764077499,-82.76639794298612,-92.16904043938935,-97.95758302775019,-72.924482208586,-6.67870074258229,64.0,114.0,68.0
-75.02926413370142,-82.43678026026465,-91.3458048927421,-107.54422747830418,-118.62905742468779,-88.8775214960882,-10.174395491330927,64.4553957410619,89.93670094941191,83.12918848836857,77.5235319556005,78.57832272958755,74.33509299631936,59.946281207163295,42.44506903974411,29.42818600440713,22.994292562600428,20.18645422903652,14.314036087952896,1.9954882889758963,-15.088347778849307,-35.115693355385304,-54.18250612295616,-66.39343735470426,-71.42697824767835,-78.84500869682005,-96.154508022878,-107.51906454119232,-79.80634768855622,-6.787433917869132,64.01818113666653,87.90243767414016,79.83304810969194,78.42847933027329,88.94111174622314,90.43684978772521,74.05664496374958,49.636178505826535,29.937261382874755,20.462840549263184,17.74218800727992,13.199549619665568,2.044421870861042,-13.889472068337986,-31.117161563933777,-45.484096600545236,-55.81139682209427,-66.38487730709765,-79.99016855137215,-91.86843936278179,-98.68714103638888,-107.67768371978971,-114.74934902222188,-89.15288721910882,-15.865727722981816,62.33559339479123,95.69594337730852,90.7098805848828,83.78946860289709,89.86665792604398,95.14967431521188,84.54206197368387,63.219658692413994,46.53026697267689,38.06308208615756,31.52514879905911,23.72227039871069,14.179570198467708,0.6564131570866909,-15.016530371714405,-27.491207343524188,-37.437778897980515,-49.994962200215575,-64.39866518967948,-74.25457757674573,-78.54532077031313,-84.07256181559946,-96.17943547722312,-110.25375766462632,-103.21912324861381,-49.2874280955449,32.25308489160838,84.51521328422544,91.28621070102676,85.52945194916889,88.20541760221462,88.9435076447054,77.91138794716039,60.15760507915554,43.78230048151164,33.312392208452565,29.743921027111433,28.450231628540763,21.903281705378323,8.540375639041322,-6.932096434059261,-21.509569378985613,-36.085474849071744,-50.82246349555632,-64.3619500070874,-76.43563832427017,-85.89280818386787,-93.30140353293643,-103.4992519658775,-109.39996470760519,-81.8114927886388,-10.48234266959375,61.25674583615992,89.5923390105835,85.10013963739476,80.40501482778834,82.94799905396425,79.26524537381844,64.47503239240832,47.22864246134202,36.266241361493904,32.693062056960294,30.47661133183248,22.63671960833951,8.650183730328157,-5.8702144114069155,-17.212188894143214,-28.6453543385826,-42.85444522189135,-55.701636924787195,-64.48245635489778,-72.95015335267719,-82.21954413680426,-90.06024200359042,-98.67534103656745,-104.28135245030101,-83.27533542388602,-19.695715868764506,55.410823664162194,94.15221533455109,93.8167639560944,84.76278508121327,84.15935423139182,86.72375850006796,81.27910901451004,64.99325545386826,48.28711593808879,40.48901886150906,36.95816250967409,30.774152440350868,20.166241096116067,6.795620885466638,-7.521087148876817,-21.90108445481548,-36.12274998321806,-48.747047629431556,-59.73348734654923,-70.53187436168983,-79.2133458158139,-83.75611398382878,-86.12967123149512,-91.81396573993497,-102.55760633901403,-101.8760342693257,-60.36028096871087,18.212349255465067,81.31808065356576,97.11552946143141,88.35649888568818,84.69744888058369,88.41999336444285,85.70845769898892,70.24117398713635,52.181641764871095,42.87299171796577,39.085634811917636,31.910186480228745,20.433515529996654,8.980369530659209,-1.7080759816257505,-13.859073053063746,-26.60679841360657,-37.92776302772942,-48.165201011083724,-58.9681919736561,-70.4089923670717,-78.15016745882488,-80.39218717116185,-84.79999831681963,-95.26514842744771,-95.073687885644,-57.32037368203231,15.99269604265173,79.65503930112952,98.91962822411489,90.0780077681968,80.54081740140072,74.88024788383493,67.01940297322162,56.49300855743063,46.2306384392955,37.242471873747924,30.774692897435006,26.97143593514902,21.632426109911687,10.067990323623308,-6.550570026308373,-22.995506920250875,-37.45745698037175,-49.478841629510036,-57.844138352634076,-65.54454636256442,-74.42224398798386,-82.88513130971647,-95.13305971614447,-106.12021267594271,-87.23843411252622,-23.934976129142846,47.70431583784693,83.05809833049811,84.43846099692908,78.4093857166025,75.58743371487095,71.87521499708231,62.635784295813494,46.80437953448413,31.61219328335131,26.4291372267827,27.678391911607704,23.108004973454534,9.19860034931202,-6.289086912522203,-18.63441882224208,-30.155823835800184,-42.613138488250044,-55.43398577265607,-67.1303035717549,-75.21724066890678,-80.99446041669815,-89.92066593253259,-100.46106815680908,-90.27389380889394,-36.43869343497594,39.181296809308044,84.95877238531006,89.70250382051853,82.89221734857125,83.59430434849527,85.33594657423919,77.11633070177575,60.834818924236195,45.64251589034198,35.12568174627194,28.218099658395534,23.825337292365568,64.0,114.0,68.0
57.443835513526835,43.46382686356161,36.24039002453058,29.39912768495595,21.231632056282912,10.736407096001399,-3.90175486676896,-19.095222573187037,-30.38379847786509,-40.65848388671337,-54.22358232264934,-67.95075360361315,-75.85106119502034,-79.66683137908755,-86.83610790098751,-100.66925253615547,-111.84986506869713,-92.82480284620812,-26.142231344637377,52.41818903748936,90.12398700177503,89.28951019256107,85.49553906749115,89.36175494238556,86.94734906053858,73.06499400437906,55.01637593750682,40.03250749604747,31.649338805094708,29.492295403716394,27.339670826343337,18.58718772416248,4.064997374710313,-11.245025173749923,-25.652763059641348,-40.39869528184955,-54.87999258456722,-68.02315384016354,-79.50405617061625,-88.06538746637311,-95.81492492289675,-106.65878554010713,-106.23438408556446,-64.69247479397659,12.912431748866032,74.48608913059515,90.0863013532121,82.77683238373345,80.87036313549602,83.08462718687528,75.89750316112215,59.2535037318139,43.20253496295713,34.63879709713876,32.279759943201164,28.97424610802187,19.042001164380856,4.227824160060822,-9.446327436351417,-20.267926140787754,-32.54331930476647,-46.96190818394156,-58.56471318435729,-66.77523278550764,-75.66975116738939,-84.63104696914759,-92.3232575464925,-101.29817684032281,-102.25752585989403,-68.90526893770914,3.2865830368916873,71.56869792303351,96.88574836915338,90.82510887937627,83.64865043277018,85.10796430972746,86.34823111532548,77.44376495789258,59.563787216709876,45.101161191138296,39.42242369333247,35.615909675206694,28.127425181252242,16.486809848852857,2.70118767082328,-11.68231556099552,-26.055348707237105,-40.01247182463428,-51.99418011700676,-62.89139011726328,-73.39762105548927,-80.95273304178897,-84.46326558033763,-87.17223071204562,-94.663162493203,-104.86271200155493,-95.01702277441555,-39.7088878270077,40.569382037315656,90.50976700146856,95.42728066669265,86.12153559584513,85.54270540615317,88.8886826974948,82.36517380705672,64.5993669116964,48.44071827988303,41.666495531858594,37.59036771296125,28.858404215840796,16.96979702481203,5.924422325899247,-5.029426750849306,-17.599099008957246,-30.05419144833929,-40.93528711318201,-51.15242438625006,-62.32808724098168,-73.26234104817512,-79.18031887155082,-80.99691033085064,-87.49606424251473,-97.57139941809132,-88.85011394457413,-38.39136173678066,37.783758484778254,89.91683942060602,97.73443833524622,86.74932017059479,78.78073187220402,73.00729256719055,64.10731813891861,53.42329340481759,43.47342333972204,35.04182411821566,29.507377653559097,25.849442429610594,19.024764239771347,5.553453447335103,-11.491861486717042,-27.364879164144895,-41.26173705296733,-52.2360661923331,-59.93286514320915,-68.08674079951052,-76.8467643522543,-85.8137136229881,-99.36195517672589,-105.17242459703817,-72.85390102581391,-1.574757352270109,62.5382736253873,85.75429865874096,82.53899200899974,77.33250661868256,74.85736072992428,69.91821730278832,58.6093075232885,41.820164031807785,28.932100117273016,26.658287060965655,27.399426700879637,19.817658385904075,4.4992978490538915,-10.145459606261953,-21.907921191016943,-33.66473912656521,-46.31742281721051,-59.045984647909165,-69.89567104266705,-76.91481587951718,-83.02713318663686,-93.3633795947095,-101.06634916249588,-79.35800578240125,-14.486090371779808,57.16419678787296,89.54970356707246,87.53747710123517,82.24021379662312,84.62452558396541,84.17904435135759,72.84006599560435,56.0081126812792,42.15634243692386,32.8011829667025,26.77108268567669,22.64173292121507,16.55300243696344,5.323351892519657,-9.563466529251631,-24.87139269309301,-39.79618195056008,-52.993064408519494,-62.82642691458927,-70.8498623232343,-77.71480037400862,-82.31839850825018,-87.99411169725204,-97.83173121314837,-102.74964481566866,-78.51442593011511,-13.49988498587752,59.10994148574346,92.84310660760859,88.52645767673937,80.7622301222225,83.58899430652873,85.42885150383114,76.2565045924128,58.47816758519648,41.72305160853108,33.236245450017115,31.538436082695515,28.150856417824176,18.904686997556677,7.090411771280638,-5.66221777939435,-20.50717677144787,-34.290057629311264,-43.24836949295335,-50.710662730858964,-61.49393481491736,-72.74515736043874,-78.7014797247433,-81.73775771576094,-90.15615815336561,-102.00443487247469,-94.3007831681795,-44.67958110045072,29.795524851586652,81.90807159430436,91.41931515506585,80.95825055340812,77.36468795506275,79.93816167881575,72.7678462099509,55.140557715294605,40.919488337445806,36.87253898201073,36.638124395453424,33.81012246449285,27.6893827772377,17.654286219972875,2.6184794087618424,-15.721793607389738,-31.732215377258967,-42.1316456339169,-49.74975009421772,-58.242562399023754,64.0,114.0,68.0
-61.100446299785794,-69.17495729985558,-78.40164654256927,-86.88471435352396,-94.77508035869424,-103.41603836154516,-97.22325792349807,-50.89744507803644,25.917293898951566,83.71530156618793,96.88682363480213,87.918674184104,83.38288650432109,86.03781584010744,85.04883117991665,72.7616830449081,54.480818667200154,42.75156436752151,38.48430722643626,33.932276590277034,25.116186353652644,12.63606987041059,-1.4390769029329205,-15.83573568021274,-30.194818821086997,-43.709628167647516,-55.15157986676006,-66.04809142197917,-76.00375961643799,-82.32334234108687,-85.08193623814836,-88.6535910759876,-97.89948125797339,-105.55713791235473,-84.01027477610192,-16.65527462305665,60.031694893106064,95.59812761310792,92.64644699747765,84.83037012424307,86.77014972863395,88.43718562232185,77.96777203057944,59.135318547470895,45.60368743318577,40.68193737191195,35.632604915672765,25.52615930122264,13.621459803205385,2.8815004855610136,-8.518065881310067,-21.324422627642974,-33.3511787520269,-43.881666414430406,-54.23812268803845,-65.70408996823944,-75.65536262114121,-79.791248708933,-82.06421214649296,-90.65566470792595,-98.34000991456976,-78.8506657234876,-17.023304738635318,57.32183600232166,96.10609637349603,95.05483767458163,83.85093518336147,77.22069838082996,70.8117861378635,61.04471997724876,50.43352296730951,40.82989705160069,33.10054557564465,28.430918802452233,24.452292559568832,15.809318799089262,0.7274917606610449,-16.295786697119752,-31.57691574050258,-44.82645236413855,-54.6723695948614,-62.098601520342385,-70.69395680485374,-79.21566762715007,-89.25106139566545,-103.1245200891869,-100.82276339280676,-54.82230413651223,20.07779384397924,73.56055089769433,86.2027437129349,80.64435079179641,76.53908747736517,73.90375193803737,67.40773807800208,54.05051960338831,37.17661532025004,27.256086992386457,27.168385993325572,26.326629082919734,15.81915295706586,-0.08238810231410364,-13.72529506793865,-25.202781767642882,-37.25870380231734,-50.033632746924525,-62.50902324623174,-72.30070740849817,-78.51249702022952,-85.48583221316795,-96.76091022196978,-99.14933590550291,-64.42918923348087,8.128465895330761,71.42920602893707,91.0928740219291,85.27946746480721,82.38747449500137,85.3876754411454,82.00406237200838,68.0854644069952,51.496024778978665,39.05501096485067,30.750438621965323,25.506008866167885,21.291942289305588,13.861535846425923,1.2332688024634788,-14.024691852107923,-29.23274179111002,-43.90165489115995,-56.16671869409251,-65.2253757774927,-73.02989985203283,-79.23369591465095,-83.60510706070734,-90.48088535816814,-100.6319046265545,-99.89292981312815,-63.360405162927776,9.141998951838625,73.97475213188225,94.08505744763245,85.31824827252377,80.75939317515243,84.88264167221901,84.03016841275756,71.62918612064723,53.09742772186528,38.28376869146867,32.37738465177557,31.090906644944766,26.01831100629581,15.574347420437682,3.57036200591749,-9.767064596613826,-24.845570850644126,-37.37743418991788,-45.26122971210217,-53.44159068402842,-65.00850234907298,-75.11522865650664,-79.5172452741933,-83.34304170471475,-93.86670022251096,-103.1627755492092,-84.4820019886698,-23.751761887743843,49.0001022411745,88.61747047233553,88.92812065750084,78.64873212337349,78.19566517553257,79.34647640141891,68.2265877542433,50.090027403320256,38.815952964883905,36.8219503190443,36.18377726234237,32.37140194764504,25.257035389760773,13.832255116642251,-2.5409864771125075,-20.85130523300291,-35.280574331585946,-44.410255345812075,-52.041581975491624,-60.90673730184062,-69.73489778103226,-77.71279064240206,-87.76907078489424,-98.01001049831937,-87.71148169471941,-35.29360114749273,38.03368497977838,83.09912704207018,86.38929705247611,75.54712944368723,71.36933054094176,67.7887255909302,55.34036011263325,39.78804813878459,31.187402832712745,28.006650780625662,22.227808540185443,13.893567199346194,5.9061420573352565,-4.268527354564848,-17.726760159431734,-30.79332511743832,-41.56731449290726,-52.08062575088638,-62.3225970925625,-71.19004893483287,-80.79149476915974,-92.52966666827707,-100.85715690504531,-86.75814514566405,-31.214650073507155,44.43670965974567,89.55829271252998,92.39698822396032,83.50593894884936,82.86984921891879,83.24446115460489,72.98416335269273,52.68035700055101,34.661017636070554,28.355982220627077,27.06740873563325,19.60790880343185,8.100958261311936,-1.26943290359859,-11.821231577185229,-28.231964625310965,-46.89455283453037,-60.96368348602642,-69.57489682748364,-77.67426224243455,-86.88458389044173,-96.23613545329997,-105.47241880476587,-101.11026830814484,-58.89199340989222,13.298477730228514,68.29557249733212,83.25270330686236,81.91620621393689,86.27021332862535,91.31124519372841,64.0,114.0,68.0
5.561143900678843,73.51575046257396,98.71448269627449,91.68509354863697,81.4742608454959,75.65466387554396,68.28439232623904,57.926956108623756,47.53521053499564,38.3323752869002,31.443621698884314,27.43813315588407,22.640006534334358,12.00260978503788,-4.247998737491161,-20.92330308962618,-35.638865408804236,-48.08937189267141,-56.8739915932892,-64.41811633521374,-73.26779253024395,-81.6708059105514,-93.1946397626826,-105.63406148860898,-92.49223535879031,-34.07231679445303,39.66857173546359,80.84579158777838,85.19294743381757,79.0284970382122,75.88552637210506,72.61202203969307,64.28696643578594,49.12885819715246,33.17404304211141,26.510381944933588,27.601220120477702,24.337527846520405,11.347386406708425,-4.403761364461544,-17.1117547846528,-28.57091645623717,-40.91395466275774,-53.739266830175964,-65.74018172336221,-74.36412713528225,-80.1666031817137,-88.4219956493359,-99.56368181043042,-93.9452050683319,-45.931737558386466,29.861096338645737,81.61511653437861,90.46628629161837,83.4764222626747,83.13382501329535,85.54321191987864,78.85660751108506,63.12200011929083,47.39036193730174,36.294256336321986,28.960273822041287,24.34906388523181,19.65630668374083,10.700190286979177,-3.0766764293915205,-18.45682997463115,-33.56917987973869,-47.798438909047775,-59.04459383905856,-67.5446220405139,-75.07953004205841,-80.55367881372477,-85.12297294245633,-93.3446477281894,-102.63109559919741,-93.88146917639783,-44.840650186968226,31.102295051273856,84.66750327945792,92.80097335913017,82.71505217096589,81.6023865404545,85.69103639319088,81.58310754291426,66.4598550172376,48.060695242598996,35.658214930308624,31.937347079817865,30.27127947276164,23.391255912059236,12.153084275368755,-0.05273703347424971,-14.063956558787915,-28.956287149795664,-40.01296845911174,-47.31521616035054,-56.522670219911234,-68.3979123224484,-76.93128991788925,-80.26107898249704,-85.6137825517853,-97.63421959900568,-101.91179569334473,-70.80479684879468,-1.6880467953471774,65.11423685268677,91.78889024934064,85.63099339386595,77.38821175183087,79.19901083718268,77.56536002373473,63.03797645349205,45.709375105151565,37.56795954329523,36.84429236382118,35.43070172802891,30.672812377775962,22.462350615742878,9.572155843433043,-7.890784621565503,-25.619731779698,-38.3457855602436,-46.57416654576864,-54.471243637214336,-63.56279409021201,-72.05610660627778,-80.2482880701972,-91.21975107851748,-98.48605330559234,-77.01356552984625,-14.04401475917719,55.64025229183396,87.53136137089353,83.26093700664866,73.52108001959877,70.90162366534031,65.14245235172017,50.613000478754735,36.383543703201646,30.097899068851408,26.808601970677966,19.870942067531008,11.58086139925246,3.3482144269891494,-7.9293043296840375,-21.7240914166885,-34.08552718017435,-44.54919869260333,-55.15912070763916,-64.98766999586985,-73.75754827960415,-84.0192787188195,-95.83487129668859,-100.24946149283092,-75.08062545606973,-9.162522363279981,62.32040995349195,93.72573610051074,89.56485004422082,82.41677325437966,83.53045102899384,81.62807369680914,67.75262251914393,46.59175508682463,31.612215885705396,28.098091080083794,25.740757573766366,16.31229126913821,5.134883452021311,-3.878797555932898,-15.95747725066186,-33.72465620203027,-51.637852098749356,-63.83336367678796,-71.76675682689299,-80.29908305384929,-89.53463774645722,-99.10534346834696,-106.74537827436794,-93.4721046219807,-39.3684249276396,33.01431614380916,76.26568043864833,83.06886788650083,82.3896385520088,88.26217990290428,91.16718636355951,83.55805303855766,68.11869006472224,50.762809601177054,37.56918010385686,30.45650992718782,25.82883952633861,20.226081679936456,12.472850300065442,0.9434982854812576,-13.900017704526714,-28.002773578066034,-41.264164635502596,-54.545603074929694,-64.40884417933795,-70.71924230136791,-77.81120205525097,-84.0900445351679,-89.92326005857768,-101.97417468272667,-109.21332406174736,-79.56442632576672,-5.1218764106880315,68.67440910977197,95.89341520706378,88.63613003163809,83.01819486802498,85.85542994229621,83.99079046055691,72.632745469689,57.931779152780464,45.93504856680529,37.34029156758252,31.542470780027386,28.2314907645628,24.531330844905053,14.95759814421941,-1.5018348366034437,-19.005277115563615,-33.45204933724225,-46.24936990337632,-58.95944090347947,-71.42071857444283,-81.02441193947062,-84.38434217540917,-85.92280342692078,-93.46030988422,-99.81605246116537,-77.63950056208012,-14.520958812531108,55.69599751544299,89.90443671773511,88.47144809992439,80.04704340182556,78.59704627678263,77.58118387789733,69.25720910026104,56.206932643499,44.1225737714313,34.75376796966832,27.692196467991533,20.77655445098145,12.856841784589067,64.0,114.0,68.0
23.20055431985258,17.634686357172527,7.106881861361421,-7.505593476683769,-22.853687611425084,-37.85297742750574,-51.42416714401813,-61.67672856237319,-69.81793128249997,-76.93596429984109,-81.76316631050722,-86.99228419497756,-96.42032803616397,-103.18167199932195,-84.24252584939558,-23.765290746788732,50.97999418361434,91.15943269872075,90.02687608322131,81.11914061763761,82.92873358209964,85.72750574114187,78.14238483505846,61.01040121298491,43.56735607198988,33.832841772157046,31.671339212144627,28.948258498027812,20.383110123408567,8.694762718612886,-3.843908168524265,-18.471270990139406,-32.70784994292944,-42.28463027278355,-49.57014289339121,-59.88483512524655,-71.4750956565252,-78.2377041187127,-81.1838930032342,-88.58128926758638,-100.87993429023736,-97.5303309888014,-53.60602777671481,20.164147708721188,77.51473593884153,92.05434971571029,82.31591247765458,77.17136966379125,79.86979364198335,74.54575038709794,57.609091791431275,42.20926623156732,36.984097277209806,36.75374505879654,34.385135975113826,28.69969021950986,19.268986869506765,4.897897635246217,-13.275068898814645,-29.92176874479485,-41.00915076058218,-48.73226669510293,-57.030178624525185,-66.15043909751309,-74.32108507609863,-83.0725226299053,-94.52449178626722,-96.50316049690286,-62.4578971447233,7.851468278158175,69.7066045858608,88.733078620287,79.84264705556741,72.26747053427599,70.12031202140973,61.64120202563505,45.92750513316086,33.74621847835879,29.272081911092798,25.21832721123121,17.41958320514352,9.316036279806358,0.501127083433382,-11.830147483463971,-25.570049265548985,-37.195328070932256,-47.57704481098341,-58.16455982029569,-67.5370046379265,-76.46828754884397,-87.42895398347113,-98.63515349235603,-97.13136925890791,-59.61992281316775,13.46025692281316,76.42823094539655,94.72538362752347,86.67775749184605,82.18425135056818,83.90360983452604,78.91521781118537,61.8417333296287,41.079455786793055,29.651224566673278,27.91691484840942,23.702524782891775,12.891617019408796,2.4315001378199206,-6.770478063777338,-20.635021693987696,-39.23168470510478,-55.84418164866683,-66.3176553733947,-74.05903734019027,-82.97853391635587,-92.20243261618175,-101.95182813261006,-106.32311872754038,-82.0851762950706,-18.09301188536844,49.95057128472942,80.91209027090223,82.41278051511551,83.59494318154337,89.96668902667503,90.06562802037767,79.65648509541037,63.01654939476878,46.31077055587139,34.980404273597756,29.07112021282397,24.385535899092343,18.250726814499615,9.615049935970573,-3.18093221331624,-18.16720888863406,-31.811616126306635,-45.196282295554404,-57.90420941713193,-66.3953434571934,-72.60647077645348,-79.89451030273727,-85.5043766328436,-92.68693787014105,-105.81786671741706,-105.75632300228762,-61.52735831750507,19.05664185757508,81.97101946541844,95.53859514933436,85.83301388649598,83.48561044399653,86.2992857230229,81.53245704728444,68.36518652524616,54.07400747270972,43.145330333510266,35.3806719871574,30.37876690899,27.437038656709987,22.568341400822018,10.734816638255287,-6.753969952315358,-23.50060997491642,-37.20696730585357,-49.91781756416254,-62.62679552501537,-74.69929816867159,-82.63503693118426,-84.60038855266025,-87.3470684551822,-96.38662723599394,-97.62368907924233,-62.97036033130237,7.391275443946079,70.2542666674719,91.97961194643746,85.63006079356796,78.95676196069063,78.75137236674671,76.00696358298045,65.6665123616752,52.47042224925546,41.12535535381784,32.54718624651387,25.777893202399838,18.59080301487563,10.3443231271869,0.06725200284988891,-13.533801068440544,-28.796286213651946,-41.568785228799086,-50.665485804939586,-59.38462016208106,-69.48834596122457,-78.91358521942287,-88.21574238247558,-100.84965007306202,-106.59829995381052,-79.33262931763736,-13.232567223379384,54.262009672394306,84.32316528923519,82.50306476147696,76.65890055314166,78.31930285557745,77.64948998127721,66.12047542227488,51.39355008240232,42.62170967074872,39.322481338871164,35.71617778073793,27.121502803253627,14.49310792788102,0.44904174419835946,-15.070230838056712,-28.440665976846745,-37.53005802287537,-49.580765329884514,-66.59252155789596,-79.49549581118964,-83.75992918727198,-85.71311710494308,-93.87694771871624,-104.7946580469363,-94.69017239303543,-41.69583016359877,33.905616162762996,84.14284349825185,95.0315951672306,90.50142115503809,90.7021756496085,94.53796046658474,89.83613091848567,72.97053302242735,54.33405724601308,41.89625279335027,33.92198573092762,28.396042855428608,22.83052359994578,13.103686894563156,-0.2229590083386919,-14.257110629843899,-28.184081279856805,-40.412267287205474,-50.58459509043031,-61.623707806030765,-73.27595319648209,-80.93317342439698,-83.11740709607449,64.0,114.0,68.0
-59.675369953952796,-68.6308095799936,-76.61526583737117,-86.22230541858751,-97.18245324656037,-91.32904325075226,-44.4934196510525,28.95182296178399,79.79669391056726,87.51509517278568,76.75108433130981,71.58264364495182,68.71062354552151,57.441649992060576,41.5954265347606,31.84804303998725,28.44928598706178,23.244134876211906,14.988538160828323,7.011943015626559,-2.684508209890998,-15.859883287414693,-29.199802125243963,-40.197267358283476,-50.65403877729704,-61.04478541488968,-70.03412668297024,-79.37647300409327,-90.92853225484906,-100.48180904530109,-90.856983628386,-40.79834613914604,35.14897234011865,86.36710283187274,93.46762394119834,84.31818528292622,82.57423626264432,83.64907600536166,75.09513441510462,55.580900868820514,36.444660241546536,28.60681414573746,27.45475780628032,21.01783489352567,9.562138110403321,-0.10880933623142429,-10.104835449804906,-25.7594325609995,-44.55378340373226,-59.476074697315106,-68.57008767447218,-76.50011931540598,-85.65743281601473,-94.94041602624361,-104.50889607224902,-103.45422119109124,-66.98600811835492,3.573869647380023,63.37637219568871,82.95030774875654,81.9448101447746,85.35516835137625,91.07016845216612,88.02834203500724,75.23131005556672,57.90591405431003,42.35018423624462,32.877022191062466,27.769834120755185,22.80807025827872,16.081536440289632,6.377603341831785,-7.505439655035362,-22.274905809333116,-35.61369531173825,-49.10726200723062,-60.859950532788424,-68.17172431799614,-74.65771476377971,-81.77542586611253,-87.01406157719622,-96.13795705449047,-108.6843535869642,-98.32182148283059,-40.06754321296217,41.580334235055766,90.66972613993237,93.24462908435812,83.92013579122843,84.44207013833736,86.00492450603068,78.31762111601829,64.0317559678531,50.534182392937446,40.61384365899463,33.65082264747257,29.413060134543723,26.49651408246959,19.973332326973196,5.995739186167649,-11.904536433074899,-27.708560962312355,-40.89452978575739,-53.59110432579896,-66.26650051720378,-77.62865455828256,-83.67153543807888,-84.88019120893918,-89.44067430622141,-98.7990964001035,-92.22979446986581,-44.962205062873466,28.595990657158854,80.99846619077647,91.62201661454023,82.94271209050447,78.51601200977353,78.65508180690716,73.71606008139206,61.849535161299265,48.918265705210985,38.36475923282307,30.507638446818554,23.808774361975434,16.3234613743225,7.668066364857718,-3.5215208183417093,-17.94264268151196,-32.902809732390175,-44.47729738899352,-53.05807599016093,-62.21218198349053,-72.37609025067772,-81.42434742724494,-91.54236083229861,-104.26388193503354,-103.15962941075767,-63.28181628311212,8.420656247548571,67.45382232797486,85.8320726526532,80.22305505961326,76.52153529586352,79.02089789917127,75.35565909216884,61.63505187579707,48.09555582456602,41.32101724625888,38.59081115365991,33.825529006648736,23.714059315609546,10.575170152969086,-3.9347801086428165,-19.41197902158571,-31.316597751644995,-40.3421566061843,-54.2872704855179,-71.15949260921369,-81.50641755097367,-84.11164842264134,-87.231420776724,-97.4386827817914,-105.42418302483856,-83.90998352748531,-20.034664921952196,52.681806210462724,90.62845747431318,94.04703119559963,89.73486012502437,91.93384716496439,94.52830717143925,85.93111632661068,67.1978662064816,50.06942136723301,39.27701412110987,32.117650773616035,26.998133112615395,20.542639167857114,9.467677334377136,-4.265789493216077,-18.33049027925341,-31.97982034270064,-43.46493190222719,-53.570311840240244,-65.10406245418505,-76.0867851322509,-82.01770376482064,-83.27881407842965,-85.367824546197,-93.07581274607175,-103.48437770677812,-98.59692795449062,-54.13052173161565,21.890910329073908,81.26494767220079,96.27964759470356,87.96865452363848,83.91374727160913,88.61443481754425,90.42150285252178,80.08529223746953,62.03820420740659,47.19632137647003,40.20501499557455,37.219866749711855,31.805000054673314,20.568664234246096,5.650487542573676,-8.975241067426445,-23.0544242865822,-37.58473856057205,-49.33665295861575,-55.54019900687414,-61.66756306418454,-72.02284768958536,-80.51874377300982,-81.2998713812762,-81.90827592709559,-91.97784349797253,-97.22644983644182,-64.46179069831717,9.598723822319743,76.42788634035873,95.46845555155616,85.35343737863795,81.16759765208252,84.63110423209982,78.9753735747594,61.67623148633939,45.62879685300445,39.83800911916961,40.54768025944267,37.86728493137768,27.99087577765562,14.117248096714638,-0.5384253337118866,-13.567247039762407,-25.23938823261888,-36.48565057441201,-47.48768960702339,-59.427126464525685,-71.95014676794482,-81.59644901490705,-85.88579312326998,-88.65911860853001,-95.69269127736644,-95.59821213473221,-60.18378913885917,10.587157915712542,70.5685086638506,64.0,114.0,68.0
91.35077636672379,85.1416812617979,70.42393221098452,52.950846422499474,38.94631389537942,31.155396931651115,26.45740200891805,21.078266729249496,13.67693048626028,2.7435965837931287,-11.892080967979206,-26.22391832590415,-39.465745030393215,-52.88445989216197,-63.382619141505344,-69.89907821419442,-76.81433112386878,-83.40794024509343,-88.87805663466496,-100.09204225020999,-109.66211619138775,-86.50118169908804,-16.38137061640906,61.036241802962564,95.09358833568528,90.10531907602667,83.07076202576842,85.46946289381299,84.83479693660466,74.52151221795481,59.80667584702836,47.31593722469219,38.32039639024511,32.15413855094651,28.58837366878705,25.251579361254787,16.696047724469437,0.9080783579032479,-16.8303229274917,-31.680814961309075,-44.55994725312989,-57.2658123540523,-69.82809137707982,-80.08143581811989,-84.23570940024777,-85.47814668648209,-92.10909146220429,-99.94426503119122,-83.13632425896787,-24.478936335737828,47.80684728196069,87.9145284663988,89.67555271812851,80.79750231715262,78.5198920049279,78.0667932465863,70.78514067315099,57.97491837699933,45.58314075827007,35.84056864492891,28.570649042059234,21.754660834310165,13.973108671003597,4.7757039210959,-7.405042159844484,-22.410899502196703,-36.69069989540382,-47.109051024896566,-55.52628013349287,-65.14973395744998,-75.13107101460051,-84.00862851635374,-95.22986079771034,-106.61794699885382,-96.24630887323909,-44.2608777773757,28.879380100153934,76.89038241660452,85.29795112582595,78.27306802795104,77.03150564853972,79.1301060012488,72.10350790765403,57.2091682514307,45.43006244057473,40.377838932582875,37.671475988609075,31.439467818964296,20.06555316039646,6.561862554709186,-8.447950567684892,-23.415371778972453,-33.87711618334291,-43.65655103016867,-59.29914579123975,-75.11047125538316,-82.7999880355612,-84.51532707285577,-89.44731624171736,-100.96922985426137,-103.50901283459247,-69.21741675271029,2.4564228105626547,68.1804223168007,94.05152672981583,92.53412693855968,89.65871954431218,93.23886251853855,93.4832091420761,81.09029757079193,61.62905390751258,46.3908405332468,36.93443177361391,30.50442326473219,25.49387557330176,17.820659384998336,5.612231325158436,-8.318611192261093,-22.386520659570873,-35.573880335691115,-46.377988169906885,-56.71974554312037,-68.55909945184122,-78.43594577167104,-82.6750103404351,-83.51400947939182,-86.93401791220302,-96.26868960369876,-104.84681936464483,-90.44289708625772,-33.69082994181765,42.98358604426854,89.92707983956495,94.73840264119994,85.69249591464835,84.73284859562223,90.04978791422266,88.7509048353751,75.17528039880473,57.021276745143716,44.423433037348154,39.21884037281029,36.154735521652086,29.16055913374128,16.433207532029854,1.2950013320470344,-13.016368980597063,-27.252633404013846,-41.50124032467854,-51.60805205483312,-56.95817884860001,-64.31583753489204,-75.09523879672243,-81.48467449106836,-80.86907337220623,-83.85634795823968,-95.41193178771934,-92.86068138625967,-45.91521498141057,32.366060295063846,87.09025502795808,93.6458907615261,82.72442470357433,82.12627271739119,84.4789355202568,74.73428883821214,56.29159744974774,42.83671043596217,39.803659473918096,40.49076832797758,35.6626598593016,24.233167763423243,9.830197459110202,-4.516217280971318,-17.012171442567784,-28.532222722030127,-39.65230982773277,-50.793465423855956,-63.09226256798707,-75.2199436367314,-83.35982486689022,-86.50010598790118,-90.2506810208629,-97.5831400817934,-90.00202282408426,-41.91215606205742,31.376660629921197,79.982853728953,87.6743258484799,80.35565861031782,78.00395310653397,79.2734077523996,73.94659912338656,58.293688996402956,41.70383402809903,33.13422778816678,30.82777414374762,29.608715734037087,25.410060698188918,14.256290104949116,-2.8983371754228267,-19.22244809010488,-29.98326545951639,-39.35430695407636,-52.42596739220675,-66.68809893528862,-76.5150731250853,-80.65234127304487,-84.33024680056288,-93.29643420830013,-101.45883673456828,-85.46775765428875,-28.407804895033173,44.644585450598655,85.5758267906646,87.20892500671258,80.65787979025869,84.31726610553302,89.42161147349113,81.60997578880621,62.512952127873646,45.45685128562498,37.87462664566279,36.7963561300613,35.10280705042635,27.259454721102973,14.05338809610464,-0.4127822778468507,-13.180937745985103,-26.115062437333382,-40.900765081609975,-53.06556038476004,-60.08855026938363,-66.01150757362994,-73.7812593523696,-79.77756709078876,-80.25532657868933,-79.41012112346702,-83.99244003556005,-90.46388998138312,-80.52702399857836,-36.84706071657555,30.64229018429047,84.97898078838892,101.23120089036458,92.09215293198632,83.41591063033395,84.16837833833306,85.05670606245087,76.80369431920384,64.0,114.0,68.0
11.520001562700932,1.620068401043169,-11.550403896841386,-26.81849193706846,-40.11427717872664,-49.56312020512176,-58.13080215898773,-68.12605176798424,-77.74482410552422,-86.81262017223096,-99.0996172156575,-107.16652817386425,-85.54522551633848,-23.251923756303487,46.97114007172034,82.72295863392713,83.526741877845,76.98569995554308,77.90090926583193,78.35339809386618,68.11941414332506,53.11442545517288,43.37931909378519,39.639047776595774,36.42849767974837,28.580181721631124,16.272959620697215,2.415011635960681,-12.997987306039587,-26.966690217156618,-36.34780265848411,-47.57479874335501,-64.34005818482663,-78.29953213597818,-83.54253364738733,-85.22314590141849,-92.34767098461268,-103.8699927825055,-98.32945298009797,-51.03470195145856,24.369326178394658,79.97004510114338,95.11827396674546,91.05566478478022,90.24784252747864,94.26075764177025,91.26225442396978,75.61310329031907,56.50542796879802,43.21776927604261,34.82317665160492,29.04083200976696,23.74882294149737,14.678301701660164,1.632694189598344,-12.38061444498136,-26.380079551435117,-38.93813602736475,-49.247436018406546,-60.04348958682911,-71.8515437542577,-80.26653878412577,-83.0221988325908,-83.98241960412257,-89.05436497327494,-99.51782188765627,-104.30835904206621,-78.43018522540935,-11.34281656556482,61.273270579332944,94.76039498010529,92.12558933231672,84.26688188385987,86.15034116947719,90.87574677425006,85.95094287823247,69.86907498603493,52.535384915974426,42.315397567026054,38.41611275236459,34.72987945119068,25.999110491558064,12.097032277095451,-2.9553358706924757,-17.0558071245901,-31.493137178415864,-45.0481012384053,-53.41082937024523,-58.59047547531949,-67.32923581759987,-77.76311803529079,-81.75033439612496,-80.76842864537667,-86.73942622317303,-97.75755783726726,-84.45975889537903,-24.397094260442127,52.91811453385363,93.2786201321619,90.42404168950866,81.24769315043483,83.370780858813,83.16073582560831,69.69521434537492,51.39221447571981,41.003971828303925,40.099935799695345,39.901642134992606,32.878268938815374,20.238235164415713,5.550258780776171,-8.313855847824394,-20.38321443699309,-31.793869552031303,-42.80950415508862,-54.21630293987916,-66.76471643437274,-78.13736931331572,-84.65331303121064,-87.16386685916997,-92.31165718020861,-98.32186208587494,-80.7066300759085,-21.23051191011367,49.80828729047217,85.65070245551063,85.77269494824264,78.90186364421402,78.41264725383138,78.83065490391341,70.2667556469454,53.02549969806335,38.29650112248713,32.08084187523193,30.54187039838209,28.902202386237363,22.998985789588644,9.688998521437282,-8.051137536161995,-22.87561733000014,-32.50621365749294,-42.710593944726895,-56.69628080226864,-70.16179884679555,-78.17297019691712,-81.42425807128154,-86.30602286983681,-96.50570167111418,-100.55055199806552,-73.06329096910072,-6.675307339892324,61.24640135972278,88.96742621736028,84.76891107124162,80.65167338559064,86.42446099857347,88.80457508008251,76.71863936521109,56.822325444731696,42.27280371932865,37.183491025119665,36.69877332464443,33.561782606571555,23.82526514826327,9.81754578070172,-4.298352152154338,-16.722483398040165,-30.3026215849182,-44.934467684997195,-55.53053477075827,-61.674033307574106,-68.1157221383414,-75.95327578934203,-80.4724345877742,-79.77396312182431,-80.05182648620213,-86.22974076085441,-90.31321428022396,-71.61533599704482,-18.453403357853933,49.451469175783174,93.67203769904187,99.96821293263908,88.68031530118046,82.86728337087825,84.97664228871355,83.7724999196091,72.61580947247086,55.782081310572146,43.62883393013293,39.53017238638624,35.39106998856457,25.813428327032277,13.878520274953747,1.9198409876736093,-10.29051580058084,-23.46300576409288,-37.02073655715804,-48.516008077019215,-56.76389528888783,-63.08413167096931,-69.49851112891405,-75.54524389648745,-77.86609318857539,-77.78417655854892,-81.73942399237052,-86.31203216222846,-69.77348544763485,-16.456843660080203,49.936544101808096,86.03541890551625,84.79842497943979,74.67106219313695,72.86767126429302,70.96686786549292,60.81737405604161,47.934966363984636,38.086480207025176,32.9578007510064,31.23089712698289,27.97642926649073,20.492036817953757,8.984445159841691,-6.055306286196441,-21.36057121350813,-32.79568479026252,-41.382999085280126,-51.330541800927655,-62.23722083686795,-68.43960021399388,-68.04888071021489,-68.78622347511595,-78.56449773288892,-87.86475175855445,-70.35894057754167,-13.54677809453519,53.36129091211151,87.77682267936368,88.06776905215101,82.43900251930218,82.32239233936635,77.46356198560034,62.83214899574444,46.305360328565484,34.358233677633656,27.02691644344731,23.22758964081416,19.72363247201811,12.152753024004822,0.2926848488941389,64.0,114.0,68.0
-83.20524119737829,-84.82351290235529,-91.70336326513963,-102.41419901287713,-101.13500634919129,-62.60051289085841,11.554809528541274,75.89144006947024,96.38512272389421,89.22585130936514,83.8085753965807,87.84233965173064,90.80855474081665,82.13330152195245,64.4740430378992,48.71553023028606,40.76758591895407,37.62611741841343,32.84570707454082,22.37317728084013,7.682699019439984,-7.095879145315495,-21.144219354948696,-35.69401539546545,-48.10825349766428,-54.90106047483487,-60.59474477578459,-70.53929561812087,-79.8170163530773,-81.50505576753656,-81.34341095876209,-90.2720541746705,-98.04915528136632,-71.74444982724602,-1.2184564629722914,69.9807616814842,95.52143533947286,86.86502837298781,80.9589365118867,84.37953291488387,80.57661783199376,64.22997821507744,47.241176787855835,40.037724588612015,40.44691301216818,38.66526606065556,29.621294172326767,16.075022738961053,1.3520747140701919,-11.942494532818287,-23.713061651007248,-35.01486383429308,-45.99635232549274,-57.75916648786255,-70.35343132528384,-80.61640183193724,-85.56030928795442,-88.09204683733658,-94.63918404252465,-97.0743827874515,-67.52002333554837,0.567023600221581,64.89848886017461,88.13058736651632,83.44030382686867,78.10746690859864,78.92703125153811,77.56159222839489,65.77055566122132,48.01597642629025,35.67937195619556,31.40997287145207,30.24316826353806,27.842650641678134,19.92109413282761,4.715551610378014,-12.922975635674954,-26.025895470857993,-35.10205044296022,-46.4437764500737,-60.92309740438177,-73.14103258423869,-79.38753237260256,-82.34576643650205,-88.83079934450885,-99.3248319600437,-96.8989821544847,-57.050144996610896,15.241616692543095,74.06505949725549,89.53441449694179,82.52985604983951,81.63951835116754,88.22531829968551,86.83514536202112,71.13249493598545,51.65409568141642,39.94011091760161,36.888808691661175,36.36051266043428,31.416704337788396,20.029488499109533,5.582572274612857,-7.996581324467698,-20.3867020915417,-34.626194076983566,-48.5874942462158,-57.58200654466031,-63.31393428026953,-70.38663621925714,-77.82857680508523,-80.66089984897911,-79.38357388825489,-81.27479632555949,-88.39919197903768,-88.20531409110485,-59.59233135091542,1.3298125091739832,66.08876853108063,98.93438384903745,97.23302215638715,85.88837207419773,83.07824118141725,85.46228258637039,81.58149839373763,67.904851733142,51.383247979348894,41.83516938860425,38.773968859824535,33.13697293928918,22.426690295043233,10.413826109843873,-1.550124055986338,-13.977515241422442,-27.431374966914913,-40.66135390458595,-51.20895966386054,-58.693392369011086,-64.86491761796688,-71.42215725256567,-76.70078717597005,-77.81607605252634,-78.31350204048478,-83.6723668208597,-84.87894548079734,-57.9706890558633,3.442644837940675,64.81605060121947,88.53235425258197,81.46864784343626,73.32316950660422,72.96636569772089,68.81361978666651,57.014530681552756,44.658883885275024,36.09954807484931,32.28902318228879,30.662102423426692,26.251885530575773,17.573338855220783,4.933701821157933,-10.680670295478226,-25.137339071223938,-35.38128666481124,-43.989688510537995,-54.59014778799641,-64.76289260111945,-68.82817143917975,-67.64677145633647,-70.64784214476177,-82.31731272149969,-86.72792573862641,-57.52837264355384,6.950664922561389,67.72644711656618,90.23548702088932,85.95052942873899,82.10010255217114,81.93086854941922,74.0410024463695,57.813656656070094,42.30875902628532,31.817285966264073,25.633966506372868,22.418991931950508,18.047446447376412,9.102755853417653,-3.748892788176301,-19.041211630163357,-34.174506165304415,-47.17721729631984,-57.02967470277771,-63.296099338219435,-67.88196913678533,-73.29612812929955,-79.76220563323335,-87.13384053097002,-91.78673429037549,-79.18029728194608,-34.61113281119724,29.78685415511398,76.39734431857285,86.90404087878377,79.32919711326294,76.23097775007982,80.03194093307816,78.83842145662702,65.18443811037422,45.57293964706788,32.32588337979279,30.14533045055895,32.99642395528937,30.264036645880346,16.389728986707315,-3.159093691883078,-17.84310093593032,-25.975764212937758,-34.512012001656664,-45.1104375270146,-53.43071588493844,-58.6954285901295,-64.42182219983431,-71.5099261504812,-76.74312532848587,-80.38645257329921,-86.66265562946485,-92.53684138858152,-79.50909625125743,-31.27757910573922,36.43787863805682,83.25891529101813,93.50235824261178,88.17158325259608,86.76860280036783,87.90130542029755,82.00954813602571,68.6397828969488,55.41040052263889,46.8485047860895,40.62431228905977,35.10526278803923,31.569186257877586,27.2194394822728,16.30182521181562,-1.0303467520900944,-17.27150386880046,-27.83645167915691,-36.25770773841647,-46.87389051061939,-58.46415667997688,64.0,114.0,68.0
76.12925856039266,88.2089684845398,81.22953544683045,77.92297477131879,79.26092670058425,75.3203934481485,60.719885501296915,43.536497697814546,33.791591717805716,30.9791388458503,29.848194318128694,26.308181335884314,16.184784199462715,-0.4827864043985069,-17.354972403218582,-28.791218680785953,-37.93545857555884,-50.48839546703826,-64.9439737840815,-75.57690907318185,-80.29240745428805,-83.59915329054178,-91.81970724838303,-101.14695476723345,-89.91796025048576,-37.979833290745475,35.906513447611474,82.84340120462764,88.20046017539168,81.02099248268965,83.37105488754744,89.28426389055653,83.53548459856886,65.23287306368661,47.21930546706791,38.37376099912473,36.810794703558834,35.61770800116592,28.692122550665587,15.978182967934833,1.442882572479877,-11.559003104109308,-24.254373170583893,-38.95122340249364,-51.76786080189846,-59.33860323164711,-65.11242763602719,-72.72131133019435,-79.27810650583888,-80.4451074348285,-79.29809623768662,-83.03673221977647,-90.03833460023824,-83.60508667407251,-44.625818719982774,21.506539444466377,79.78940373485425,101.113651873557,93.75771963263409,83.97545283172303,83.77453817543189,85.35872315351138,78.50028596504727,62.92771804256102,47.64969123992059,40.65559473949956,37.73893256158745,30.410362195610045,18.962276262384723,6.961552915937792,-5.056856864632439,-17.764671761372384,-31.392458546364885,-44.05952736547679,-53.63236066349004,-60.51091667181325,-66.70431626443285,-73.25617303152431,-77.45367566123821,-77.6876754132444,-79.35486237396664,-85.39243859254327,-80.98342159468586,-42.956070738899484,23.37701753460042,76.17939372686885,88.29800045096432,78.23169473545926,72.78684523480354,72.66418686811589,65.9344457069528,53.205798129419776,41.7154207897662,34.53119991378408,31.828805920397986,29.82464461116264,24.162683501023825,14.325798550182517,0.6049641617842253,-15.203400403705913,-28.516853644963483,-37.81845989131939,-46.81421120223491,-57.8414516117604,-66.7300504216757,-68.70812432366995,-67.61911632309238,-73.39126021907994,-85.55619784856914,-82.61741081705412,-41.42109681124075,27.112575638028595,78.5138284143361,90.35240082069905,84.08250569841901,82.17497011156436,80.7927509141549,69.84681064404256,52.907326000651715,38.76553324007505,29.6279756557552,24.516827780899593,21.51013095830847,15.950878629662427,5.732581585643273,-8.009214334953407,-23.551853535746233,-38.19630360955129,-50.394136650399425,-59.17536502960344,-64.65495004649567,-69.3105297781199,-75.07564876363269,-81.81029129596699,-89.17546005691896,-90.78855757675402,-69.7609948711358,-16.56550174585798,46.66477391555279,82.85782980443042,85.32256276838868,77.4367902081665,77.03160408760361,80.76345937939422,76.14612939491919,59.55692560913347,40.66401437157987,30.652039258139546,30.91288103870419,33.204816406467145,27.373486929703816,10.83240997137196,-8.236305416390293,-20.606865692773063,-28.12987029910961,-37.53659589333551,-47.899380213137555,-55.1499430417861,-60.14333160491756,-66.45418825816131,-73.32089697321648,-77.79123205518964,-81.78977666404715,-88.95701364953955,-91.76346845293315,-69.27715713426043,-12.030500455947385,53.67959009017819,89.4777175503441,92.33533778692542,87.05940046456868,87.29348493277963,87.18678620527274,78.63772420341708,64.45505828241777,52.47245944168712,44.97023706237136,38.90474068685708,33.87559959630573,30.670347825166704,24.910639051528804,11.702397015674162,-6.1994562029564655,-20.870879069034373,-30.226855861274966,-39.03916364329507,-50.30220773262191,-61.415994137903475,-69.41336697065786,-75.3103342692998,-80.72562868368628,-84.78898632335356,-87.4303799655659,-92.19711462893557,-97.13987733769363,-83.78678693931474,-33.25924028248906,37.13820417155667,82.4171842143417,88.95026215600805,83.89996647993662,86.61073901461914,91.17713884504991,86.04181968633695,70.32929534410083,54.13249262691241,44.77646359714206,41.00929305991596,35.96186392996533,26.648667372079363,16.091636688335978,6.924758275007878,-1.4443565619305623,-12.085562075004088,-25.420641666345006,-37.612853131641884,-46.16802520965493,-53.33842220889481,-61.83271907317488,-69.79340761760403,-72.6666580748558,-73.5297829295293,-81.61967548111954,-91.34133057624594,-75.75396467804762,-19.026040428850077,49.91111407657138,85.86036393862226,84.25531856726477,72.87505126444385,68.36902079295031,66.4117471886367,59.68881877838609,48.113363417329985,35.39920438256975,27.298421765331348,25.58358925075444,23.394450522803886,13.694284135016186,-0.657150780097801,-13.062772924682031,-22.8022757717495,-33.58404198962545,-46.4314080471121,-57.76119984481213,-64.06724353237608,-66.57801581142488,-70.64512106860754,-81.35479769671696,-95.50196402829211,64.0,114.0,68.0
74.62523193882431,57.97521920460822,44.70950145937543,39.85138064361136,36.25275130939277,27.322665820667705,15.48092345129801,3.5125314310141706,-8.621514245565814,-21.647292723186453,-35.27648024218143,-47.17732039634876,-55.82142683943959,-62.273985018649675,-68.60747648077346,-74.88995611978588,-77.81306406489306,-77.68590548830382,-80.89804581222114,-86.32883266328862,-74.0737269459488,-25.272785766663127,42.06626084471756,83.77182844929938,86.17138055829076,75.599220519716,72.78865892233557,71.68654477843512,62.51395979316177,49.544062784177534,39.14099574499687,33.36882006480915,31.433572355057773,28.64515840475663,21.727232886611578,10.74604373036789,-3.9266920621437422,-19.49192134094521,-31.52045752870317,-40.23829846459271,-49.86284254869294,-60.922124733305694,-68.05270197587483,-68.27985211519355,-68.23123164539533,-76.83586888767523,-87.56317965151455,-75.0652341802599,-22.7453267963304,45.660528143074345,85.64447191612585,88.97466925668294,82.80078867611367,82.32855329059257,78.73579148285542,65.11718940618553,48.29752815094422,35.65579500740223,27.772967677964772,23.606085265051398,20.363747154288337,13.440426825670867,2.0718210255275364,-12.433423743542695,-27.973775927376742,-42.012841252473045,-53.3204238500036,-61.024969094449354,-65.9491115271753,-70.85207577863751,-76.92631116418484,-83.94758802016031,-90.82930132507873,-87.86513910682012,-57.41259543085293,2.455911640039324,61.03084166557971,86.27621452243905,82.9398629327148,76.32918575124322,78.24150362590959,80.72720045087786,72.35203590597915,53.730340176767776,36.570554246244875,29.902987562270855,31.86466799993795,32.68127350325152,23.50772042627343,5.051448379008986,-12.66156832431747,-22.926505533331845,-30.513523801970372,-40.661361842238975,-50.38665347600487,-56.65628686306388,-61.741221268983445,-68.55242064880471,-74.88913420888532,-78.77765783218295,-83.53782739534476,-91.00275296874113,-88.81007604351804,-55.864885896910586,8.036830412631971,68.12740328467811,92.73795920371657,90.6023752274169,86.55170392308638,87.80174435339767,85.67453044561606,74.76092857808786,60.50088980324531,49.952355749857894,43.18273626224873,37.256749930652624,32.847138728940784,29.563618020763165,21.920793470375962,6.666348989496877,-11.047937328632695,-23.973625080648283,-32.58842771095925,-42.07061970015177,-53.719890960958985,-64.07219164760453,-71.22421252159927,-76.91969323515383,-82.10917872572631,-85.58822409377913,-88.43281372229734,-94.09444391003863,-96.31341423754279,-73.16324558797835,-13.038836557109807,54.45655261193453,87.48610680178105,87.29094345661221,83.79194375834801,88.33249894055889,91.01421386974707,82.24614537210779,65.21901852624435,50.62107578414257,43.37530851168779,39.97098732848464,33.63291478342652,23.5603530055847,13.25765649049182,4.5409852949317475,-4.161946514883988,-15.787219545330803,-29.251838484979835,-40.43877259495332,-48.211392365654554,-55.63059006884754,-64.40775042169784,-71.24436513252316,-72.68650702458054,-74.89799005722762,-85.17922384393059,-90.77406957556828,-63.22078635250999,1.9169311827928752,64.92190742474558,88.21514806815517,80.76280629743442,70.77544841705493,67.98414105388993,65.0800846585161,56.72778043661615,44.32028972096416,32.351117066566104,26.306652916897395,25.43347880043827,21.443207312251744,9.68361359916588,-4.612686735404016,-16.013556119050115,-25.659411876416662,-37.18183885071283,-50.07101319341468,-60.15164193405257,-64.99532825457821,-67.31500253436299,-72.94469800991446,-85.63638409636545,-97.7478830568566,-85.45425079595667,-31.83460762426771,39.366225687170555,80.97535312095727,82.74304945649914,73.91457168651324,75.89261232762826,83.0002328400389,78.99407682640486,62.26932142057338,46.79240104534126,41.02194191095221,38.61858880040752,32.42822359677979,22.88326322924663,12.315409905376859,0.8852924220000815,-12.752548561161946,-27.3145856706758,-42.21813855976341,-56.44713403373063,-65.60724593758216,-69.44461327116078,-72.57867637414645,-78.07249781777324,-85.80456086581884,-96.33862700502537,-103.0215202004389,-83.68538808755632,-26.034629996537944,42.49792018560022,80.47620196198307,85.5297799947193,84.63839237773955,88.78239680237375,89.83869397852581,83.00233250750682,69.92174174278657,55.42957277089992,46.11562667928868,41.9344345630747,36.93038275709961,27.85752559661551,15.243378070169657,1.3912809564081048,-12.452685031608487,-26.91101954790435,-40.18159792402861,-50.79690455511837,-61.571174810682365,-74.03187435952216,-84.04726484777436,-87.19586994686152,-87.16908507027559,-93.79739722420568,-106.47119961189411,-105.00521640969804,-65.5558319875322,7.046967545156216,70.78140801400095,92.99727108189106,87.93437332623071,64.0,114.0,68.0
-1.8558170608593454,-16.949777414184858,-32.2566562218855,-45.60399843822532,-55.93350358986542,-62.62481330740299,-67.25686707317061,-72.5028193824824,-78.8486832497225,-86.13499497572376,-91.7389693722942,-82.54551874623962,-42.34441757256573,21.39038914111404,72.31156412869859,87.16441783275975,80.40338339754388,76.07793335207306,79.52008835957845,79.69178348806103,67.61642139405969,48.051775959653185,33.43302583091812,29.928706503838473,32.7159012246204,31.254898671499593,18.793565839912016,-0.6430592983833932,-16.368018218634827,-25.02268844019714,-33.18683135327632,-43.74233539216063,-52.54391993226073,-58.05469538234398,-63.53262891854175,-70.60700998557843,-76.2082891062858,-79.8357970862188,-85.62095049443256,-92.32580179677592,-83.14502723436799,-39.584940096932854,27.771079128733334,79.27668407942005,93.66155315725443,88.86290611071568,86.60205471510864,87.9937260799016,83.34284560564248,70.59493269679633,56.91636794264241,47.769836085538785,41.427840278827325,35.74239572399343,31.960386744558456,28.076783270999545,18.22849757001489,1.4057565985132305,-15.430176991406197,-26.682336500313134,-35.0559756226505,-45.32086952145301,-57.01425289391526,-66.43005724607762,-72.92272608006185,-78.50751538629345,-83.33217323483609,-86.30406019831162,-89.7353339836108,-95.83922009452226,-93.31818995759828,-59.12214151209772,7.914586902131044,68.53250466512205,89.56657925651068,85.53311966406895,84.50828838753945,89.88552978935094,89.79844168315118,77.70153256262982,60.36539964053795,47.778996075191486,42.32564319858996,38.63305600611266,30.962864785870853,20.468838235731596,10.579690161560356,2.173487983134994,-7.158844030321662,-19.665664817242423,-32.870186645198,-42.94380472005506,-50.23748993227837,-58.0739644597714,-66.83252928865454,-72.162178546685,-72.74725556665587,-77.09289503872931,-88.48877407663386,-87.27123205478715,-47.19168621804008,22.671825829733585,76.22827399262306,87.88136600400207,77.22097051854341,69.40094957719828,67.55704295096015,63.24413432558105,53.414510610098915,40.54748925982897,29.84365331363873,25.809322436438684,24.996173683219066,18.75846779780753,5.467578090310177,-8.274574268190149,-18.797872083772848,-28.70964193035743,-40.920324124852705,-53.46376949651164,-62.0661002471133,-65.69093771396327,-68.33788076858076,-75.90431369011432,-90.00412157874476,-97.93039146327185,-74.08880091749629,-10.90235422756657,55.97530087096537,84.63697723770028,79.83395152778408,73.16263244755712,78.18244141630497,83.4809344909757,74.99235656663396,57.00385304544899,44.188804001468306,40.44342021308429,37.30616279031757,29.901242049500244,19.862759712110194,9.178872447004986,-2.831283081868835,-16.95154925799852,-31.549003931685235,-46.57848370974542,-59.76124244281059,-67.10328387792639,-70.20058288073422,-73.90914777323385,-80.06931933514402,-88.56982383326238,-99.41340191439392,-101.21145790628641,-70.5638017978761,-5.24653153309309,57.711452014289655,84.23081354887185,84.84596737242815,85.52893862007201,89.8078448293209,88.6563476282488,79.73000042863568,65.55839119920407,52.02202873329532,44.614557689723384,40.8150022544201,34.749788514207765,24.4971813480494,11.255767333265585,-2.5809331905313138,-16.580515966062823,-31.00540165034997,-43.462088984495,-53.72804387511969,-65.0848155205273,-77.44941298668424,-85.70268033807025,-87.0917717667964,-88.06352779277054,-97.39718586929772,-108.7385411307518,-98.11121823224443,-46.62690578469922,28.565071056836114,81.68633067376174,92.84102585429343,86.01805766297693,85.36014954390859,88.73068744426759,85.78444938721515,76.43602473933281,64.76351652303696,52.499021791371185,42.4594018531302,36.906449530428795,32.85880164686624,25.28749945458911,13.312117661748035,0.39395954180912685,-12.80202242380376,-29.00929750521988,-45.84321418789493,-56.820052190241384,-60.33303264557814,-61.539035101933436,-67.42223628564075,-76.66768445169642,-82.17727757395663,-86.97173162188182,-97.50661400098015,-95.78450651259992,-51.79377114895589,23.684293161123865,79.40069932039167,91.7184520226659,84.45348773116703,81.12182108278151,79.38773204542352,69.73525344225556,55.15984435957895,44.14977875540151,38.11296070780851,34.796246668712605,32.87298937367225,29.08735113660958,19.07804556200225,3.844866338672265,-9.77175457862875,-19.60464345294686,-31.614287134268995,-46.28482521195996,-57.402544465056074,-64.39510327406006,-70.01098499106493,-74.95471551291546,-82.42729044841916,-94.0113509833919,-96.389639283815,-66.13685052569699,-1.8953165724599863,59.433879464916885,84.05103786467608,81.48203888766466,78.80398135090607,81.53924726871719,77.7575805923258,63.18528446373908,46.097458033322326,36.454491095884414,64.0,114.0,68.0
-60.09012945109107,-68.5226648317076,-74.56326770834178,-80.04541679531059,-84.37089358906422,-87.04521623053974,-91.3594605060256,-96.97755665400607,-87.53127174093568,-42.00227682346003,28.292873961583535,78.90206192674913,89.47469947348074,84.24146975848714,85.85637664590696,90.9396827899898,87.47369859653989,72.70122655888308,55.967582375087055,45.587521079372365,41.428847668768135,36.90149030474294,28.046824633983224,17.4465770473927,8.049904618359744,-0.2675172388849011,-10.462903724479602,-23.611620765100096,-36.19374113905198,-45.192635429818154,-52.332051902420766,-60.633701736307515,-68.95537857920803,-72.593446890967,-73.15068496861656,-80.0577997611205,-90.82054060800527,-80.25872064565262,-28.36638392232392,41.894029202236396,83.67193360055101,85.67437180566407,74.09576820278504,68.60455787566245,66.86508428250859,60.91615404598135,49.83026384292693,36.95195135517926,27.955352682624962,25.62560130635552,24.049382832982428,15.41607477883587,1.2451526922191831,-11.620167130874771,-21.52870000466694,-31.99248040977246,-44.70348429965935,-56.50257514783562,-63.52868796112497,-66.2914352937986,-69.7931073077233,-79.50686822110049,-93.97341846971469,-95.34812025727257,-59.09343037907517,10.407166714143822,69.00027028127904,85.31688174247729,76.93030093416506,73.56810699036872,80.51545213859498,82.65884532229215,70.11872405350657,52.26096550230618,42.44291223874218,39.872252837208954,35.589897881335375,27.155279920879224,16.810880667435598,5.934899845785246,-6.753026858915733,-21.164602146477776,-35.84071651896925,-50.805728339083004,-62.53801264802308,-68.2209318563147,-71.03621071503923,-75.46036205997511,-82.24159396465136,-91.60928732404072,-101.85455604851768,-96.545246556571,-54.227880851177154,15.332607702052451,69.50690536990952,85.72311274578806,84.36958225988143,86.80450677177751,90.3063681954456,86.80460578611374,75.99406575361238,61.24257911969041,49.19417532905625,43.437810130825426,39.469175340423675,32.20340365289014,20.87554107654022,7.236373771598278,-6.557475896176055,-20.77397108702078,-34.91636485969715,-46.52681901446667,-56.77892163867992,-68.72390270568795,-80.50877011363526,-86.71313327910492,-86.92324000324689,-89.77031125454317,-101.29908081732921,-109.15425463621426,-87.54096621374545,-25.474215959010905,48.03198086421494,88.73459424779278,91.21136737014783,84.83278998847442,86.47549791456727,88.75123803319731,83.52458953891784,73.19953635600953,61.20452717970159,49.19804663889373,40.42446354248105,35.820629710166095,31.19604976663452,22.15590328844616,9.534716523390951,-3.268427171156635,-17.122628072587638,-34.10607952485054,-49.82767841378128,-58.48664040907408,-60.56232128981927,-62.58661493567746,-70.0917572389544,-78.79905831382243,-83.16747260081293,-89.5914521388096,-99.80545662691719,-88.09389501301845,-31.236719372141273,43.95803599585783,86.94614220361083,90.14650935910757,82.74948905208575,80.9999611618145,77.55855024421264,65.59769313666057,51.39009064861574,42.002029361231706,36.94170311414907,34.17380411053434,32.19520816958674,26.941326325787987,14.96380075288216,-0.5511370493272074,-12.809108635300888,-22.60462344397274,-35.846389504581836,-50.0531427449824,-59.69368631642148,-66.11164770114306,-71.45093786880689,-76.6321994591046,-85.57620006168717,-96.68938324174125,-91.80893551601108,-50.02307188930642,18.234272109064168,70.74477336519082,84.77703689818418,79.91850904139388,79.47142641445107,81.60202237178589,74.45462425558954,57.98672936817336,42.271489518749725,35.51717772484732,35.533768444020055,32.83188074113548,23.51156824098932,12.093977784609095,0.33414065694783385,-13.51512532245881,-27.543447133597805,-39.72724697793168,-50.95983874595763,-60.802294389403606,-68.33037274349941,-75.0664788866475,-82.18470706788656,-87.86000101859092,-93.71240425857427,-98.03378079285531,-81.71597944988936,-28.537793252947115,39.66204564664603,80.74142847939828,86.48564399037866,83.03241980830681,86.13756062318815,88.65043588760038,81.8765416240877,69.29695585774247,59.81179215652313,55.05017645024021,49.563662976828326,40.76065914544951,30.65453992338745,20.340500447403702,10.168198121201161,-1.1455590575928865,-15.41240243604152,-29.570758276047655,-39.15760539768298,-46.014572200706894,-55.614990747274724,-67.27462199396376,-76.75233985073612,-82.69391715184102,-85.13053481940881,-87.28502421544493,-94.88364736889146,-104.75939619644807,-94.40135401117661,-42.314078145454815,31.155054492114992,77.54303527710293,83.80526392550486,78.93746589736568,83.01333037097669,88.62261091681586,83.74047664489271,69.86641041262916,58.19624075202093,54.00845136357983,53.649237430959936,52.08814644835798,44.77689878648956,31.828381604992977,64.0,114.0,68.0
-96.92440490787948,-89.42171840501523,-40.99061533943331,30.707964288946812,78.09264762651603,83.8704857282134,74.64463618862182,74.98244740240405,82.40399183427766,80.45467096784921,64.77321460474793,48.30746413494115,41.36484881129819,39.090873999222794,33.50119061898789,24.255273372260604,13.740757914179552,2.5254437754293257,-10.834665786743068,-25.372828713161788,-40.19722584090036,-54.756922629012735,-64.76040670738709,-69.08932861206387,-72.04243983867842,-77.2077866138134,-84.62321998891764,-94.83925736766572,-103.06485654809148,-88.55624052783936,-35.34046586609579,34.46580873568484,77.77912785864734,85.77183565842385,84.41328847373592,88.18944170753976,90.14810905531154,84.33434450105648,71.89579738792084,57.17281190458232,46.960542784967494,42.40824674927338,37.81233172336233,29.305252890356005,17.053578219626537,3.229402866786837,-10.576442440364549,-24.98453142307739,-38.58205564624136,-49.460004749443044,-60.01255950314654,-72.37957270341123,-83.06717255962475,-87.14879198296796,-86.98359388786162,-92.34278899106403,-105.00063145122684,-107.02011262073665,-73.2876989506253,-3.2250845596831033,64.43994146063167,92.32281231945352,88.96966410693524,84.50744885421247,87.6315942047798,88.0524005558686,80.84627928692208,69.84108594718909,57.6239843209012,46.183258266106016,38.77927801904152,34.735563670196505,29.121648871002574,18.704343760012236,5.780359730118525,-7.003271973267518,-21.76343767464553,-39.10753097093571,-53.173528400246454,-59.56117859044861,-60.78665260381481,-64.17518270903247,-72.87852962858042,-80.45751220134018,-84.3439231113181,-92.76521565262134,-100.28505541265355,-76.23200981915748,-8.940965881594442,61.171424863950165,90.89484943898748,87.82287096704111,81.70149463542313,80.71791925463855,74.90553402641672,61.275569715059085,48.088588466299726,40.21718325232724,35.95223673360982,33.642475907597266,31.242826433070807,24.18358027570761,10.518640706809965,-4.611471770423609,-15.59016132028468,-25.973339641906836,-40.18329576017097,-53.372148241039,-61.72010024174909,-67.75575059093909,-72.8414065775413,-78.65442912878343,-89.03639761728401,-98.07663125484461,-83.91607537832799,-31.430729747815736,36.89081757826572,78.49988612415946,83.92284393916623,78.93036746445986,80.42314741982642,80.78455998846408,70.30387400764718,52.865740817145856,39.27000014495595,35.20393680315689,35.4197381895491,30.69486667566126,20.2148504109625,8.821816056176514,-3.4478737941630246,-17.712059524811174,-31.23027365160123,-43.04680305445915,-54.00884908418807,-63.20574459607445,-70.23701204235925,-77.14876223755432,-84.00802137262485,-89.37196703052132,-95.62073254829221,-96.59040198357457,-70.03738213939998,-8.400081588042953,55.65579749087597,85.1529901216031,85.21345390987514,83.2801658044897,87.4814882188772,87.73511839900429,78.41774952912611,65.96052408971697,58.14035880030769,53.77948328200767,47.30767448100828,37.88340993690063,27.68407219814436,17.383192045382057,7.145705287225816,-4.991661503404934,-19.763304616010707,-32.8866806242007,-41.152017383516586,-48.36881113246401,-58.99097622053939,-70.34518884242308,-78.85206411717252,-83.7069069178329,-85.52000475946372,-88.75096263840128,-98.13207812836079,-105.20062663523395,-83.76139803163561,-21.138038194626294,49.032098141855194,82.59356453128323,82.07935418741836,79.13355284181765,85.15843737646651,88.53258556908067,80.21172590091848,65.81144565932362,56.28175679244069,53.746406546455084,53.538401790645814,50.706202981753734,41.42506518651795,27.71658219283348,13.78151805762681,-0.22274638526843848,-14.899991959147295,-27.738133002072303,-37.95192807837161,-46.79677571298201,-54.88622975960892,-63.11460501992707,-70.57599496957825,-75.5867605111021,-80.62478826847648,-88.32708120166478,-98.3978009789717,-100.08278217201712,-71.17651600494459,-6.244287810823181,59.672167771625546,86.5523559094905,79.90077026668968,72.22495515293895,75.12402499330008,75.78811415527656,64.98940927257534,50.02646559178035,42.44990287649761,42.95108470859386,42.903469278607254,36.14645605280642,24.879555722549572,13.894465798759553,2.347663995130959,-11.953994161875404,-25.539895843869978,-35.399822320570664,-45.38158777731886,-59.08956630810964,-72.9044631163909,-80.3540861645067,-83.53422152902199,-90.35611438483909,-98.24872294710883,-85.67092650240103,-34.8920252920796,33.38887918547822,75.3468560793133,80.9262711078862,75.28761784293843,74.59459413292464,74.97419557600443,69.59746888985308,59.37246099675394,48.790008285688636,39.80905340162287,33.38368130295036,26.947192735320726,17.090235365585496,6.107133050413876,-3.775578754324647,-15.022246572436474,-29.51895028680381,-44.23077671125975,-56.259681525746124,64.0,114.0,68.0
