15.278259602540398,445.48217170428063,592.2437122144522,530.624212968122,461.03203677621406,429.7899801979847,394.325439559589,347.2256236320745,308.11606234289206,278.32628955079906,246.02446382757932,207.99611631257878,167.88765476491656,128.91669663731105,93.34730310578033,60.822978224646384,29.348191296293027,-0.5431303661391941,-27.79991737783191,-56.70176931901671,-90.03551694244757,-111.2511139637101,-95.72215961133048,-51.7434863697181,-19.603012896082387,-18.21572588667844,-29.10382495637222,-32.490073276551655,-28.66277126529593,-28.59371109312233,-36.89575696563115,-47.84482167704901,-53.86044893451611,-53.52161212538991,-51.12200974118997,-50.97530095179039,-54.07211611492307,-59.35193429330641,-63.92305148998828,-65.36398781100934,-65.95065733412673,-69.05594737423307,-72.21570019659742,-72.24839395366129,-73.48715849883872,-83.16077409589364,-98.44466430258906,-98.50435956672655,-62.693958003267106,-6.8143797008100195,30.308092104364075,37.56021691402273,36.0231700774665,42.299236287164064,52.42267750634629,55.597953875451324,49.9708894327857,44.09388127885574,45.12650761181949,49.374294678508825,49.1956981986789,45.24313784010529,41.240642939406726,35.38247532953571,24.98169770463959,11.688359062325086,-0.2119250356100051,-9.355964516688044,-16.628310146519876,-23.809531598996486,-35.38545073141464,-51.868879683459724,-59.35794730211481,-38.683904285831176,6.48346646120944,45.27100724524667,55.63303794533041,48.7423447351303,46.68848444816314,55.03665217306031,62.89306824724418,58.96741567703233,44.56598207925889,31.499628705042348,28.700224892750814,32.43114923292603,32.8398845840283,24.939438819014008,11.58357694054791,-1.0108984211190837,-10.625746507106257,-19.07285439774499,-27.553043228059373,-36.12405414046041,-46.022729590622895,-57.6829397777525,-67.35447838304933,-73.00150264578997,-81.34999573203538,-99.12181829101542,-112.52803979156388,-91.48071561350969,-32.78003868428731,23.795902913152116,44.528997045289316,39.08558614179229,37.23844461225669,48.45179709375831,58.57431342543184,55.43985057682969,42.62085736478357,32.62837939304671,32.56053529949591,37.67599133827636,38.37804555451061,32.66876338673879,26.019355058550875,19.996436501314363,11.219234984815857,-0.7612711093941879,-11.345954560785916,-18.191041119193155,-25.351358714884093,-35.80744210285529,-46.09884086885923,-51.48809525393771,-55.91031762479068,-68.3610621895196,-88.52723777850788,-96.26865471280587,-64.9946194537516,-3.0562967549489164,46.62656291599509,58.91336025591434,49.38710415786412,46.02715309499018,56.53417861252102,65.86770973227758,59.974408557359915,43.67942304152163,32.495886284018695,32.619027509114176,36.52241593832854,36.66462165918168,31.428041229392555,21.142562269088966,8.02297634414689,-3.812883449802425,-12.048345972988045,-17.832783223255802,-24.800339794753466,-35.47416688359925,-46.86105196034292,-54.86164719530798,-61.62464096125867,-73.14116668623011,-88.2574043616127,-88.20725268463738,-51.611726512757485,7.639735560715764,48.643364658249666,54.52807710387014,44.54354353353502,40.50144757508591,43.847642234770696,44.44920581549972,35.914085517249674,24.588469921094735,21.918986969818427,27.07480511173022,30.312659633897752,26.4916493094118,16.791822042931518,5.529764672263954,-3.366944983088559,-10.521398154808923,-20.808568234115345,-35.75998605119378,-48.07285076868692,-52.04957768375273,-54.53041867169869,-66.56156774395888,-86.3392654433942,-89.65950360586092,-50.663516318590055,13.880560384326012,55.8122058972714,60.35877769827995,53.20413532218434,55.49144103393113,63.64521617615508,64.12327732523762,52.65598930276012,37.81344685069159,29.653382015524535,29.404231095952515,31.753524980238215,31.872753712072228,27.107223786781642,16.97544787878403,4.984566362351103,-5.148529525203853,-14.128872799950026,-25.292356658299305,-38.22849015086835,-48.85518028894778,-57.75198258364136,-66.21528082010158,-74.22793803392904,-88.81623018715553,-111.12412612395245,-114.10083925598998,-69.07922238243475,2.1655021734295437,48.08683963341384,53.83529218966816,45.79870995955444,48.89127130236686,61.05080887023696,67.22569804829504,62.81118461002707,55.04763267600443,50.44718209362207,49.579835035544995,50.299191301698215,49.72817096368569,44.782693945131534,33.19144970485708,16.687126884816177,0.45916520861007465,-12.036606904412825,-19.902977884645264,-26.206383715740788,-34.97331545841676,-46.68862250202855,-58.11185411606403,-66.62571601705204,-77.07343879304936,-98.16433469892341,-122.35635725916976,-118.04894169742037,-64.92311272220566,7.0854712053472735,49.391606861617774,53.36023146843536,44.93704237197001,45.65150359063675,57.04689519304939,67.5980972140251,65.99120440833381,64.0,110.0,75.0
39.90796088660321,32.87075943789362,21.243475149352744,7.96590460040245,-3.1060052424741174,-11.607353942893614,-18.56217210560285,-26.486909314784267,-39.94997596043239,-55.924356029608624,-56.77184815238715,-27.09884321297957,19.879225094639377,51.27723586669798,54.31788195260535,46.988389616341685,48.31539544838597,58.00642450037798,63.1951203793774,55.46943299215471,40.06886387102924,29.554081665016835,29.545062317268435,33.26106333476431,31.421215180143978,21.359175759667252,7.650819819157385,-4.046632190806336,-13.094500815892658,-21.516641619345858,-29.9980831135046,-38.76729199722322,-49.30071439368747,-60.90145550029728,-69.27282559777211,-74.66401754929277,-85.59373315993719,-104.73879938217688,-111.05903631615239,-77.20224160083686,-14.053083481413829,33.864904681976675,44.30364787456007,37.14975608528377,39.51518126527724,52.27473951939687,59.17733304225091,52.21784476833705,38.92290084006456,31.582365828531774,33.95728007617172,38.640259130812154,37.193065466845965,30.621122021562673,24.33906760878022,17.875295436196883,7.947372276374867,-4.197194063733643,-13.613291298872815,-19.995185664736667,-28.06119388531694,-39.08569866290094,-48.1948456859411,-52.44613949312552,-58.39929608367211,-73.86901313473267,-93.41609812324339,-91.84872786482799,-48.61793083539969,14.451083755269961,53.98913063858453,57.038521001978836,46.8946088802736,48.02416451502195,60.231120998065336,65.90798389145016,55.667720891048205,39.33651106108444,31.528642810840104,33.81857221603189,37.09782327892378,35.707487566962186,28.92598270367933,17.47658747453091,4.3001799769906235,-6.569886537907453,-13.84794472148394,-19.53460801779078,-27.52807399883481,-38.93300745208773,-49.571588429633515,-56.67774371727562,-64.25997685615083,-77.60189936476299,-91.03160228866706,-81.67672084776582,-35.092533440301324,22.927077440644965,53.58111651204371,52.01484149109881,42.306099791872015,41.09100285630442,44.761779877212106,42.91449308978384,32.3380073701022,22.654977517681033,23.006942788406782,28.589400197994394,29.965755589647937,24.143167709586994,13.471310524208699,2.63971361271656,-5.446690176183878,-12.943074520643336,-24.83296744987073,-40.02103637801966,-50.01761517340766,-52.36593303634562,-56.718719708074666,-72.13712403394013,-90.48859657045942,-83.09180375266705,-32.546726075607,30.038073840090963,60.23596288057634,58.11962334512171,52.62472000307829,57.86280678183651,65.03912889308259,61.8439354628404,48.16576098930292,34.520407818495066,28.949407654286578,30.078473077234026,32.16447531830349,31.0779844310358,24.652108360700392,13.478041198470459,1.8061146373293353,-7.721711916383624,-17.016325205869155,-29.040532214032947,-41.62829174988248,-51.47330947948737,-60.29147730979625,-68.431500259525,-77.33273035666274,-95.09536358099517,-115.73465105806534,-106.26075054079959,-48.823503591656994,19.757177252662483,53.162921058239114,51.42810082999497,45.11137877242189,52.15124402686109,63.961255403547284,66.84418105666323,60.51026576299731,53.273879903115,49.887078052482046,49.74265581449393,50.40294826151119,48.88178101710176,42.14862597517442,28.709968635392865,11.767127731750977,-3.6329422644042944,-14.725008046799383,-21.674799063507017,-28.37678268763579,-38.148614478541205,-50.206485117887375,-60.84279766527884,-69.00340343490083,-81.89920727282713,-105.90225772339404,-125.63798842376232,-107.413810671718,-43.629371937010546,23.757890091738815,53.61699391911379,50.9065182156061,43.767218135187285,48.21441281531418,60.81832875298005,68.60625131999748,63.240876859959485,52.26598701825219,48.35761595729224,51.630078285821746,53.31653025799386,48.12051143701876,37.09758026191712,24.62006774961314,13.587957933293621,4.795742559279571,-4.560615214674786,-16.561792024332043,-26.435470278614087,-33.04578619223096,-43.30408514384453,-58.861468128613254,-73.34113616498851,-84.5191283909365,-101.05697699730986,-119.7731199586908,-108.86433631542046,-50.70394712542405,20.32597727127479,58.295751283855665,58.52928757926084,48.57036656615704,48.031430205174715,54.561161157695054,57.37026733942214,51.79596917566493,42.986785328673704,39.047493628933424,41.57861200370424,44.67114094444571,40.935513767206764,29.81715715448177,17.153927522709374,5.848667006057629,-4.493626162505946,-14.534051990805745,-25.03938060062542,-36.42924683428839,-46.923456625909914,-55.86339345658904,-66.11513795439087,-83.08392993100668,-101.51073187935407,-91.48333860668416,-35.49847066348971,29.45077323428168,56.93575361223951,48.838755937965956,38.286486554267675,43.99176369700264,54.323641502291046,51.26491440548346,35.994682645608826,24.99134936830336,26.917141812350014,32.99404845184204,33.626426189600515,28.595369891574695,18.751383448506367,64.0,110.0,75.0
-49.80587568574794,-53.53485156173397,-61.77015321522451,-79.87300655721283,-96.54217978932417,-83.60573947398042,-30.41532318967084,29.744283509459496,58.03435302853503,54.06887599295176,45.532402986803355,51.07586026101915,63.314684683738626,64.46959490481483,50.8197504721221,35.80947089546835,31.48776668689511,35.05907401365056,37.249298064101474,34.2975955628702,26.0183950354586,13.653499677347375,0.7935059940767464,-9.005957009961765,-15.498035917164653,-21.448520727187496,-30.585255969485566,-42.31795513529864,-51.93118899239209,-58.520918228901266,-67.44636401810092,-82.21316460178925,-91.8693162664369,-71.70792196375476,-17.51333043043226,35.65032008400388,55.61345353480935,48.90073744855305,40.932093956507536,42.126551100054,45.16712933763429,40.54572651925531,28.838367929857537,21.67719675528438,24.559857513582404,29.695785549372722,28.986601764955395,21.37230054443726,10.149937562507443,0.014382315043729652,-7.448649707173393,-15.778337502707826,-29.19746444242293,-43.80309643312072,-51.22447535302203,-52.85268441854026,-59.94838483241418,-78.12380657854607,-92.43840400749876,-72.52358125637076,-13.309920033042687,43.11284265474546,61.757835519923816,55.73551518366352,53.112707344373646,60.4108605002538,65.47378334677812,58.60905926491654,43.70214222328834,31.973882802084738,28.832903709496637,30.81511805138388,32.29941854833194,29.822867644308367,21.766961800468998,9.954366545689366,-1.1593701467255098,-10.263201766394491,-20.176887224463762,-32.848707848027836,-44.74518361593096,-54.02915427866259,-62.77720987393233,-70.6321436002747,-81.2700320656322,-101.85179395516707,-117.74421772077781,-93.95985956744703,-27.570291742270634,34.03056202074729,55.091908893633594,48.74933669421297,45.74726137885279,55.833662878315536,66.01681693008769,65.63097298074197,58.170921097178095,51.859876434194035,49.6049669219924,49.97643448216578,50.32513163563038,47.594676597804366,38.91679776132866,23.921952083271183,6.997530233381539,-7.351341769255469,-17.035417481033317,-23.431558747769415,-30.834362453115347,-41.53632924775001,-53.59219287615485,-63.29919816845644,-71.76568917506772,-87.8122565923556,-113.44966225268595,-125.57095451403409,-92.56609343384294,-22.04961318839517,36.919876547720385,54.97546690412136,48.19004811009206,43.70385131060383,51.51821826812771,64.16262196205149,68.38790954765916,59.98103387518265,50.1031660740874,48.91490398965666,52.64378402362843,52.58225966555798,45.359438177363074,33.46057567876778,21.21326150460533,10.854852518566375,2.355897931258101,-7.8665094163675855,-19.886550621444776,-28.439933244989703,-35.3496922847468,-47.46075419202112,-63.46338444808589,-76.67168071011089,-88.33874574766747,-107.23726077952934,-121.29405036184485,-96.32265471823568,-29.070253737321522,35.87339790359579,61.26494776528783,55.406524853382756,47.19646290090003,49.66968285069442,56.15520342599347,56.554580590301036,49.1851856622906,41.1018709605565,39.27264861490931,42.78009925616614,44.5115260897182,38.25689171486239,26.084620670470674,13.740337820468266,2.7981808319940558,-7.404935048516471,-17.46934066743413,-28.286202454327317,-39.643114382222755,-49.60826059729031,-58.46924281551007,-70.1420508079852,-89.17474790403163,-103.13032346843545,-79.4114190239667,-15.040480846630647,42.206450016508704,56.95024976892924,44.626342784289825,38.29495391776779,47.48712273391472,55.21758247445782,47.49372225654725,31.643836979930054,24.355531739170956,28.839738924433146,33.88745861184877,32.6462241387327,26.3142441936726,14.78353195521476,-1.3997168967501867,-14.761438445050338,-22.397206765926992,-30.6688164656651,-41.69737836958956,-52.20181557461437,-64.24832645605397,-83.85273997662708,-102.82237496769582,-92.63635090195062,-41.52412183301286,17.725010275550435,46.595052832020514,45.29841329140423,40.03454126333523,47.818660432788704,61.7110575514802,64.6114517064598,52.683841240314024,39.843281267644976,37.29526748835813,41.21818839107175,40.99376095565724,33.9946855192642,24.87700173682153,13.71896476532793,-1.6122852257568967,-17.22240350927821,-29.087237891718924,-39.11226387435618,-49.74913526848815,-59.927906360469315,-68.90307834343082,-81.77056186368588,-100.8274547176975,-108.57269043157784,-79.18596361218344,-19.044167766281287,30.17569346358705,44.8695889217104,42.968123502541275,47.154423776365405,59.04259987844779,68.36098803954812,65.58185642200527,53.578685897216545,44.9233039640743,43.87312920107589,44.90180532064296,43.508248706985555,37.91447327737542,27.604014953950614,15.388425812543213,5.56580048474437,-3.33994472609496,-14.973706857313676,-29.149036657829196,-42.35255318762393,-53.39634063316361,-63.342315820280675,-71.86230920314753,-82.57659616773654,64.0,110.0,75.0
61.13457098278327,53.81429988576235,54.56402622362335,62.74344333670768,64.81009433987441,54.647844455626725,39.5534797393629,30.210524242143983,29.153456721316974,31.491056751327598,32.0959294400743,28.078405114438922,18.54311912970802,6.516852048723197,-3.9269531074637216,-12.873747331172797,-23.62108720045534,-36.57407275687288,-47.60464773109237,-56.576298739483875,-65.15920628723367,-73.0049978843907,-86.20369906945469,-108.4099500601576,-116.20705234605286,-77.67619618538446,-6.83206561247474,44.53360460156314,54.62167270652247,46.520577826464105,47.65085847187958,59.489494967996265,67.07876390176843,63.797920375631676,55.974739830899104,50.81241544559823,49.547052768330616,50.21095012509419,49.99014186180002,45.79847839895144,35.11592104948323,18.978335218563885,2.457204486231062,-10.656706930289603,-19.047208132987247,-25.288679237043482,-33.598651137763724,-45.05216608563597,-56.75083478535959,-65.5832815678535,-75.19594044314086,-94.72104828541924,-119.96367738318499,-121.4417445084616,-74.24138106726839,-1.6069833956159918,46.30811123544676,54.209426915783254,45.8011453192243,44.78716422981498,55.264223155942716,66.74350392089121,66.98734525456362,56.60974345041689,48.78161687604706,49.91143233017729,53.29589752220217,51.211256912428574,42.19335518565581,29.817016152415658,17.969678860441796,8.314561735630106,-0.2547733316129108,-11.379024649835733,-22.856180951761445,-30.260344294877008,-38.163187463952816,-51.98437004610938,-67.7740618419239,-79.78525923003886,-92.92060656079828,-113.22706249768771,-119.31821207492129,-79.85924438206962,-7.701746027322635,47.75673968168638,61.48970517067223,52.2252625478878,46.85785467604183,51.65760114678265,57.17717382361049,55.02558717799274,46.51564675499598,39.80092266856347,39.984966454222516,43.832414068086095,43.61658948100745,35.05676087926572,22.37909235272658,10.454843816694025,-0.1935136239665413,-10.300805432669753,-20.47366984897534,-31.59678808067776,-42.72083733112904,-52.17859829999785,-61.28730583658173,-74.89502370491259,-95.04168034729727,-101.39241485709915,-63.50919046757931,4.701878716101636,51.0112889434775,54.59437160127029,41.10139473893703,39.803859366008524,50.82527391325793,54.655565136468894,42.9728834038998,28.116647554910013,24.818960408725047,30.760381944980267,34.19049434244007,31.263136617923557,23.60526993248697,10.354971049634873,-5.91138228827328,-17.353902952500754,-24.44321877476283,-33.71159078461244,-44.861948826098896,-55.22543450399088,-69.03261984667866,-90.43525864291458,-104.16841823796301,-81.38354049818665,-23.081847645201893,30.019134106523772,48.32599677735692,43.00994535544938,40.824711790835345,51.981951054857994,64.26387190680718,62.28556189204422,48.31988160903618,37.94399134392495,38.24274237914218,41.93713700635806,39.48435483902218,31.4265045058981,22.021340813074232,9.669087042531471,-6.373921751973852,-21.04325795858318,-32.01085497894509,-42.105588293461544,-52.84380952484277,-62.53835374750571,-71.89371995247333,-86.96155324811048,-105.52624479679109,-104.54763165898683,-63.44322592816914,-1.8165125848887587,37.782445513311686,44.706091089227115,43.09061505907596,50.15434812946196,62.53526059626097,68.98842617052354,62.53716268441148,50.26743082324354,44.00324850342197,44.23397128460728,44.85146607464187,42.375906856970815,35.387319658483506,24.03034412949993,12.241957207863615,3.0911720137163172,-6.331260076799647,-18.942639919020465,-33.206021421482966,-45.705994295384095,-56.384937172762704,-65.92976864018448,-74.3970118886848,-87.11223160166709,-106.36535670541441,-112.59469032204247,-79.15872347084455,-15.912132951358107,34.535399183272645,49.1676584081642,43.03425281922999,41.463703256103,52.19972515175978,64.63416420059775,64.97807537465427,51.417187199296635,37.42629317878603,35.820142362561796,42.328422808023475,44.655701415615326,38.709018825153976,29.960987580501726,22.132150431538314,13.358642595691869,3.5168176776423756,-5.565772079664766,-14.258588495104144,-24.270957203211612,-35.77758189509903,-46.73811188250714,-53.99282257694106,-59.99264658096889,-74.77818478601026,-97.99842248175268,-101.68624602302415,-59.86373634039046,3.962587423229412,41.79884732058343,43.942603110361595,37.76297716429872,42.83503957033709,52.96390074669635,53.99408748157464,43.96317707314062,33.26738931129595,30.806213480305374,34.05452402171641,34.490764975330336,28.230029539345317,19.57835009323353,11.76547542032599,3.1138075246375667,-5.813789067993622,-13.352207977687947,-20.34656940087781,-28.825354247159964,-39.144635392642286,-48.55566642959263,-56.75169163326585,-70.0099302972622,-87.07180707009059,-87.08609847760226,-50.88933988832171,4.454064203603533,40.676744262675804,44.80191462054841,64.0,110.0,75.0
64.59520501703072,53.51158116259187,48.31268042800066,51.09276029627115,53.4442975769364,49.22652439148191,38.74642576929259,26.236163545464088,14.921192439625337,5.8976891592499125,-3.1320293385661238,-14.947884603887912,-25.400990297270276,-32.11528205855621,-41.5522131545397,-56.68855096195035,-71.68257098349254,-82.95199382116229,-98.32855304605131,-118.14615430730437,-113.18253424336943,-60.373594255243006,12.06653961256771,55.81732399601146,59.75779669918551,49.53678914418066,47.47574427427186,53.6898551258243,57.48693599502607,52.91464486642444,44.02020206580353,39.13919745410277,41.03256358371896,44.525982749428756,41.95158670331158,31.51529963181462,18.77316618946086,7.280545521826455,-3.143749132488563,-13.194587245784264,-23.574362158335294,-34.91492927406394,-45.63548948612149,-54.696888981865065,-64.47427162979774,-80.36643783729083,-99.88422428017668,-95.60957745945488,-44.74789614981958,22.33909334833833,55.8972154984189,50.8054295507135,38.823431655106475,42.489033757844005,53.465385278505,52.63987879227926,38.16921826145621,25.69528216319755,26.12376630412079,32.39460286485542,33.92415430113691,29.51905681219545,20.40463969556766,5.616071749837247,-9.9443387312621,-19.530673776585306,-26.739012483144474,-36.93084910568613,-47.89963617745492,-58.521166943885454,-74.59651760399322,-96.51439186944597,-102.24102549737303,-66.83642469731562,-5.175077877634397,39.08708604176607,47.98687847517129,41.11366087188013,42.8956592684971,56.26234590469579,65.48741423858482,58.85238075786997,44.332418183690535,37.042012175061835,39.492243348991565,42.05380981306358,37.480425339591406,28.805638504983257,18.910461939370276,5.25548742975965,-10.99296119468534,-24.51291287758703,-34.87609058160382,-45.18056563274096,-55.83561147597332,-65.06729224253915,-75.41022520160247,-92.61641106623583,-108.60246915023794,-96.85330488480548,-45.79391273216254,13.304877874429058,42.389215056282346,43.915700535036926,44.09374647706791,53.63918954237091,65.51190223409516,68.42610401075945,58.96631149345335,47.55879112108611,43.668584886982586,44.59685304985,44.53324173169507,40.86027505366323,32.463687215494026,20.423104494621487,9.370432528035343,0.588470750662759,-9.623132902562043,-23.065734148376876,-37.08301057534144,-48.903965032554254,-59.29593185584339,-68.37745797111059,-77.2876199455931,-92.36851169999336,-110.92946425355342,-107.55073727274323,-62.26951277629527,1.7757689354203867,42.358557855512494,48.279698484829936,41.32012273412983,43.5340108033771,56.3143004986458,66.38265305693662,62.11693583416815,46.628886610136036,35.52973102970315,37.43451909232065,43.850324452711405,43.65087692355872,36.16761136732661,27.637447873444774,19.78213690541736,10.534358228051072,0.7733780069282121,-8.035624716534398,-16.966944304163807,-27.487578304584364,-39.15163306282085,-49.29121651428556,-55.482789834498504,-62.940150136307864,-81.34645448433352,-102.77983934653274,-94.34857424609466,-41.38525815312126,19.039677212605095,45.200567465436976,41.660866485665245,37.92339003196958,45.950197918670604,54.59950505973766,51.91323474962877,40.38102954026282,31.59689199932208,31.52123312899521,34.80628379950606,33.29764936929945,25.70259429090035,17.280665163609736,9.402907378682585,0.46215008806346813,-8.15200976649453,-15.333884189622356,-22.5743507714399,-31.68732159579361,-42.10792335375463,-50.843846220015756,-59.79239238650481,-75.11734923988942,-90.07664705520332,-80.41816728197001,-35.150294704875826,18.243997996873187,44.673938742061374,42.658673277549084,37.46323984932079,44.39244496943399,55.50877184357376,56.864888066314684,46.1132443174942,33.328723178119304,30.449248049319362,36.2036208600632,38.332368794623065,29.55125018166226,15.084324288830704,2.703092560727458,-7.994081339231183,-18.853527876316967,-27.862536794149694,-35.7426584427398,-45.83543038189312,-55.54998671346698,-61.3141697470567,-70.64608747500074,-87.42694303358162,-93.05537393357939,-62.68253426602877,-4.780088582364344,40.75395821071697,52.34991204502768,45.07986859193531,43.37402166142877,55.131801948594536,66.59446153826214,62.19713002463939,47.292374390070115,37.69364966685723,36.5849964967746,37.029144855753,35.846659346188744,32.71359429583253,26.01181428579112,16.456818969933003,5.2887810992983,-7.664811017123989,-19.399891328394006,-27.603466814290414,-35.478609873569376,-45.543645423348956,-55.54551439315063,-62.871599657517606,-70.29895728860535,-85.84802063383508,-107.78311795722267,-110.2618045484995,-67.34884711167281,0.9749099030096137,46.49037239650674,54.450626537986054,47.7025957431,48.82453244761458,58.62188328436954,64.71164983049087,59.91473903427176,48.80563301367993,40.42922192986253,64.0,110.0,75.0
16.676011397816158,0.7872299030103649,-13.382226879883142,-21.498946881552488,-29.355279452219413,-40.2027414914155,-50.84658522173665,-62.29467130221491,-80.83148610690894,-101.29454031732428,-96.56415466387692,-49.86087500415333,11.059668912024872,44.92001181302177,46.31156890549664,40.106509276216414,46.06999658069108,60.1670765398042,65.22905740932046,54.70837987901277,41.05319268704686,37.042056231959855,40.732087798365576,41.48478254581035,35.142391555914124,26.13748702831697,15.449314192170112,0.5855229326059112,-15.336332613559547,-27.693669933521132,-37.76079742072899,-48.30602573103158,-58.675157677425226,-67.64717301833002,-79.59821528034361,-98.33026069545724,-109.27142355547916,-85.52581195878861,-27.416533873905042,25.583961977038417,44.523395477462664,43.16119698452352,45.99895164791064,57.3420735306995,67.69089422919438,66.71456541793974,55.24398721070035,45.58177148032199,43.747863677704615,44.8473541846148,43.90882996250841,38.939814721690084,29.19852021541496,16.92878296515169,6.729635563713157,-2.0513021444568547,-13.220641556069893,-27.238416233668254,-40.74060213295581,-51.996238893793155,-62.097429247894716,-70.75482846506644,-80.74492794220713,-98.10907404640028,-113.64558706084907,-98.65968802246043,-43.66367446831018,17.2476412742315,47.04747706499934,46.328780020267594,40.53269388858103,46.58523846547423,60.19098128538699,66.8260096106364,58.219772814172444,42.25945289578785,34.85907871483653,39.43591772684458,44.73740537245294,41.98386119394796,33.58324296216607,25.401505449780572,17.28341400802465,7.664776534421513,-1.8681271223845444,-10.51384113953678,-19.822890327504226,-30.813914905231066,-42.405618109389664,-51.45613542635157,-57.02791595581956,-66.92139883124756,-88.38823535608614,-104.95060420843008,-82.86220580114986,-22.254110086647316,30.875537875469146,45.948007084225395,39.51762730194339,39.239586188302745,49.11249821095031,55.17599406732727,49.02730072730933,37.07304205907069,30.741889029209347,32.53310112912962,35.10673854425467,31.53878658234182,23.148321688539884,15.052683090882311,6.91858212607417,-2.1569721790964147,-10.348137629649326,-17.320035537964444,-24.973642471579137,-34.68522578330702,-44.891981356072876,-53.10048453287478,-63.45902514475918,-80.3463676573353,-90.94335693613945,-70.46306182319734,-18.676168179015576,29.515351800250457,46.094310063930294,40.343661592750514,38.20737917634541,47.890489387671934,57.288251870632706,54.7444015420958,41.98722493136979,31.20606477345837,31.68874143470694,37.737192813122554,36.897786392016556,25.51533235027919,11.14848163459867,-0.39671491501716766,-11.16873266871248,-21.72365207312933,-30.08701297987834,-38.37805768693753,-48.978618179349645,-57.4958702397833,-63.157252606285624,-75.09508833054765,-91.51948947019555,-88.50881627436613,-47.24017170437139,11.359082840193516,47.46857916464926,50.992187789095425,43.21657934918995,45.664114736692106,59.396597338677104,67.17925215775817,58.217101441117514,43.49310592006913,36.76675690700712,36.82499652410506,36.85004569827568,35.20713060417533,31.184583488953162,23.440150468611098,13.419494315564162,1.6725144513204808,-11.375588934027643,-22.080257852967772,-29.70596516763147,-38.19424143101089,-48.59884809913136,-57.9613820744553,-64.68529377235421,-73.65484389229702,-92.21331318588204,-112.09552521846544,-102.7450593999797,-48.03048845930691,18.10776218558054,52.03999676479434,52.70373159125449,46.738711128484915,51.24456695451741,61.293648839098545,64.44687181806745,56.93015632101793,45.79693595344724,39.21336788247253,38.698989916059126,40.52695378512949,38.83451469448828,31.50449196724246,21.74048596872984,13.22209296583054,4.868731817089159,-6.114925179677719,-17.595998183256285,-27.597788376645,-38.3177178894559,-50.98930857562675,-62.407404627996385,-68.51466590859401,-75.18426676058343,-93.6392206555962,-111.64370332284791,-93.20215213527416,-30.033950968077992,33.32335988413766,56.721739202035494,49.87918178423995,43.935022457695965,51.33963051059039,63.090600520680105,65.11535959644776,53.07798198082541,40.0167322647356,38.52126915684485,43.1038437911938,43.50611183177571,39.844699948856906,34.996591874378275,27.783240644480813,18.348564432540574,6.967443235965393,-7.005430858284633,-20.507840573101326,-30.757522829684092,-40.10938500088887,-51.38995569365963,-62.881468673540034,-72.13937175398343,-82.8654557761847,-99.61285856406184,-106.32275525325454,-72.8869564289872,-6.12863726723681,44.58844020598021,53.480119685930994,42.68512214555842,39.41578012927821,47.660924435769545,54.740374989468606,49.42537365005844,36.06184369273333,27.45110886583527,28.262468939797635,32.65668663545207,33.06731262248778,28.101343553924234,19.051633981814977,64.0,110.0,75.0
-84.92515423733364,-103.8754942366528,-113.68021616570756,-86.06929373532432,-24.55235615306419,29.821436598695286,49.014973298338745,44.03171266048113,40.89298804378465,50.33350430667854,63.44232259094194,65.87676911623201,53.6404635188678,38.706258017750095,35.30299688523054,41.47027762095397,44.864178839492546,39.82028898181732,31.074955661598825,23.177003082738075,14.628469499510624,4.811874071534544,-4.415334163859989,-13.053726827450966,-22.83305853075455,-34.20702932080272,-45.43978269083139,-53.2578507494374,-58.91832579948968,-72.04608864088749,-95.19022998821103,-103.63935210210118,-67.77348747631376,-3.8893036012488964,39.159077341791715,44.839619093394944,38.0817668589074,41.53359470308285,51.90383406193891,54.620834393050416,45.62029965295821,34.30602551528536,30.63864960619313,33.60476539791319,34.83022431505559,29.34320602909763,20.67644728187642,12.818222400090796,4.33002458539205,-4.688104985641318,-12.42416688534264,-19.36741774798884,-27.56522320384431,-37.74237357730541,-47.449663750623714,-55.52069595548939,-67.80105347365523,-85.16731831108008,-89.03265059603093,-57.60675337789756,-2.5635756906510996,37.854510884225434,45.531142046080575,38.482066294650565,40.08820688799011,51.35133273937623,57.97054227397483,51.69694057598583,38.04149580428395,30.144139988641232,33.44102033490086,38.62786673028882,34.49330130482481,21.248004476612,7.521138317403874,-3.4554777683590134,-14.351604120782483,-24.370786773780104,-32.29716242658358,-41.273159774322394,-51.923120076492324,-59.10363899651488,-65.6060110399368,-80.09865014322523,-93.97441420355773,-80.44898154928761,-30.197398674959153,25.371222454289363,51.23315795471263,48.70627151459414,42.35479212610109,49.03762292642101,63.11750437595647,66.18380768958703,53.74323427281191,40.49019419823408,36.43980155097337,37.00952430328367,36.53259688505065,34.38071940492653,29.31406059337501,20.69231414491592,10.243019692287858,-2.087758765145408,-14.865699746441742,-24.460648259696217,-31.910014539281534,-41.099489642878304,-51.5593827414959,-60.107778889318446,-66.6540959411727,-77.91711027364421,-98.87977255669705,-113.88739136401264,-91.02605243005156,-27.685943805290538,32.196396717772956,54.62461238241804,50.48919711781516,46.81846878287841,54.172013757957245,63.32218402917978,63.20960124898734,53.63886049326461,43.222958787167634,38.533566995512004,39.24274017398784,40.616972900937455,37.22329020848301,28.72768123354419,19.082303482877286,10.968613948103071,1.9689578227011966,-9.55517383866977,-20.59065657739167,-30.49785355981803,-41.831234596070495,-54.660034007005585,-64.73374002033101,-69.77965375221474,-79.16356690839366,-100.33285135532269,-111.48855916932413,-78.3403319646515,-9.198546379794546,44.687759289458675,56.42563332104251,46.98540148651084,44.83486199291952,54.94433872673407,65.18147664756569,62.79070013158875,48.58951198309058,38.29886549520885,39.80070241463178,43.84697767831754,42.665611828795214,38.57183116332959,33.21236206822806,25.222989275776634,15.318935118678016,3.143278917315807,-11.160524141142904,-23.78891245699409,-33.36520954004428,-43.15883221647681,-54.85071950967179,-65.77649121072523,-74.74494685985114,-87.23066902037213,-104.00791352080529,-101.62093916696165,-55.19819355034019,12.350598535817618,51.12465909594658,50.8559864175565,40.32093703493102,41.00205671107614,50.520162979063734,54.62181231103179,45.814533450872005,32.637766883257655,26.829077830270982,29.564894730859294,33.37908386523162,32.10729874112721,25.899866223924263,15.643292277459818,1.8672528251413802,-9.825278351865654,-14.649794643910026,-19.213874481644176,-32.12461909185195,-47.408159405869625,-55.127478973939745,-61.0993755012648,-76.6987503821284,-90.18419633319402,-69.42542218763248,-12.439970028947323,37.34358677315608,51.72730036326046,45.442877850538906,41.20610812641617,45.83337021534047,53.36439378943999,53.404276936928085,42.638947959469604,30.85326167634071,28.33448354981542,32.69302280795881,33.746514576358784,27.533257160420174,16.231142132768685,2.5832786187230306,-9.727657646611473,-19.076450675451667,-26.484316879380078,-34.561024130046626,-44.99866712665784,-54.784164154414185,-60.456256618399614,-67.26848468323217,-82.76990837777868,-97.5478969519154,-83.26787228966218,-29.890605047165966,27.955245715019416,53.47903310869207,52.124907546258314,49.94305852565407,54.613997053944004,58.94124182818532,56.57858910731821,46.77097994068231,36.84360782353051,33.778367272910856,35.783226482007784,34.79660950386907,28.343933322723142,21.08780671955322,13.913572006991862,3.791241357459093,-8.936354026676083,-19.992731640522557,-27.669835299935063,-33.4044869629606,-40.1808104114307,-50.00766472838274,-61.51733125869085,64.0,110.0,75.0
43.710963735914646,37.524762983843964,42.885601489602216,54.3663817157695,57.48071342428917,47.9723479571226,34.633954802323274,30.134278794991367,35.36082722777362,38.651734355852966,31.261492430069037,16.990337311460195,4.174345906031501,-6.547763354852324,-17.4648583810577,-26.801362220880833,-34.61137608667143,-44.37224960575271,-54.50662351564857,-60.59003826381477,-68.85770986231219,-85.20573436452355,-94.02567197158344,-68.98840361090379,-12.687257886182769,36.607452520939844,52.470339286691384,46.16659874902525,42.74602959840755,53.13148370729086,65.8074633765833,63.73543040873811,49.25084455354832,38.37667361565516,36.492379853129904,37.05959558471073,36.09196574348614,33.30759123861429,27.11959891762574,17.818308168797635,6.895259598980051,-5.911154702488272,-18.048647761669653,-26.635677059280184,-34.30121604123881,-44.12848965395204,-54.34158729576839,-62.03158403224638,-69.01257143013459,-83.1403898941349,-105.20474128252471,-112.30818042894668,-75.53342477974783,-7.7286028610374995,42.79929942436714,54.896962161139825,48.44552952109283,47.96818926528304,57.25066380752676,64.49558695003593,61.11696235991834,50.297304400795674,41.180168887672856,38.32885022605321,39.853695358654015,40.26618249652376,35.15670752108278,25.86157392072839,16.59810304988882,8.63395299947121,-1.1873346856757305,-12.928576223581308,-23.464668894169336,-33.53766545122248,-45.50330801006242,-58.09705061058747,-66.54157482680417,-71.39527190946127,-84.36161981238571,-106.3200532043914,-107.3056912376864,-60.11285741389494,10.147537144893871,52.15954255068557,54.33212525985496,44.89237982394359,46.8692034413886,58.56136188388521,66.12574430204928,59.3512941577293,44.494534833280696,37.70921716480063,41.26749300667467,44.06599904289128,41.5996316146087,37.22312010348185,31.179097330369476,22.51962611926535,12.09936121432357,-0.896099350322207,-15.153135193291547,-26.776173303658865,-36.00541624343456,-46.40404414442563,-58.23895858602584,-68.44970807302865,-77.65581477752848,-92.15470200967242,-106.85541237595604,-92.85491231467545,-35.51439010246964,28.086298320919887,54.1082876909015,47.46363510506298,39.06893511221202,43.4050844348028,52.87912091693231,53.29590713264563,41.8203618779627,29.913703740834055,26.981399867831126,30.945857175175,33.6217503647463,30.737378660085355,23.372924552399923,11.893691003425818,-2.0789335456466707,-11.872883689473444,-15.455903904404884,-22.033032285669442,-36.892274998980426,-50.51662555656688,-56.381552430781795,-64.4999742777454,-82.16156736800359,-88.86166440408317,-55.260296158985554,4.805049151302073,45.107772888303096,50.823996007968766,43.377870535048814,41.728566079778474,48.16265628503198,54.544631570695714,51.17431557009037,38.72911008393325,28.999414048369548,29.32544129859142,33.706392615148246,32.638228789395704,24.680834712775265,12.371884249667614,-1.2482973097007755,-12.724729819882848,-21.32380594851624,-28.617548119337496,-37.3637435063839,-48.13563731226007,-56.81076400024627,-61.86235973282371,-70.79286939046658,-88.1847675156009,-97.64774211078222,-71.06551502110524,-11.458633830235478,39.28121124311442,54.640801902094424,50.746612449231975,50.81931094481382,56.252761157388036,59.12420779595395,54.31692920878045,43.48692699054345,35.143180000044836,34.155127585191075,36.12578573001687,33.32484086921154,26.156230502334616,19.129307070526924,11.39393636006926,0.2107350273434312,-12.464749078441011,-22.530629053934888,-29.417922814796995,-35.107856882864006,-42.71517496096311,-53.25936974603263,-64.91953761687463,-77.57881140826133,-91.65788286823583,-93.26906871589374,-59.99810995700374,-2.0165083194628033,39.97408839524809,48.1115970922702,42.53975827939579,45.66054255539216,55.86078926261547,59.70471495099667,53.00900695089274,43.1011094646778,37.488073992284924,36.325809622500586,34.69107213193696,30.146970004004316,24.831015960302132,18.438062515425614,9.864881106343251,0.33872268222252805,-9.285258193038802,-17.59752628102457,-24.837942655567897,-35.524875075359425,-49.40556817867664,-58.80484657826196,-64.86415662506482,-80.06734941618721,-99.97382320482522,-92.8126733979811,-42.7321498906232,17.388766060204656,46.599591404961416,44.61497534635598,38.27390442914109,42.937704046711964,52.98228406592424,56.38729187038287,47.772328934709094,35.87070298883899,31.722267756266113,33.90546104441762,34.05956317709969,28.70400018941448,20.947592158311622,13.969585397076331,7.993309518514539,1.1871699321208649,-8.227079141000646,-18.05720055382364,-26.354789851048846,-35.36865114524103,-46.19235052456735,-56.064242556049635,-66.13668263578408,-80.47966875253131,-88.0311830908918,-64.35686579763058,-11.89329573260627,32.23639050845669,44.86541156447589,64.0,110.0,75.0
39.70465706522354,38.5130223323668,40.36769969634379,39.407256335825416,32.72189249928405,23.017829601512197,14.26532598980353,6.113850827789628,-4.534708195328066,-16.16175867832512,-26.289277041518098,-36.76289971694829,-49.25902239192911,-61.15667459937553,-67.94382327320108,-73.75319062637055,-90.56737381412883,-110.56634983478484,-98.6783538005885,-39.743762948503814,26.797795004831745,56.00949855664172,51.33493576848595,43.94410055839924,49.78629648794061,61.813780520355394,65.74935762696045,55.149017126643486,41.192983676400736,38.09172513425923,42.60249501231065,43.78226539982253,40.41375307879874,35.74206700042927,28.904175404738677,19.694024047406383,8.645812580239793,-5.068298751465068,-18.888400711827053,-29.535645418097,-38.772550435740136,-49.79706298356022,-61.46615465593912,-70.98131392212014,-81.07599326658338,-97.30908793204904,-107.22645574018286,-80.0379891819341,-15.252591730930801,40.27419200752577,54.190322606460356,44.07403770893071,39.034344733778276,46.28233801978217,54.396562540600925,50.86139181973667,37.81528012019732,28.02577753774527,27.75308666313069,32.1851247304834,33.356190351730255,29.009043701022488,20.49923175456051,7.884224704889496,-5.644020715839792,-13.303302997354194,-16.54046009716668,-25.673979674036044,-41.53216799745402,-52.83519296815684,-57.83251957290552,-68.91824893469602,-86.8140432316807,-83.82739753045382,-38.609831532868355,20.119234356870482,49.70973145975181,48.876090399104434,41.91958884031217,42.98900760151086,50.50542407362527,54.83327772553886,48.096244269254534,35.083520997078374,28.089737095072394,30.680346871994857,34.191252896403924,30.934645104642197,21.467249167578338,8.392611107490094,-4.876025688730649,-15.469151050973181,-23.451246144542562,-30.884927629128793,-40.377372920153114,-51.082768632665065,-58.455456650166894,-63.602969727510796,-75.18215466981299,-93.05633849518463,-94.50658701992283,-55.77887490075561,6.0989517533586515,47.30947914661693,54.16258900745523,49.892206980896624,52.18859774079899,57.65208274237574,58.62548879607751,51.49110515010493,40.44397045177039,34.12374510342911,34.81140778358411,35.99631821133194,31.456940026307855,24.031739766799586,17.1254679161466,8.546103136152487,-3.512478809787159,-15.741579441238759,-24.79087591258092,-31.054712373360278,-36.986981371402194,-45.520013250968475,-56.59009300507225,-68.38133400912731,-81.69846789861475,-94.54289416830294,-87.72458443535152,-44.139156599919566,13.389070255103162,45.42928310094108,46.58223399047548,42.14391570333771,48.47989566967437,58.087610495540716,58.671318347202245,50.0393343189654,40.882198657829946,36.868359639371086,36.13093422196847,33.61112666203174,28.618498586746966,23.19282618237021,16.14980601272769,7.160403785732146,-2.4749698754764404,-11.889501242637422,-19.657678545196482,-27.372971647797943,-39.50928123125172,-52.850665208227056,-60.40607459163241,-67.89381913615112,-86.42001180048075,-102.20871471850083,-82.15157634794423,-24.121300538858694,29.911747239119077,48.19187223449536,42.0877042068953,38.44590110254999,45.82690136095663,55.114869447273485,55.00457569032038,44.03539614403433,33.67479462023567,32.06090697615255,34.473183838595226,33.01760162551879,26.514427014924642,18.79465295074532,12.183886292761903,6.236255176202365,-1.2822404814203565,-11.1877798508941,-20.572902975742934,-28.748409515989422,-38.39849675893066,-49.24365335936717,-58.7089420592417,-69.87817502368019,-84.4483847240343,-85.16863999202945,-50.85300032782584,3.446967043930701,39.11220368497327,43.94279616089186,37.62697937194134,39.868523732415625,50.17966239074702,54.222387295038615,44.27327108718477,30.443865691804415,24.59225491712205,26.083712388328074,28.51316696007155,25.28479478933645,14.573323386176401,3.3946154529736043,-4.691418421874384,-13.374531723771844,-23.974065088317758,-34.021675460939804,-42.2816809740481,-51.8312450265191,-67.19381711494991,-86.27202434755291,-91.77584910156762,-63.59241071006852,-10.800882509936814,32.4892656302268,47.66029987558143,45.478448418786456,44.02629980437122,50.45788918255823,58.995869511591536,57.91078283992285,45.12838482134093,32.55827773144907,29.515194254672508,31.97029944405295,30.15192994328695,21.803962126210532,12.339531249908607,4.589137109909716,-4.305169952793447,-16.046810605954512,-28.604238196231833,-39.3432541749677,-48.83647447428229,-57.76534151106136,-66.70378308224596,-81.51988562021903,-98.53874773235454,-91.13360720283175,-44.36282182452729,12.329383331505234,41.391446981120154,43.29428755606773,41.763610715346275,49.58551778351733,61.980467397368685,66.76882292640144,57.404862481345354,42.416251781575085,35.8156920210554,36.55636502073884,34.20855133576383,26.41753043562635,64.0,110.0,75.0
17.259765177175034,3.7575053591549508,-8.654995171709063,-14.281474815939294,-18.197037789519612,-29.984747039106626,-45.70932159514091,-54.50359495912314,-59.87189867510692,-74.14236276286158,-89.70679295252987,-74.8457924201673,-20.723094373341123,32.64650652701386,51.597891066406156,46.519370333043646,41.23941844956685,44.83760424271721,52.578286017344105,54.097898923825255,44.433836468095166,32.01043593089594,28.07764265560113,32.098296099355885,34.04009709907572,28.7120049383842,17.943644376352154,4.399621243213702,-8.25721721119898,-17.984602327933736,-25.525315631494223,-33.34827662692067,-43.529562262332874,-53.707849475759474,-59.84595804978576,-65.93547859771034,-80.27641414087304,-96.59682010930747,-87.68622466183447,-38.33660477531659,21.677686561861645,52.178573293928906,52.829355294776555,49.757122294430175,53.829001364240476,58.65236833299439,57.39331567556612,48.299234918047155,37.84748282525844,33.75515457332741,35.51226570345832,35.30541224804502,29.351330110619084,21.99942306902234,14.978332745490915,5.361983136998473,-7.24685210757481,-18.72207344333719,-26.808930140070547,-32.65523547295643,-39.108989796300044,-48.55074652757845,-59.95784653366636,-71.96830103183154,-85.92662300667556,-95.80700096696705,-78.77823431908779,-26.979819856090852,26.384359433567184,48.07351053793905,44.674585023464466,42.835109911701366,51.596554255318374,59.463671247292865,56.80303944943727,47.05497351132903,39.14792847823378,36.54738867982862,35.74852777180483,32.30040938627253,27.090789274975485,21.406582366803384,13.685178858084187,4.412331435446566,-5.2819681184241345,-14.335757943277772,-21.675160741406085,-30.347130656918836,-43.634435972699784,-55.70683516784334,-61.93369558829161,-72.04337562930874,-92.72286219997011,-101.21481693244982,-67.95609680783444,-5.9415558947492535,39.109182556427875,47.64690637995744,39.92444067812569,39.66041600642177,48.88157689527175,56.39955447658812,52.60554610788269,40.38054913725758,32.31298707937275,32.7540402864339,34.662243583158684,31.518128943871318,24.240080311682764,16.752541008870175,10.466781780787484,4.341029765546081,-3.987820986491734,-14.083290371917723,-22.957150932325664,-31.291469651528395,-41.55512458031805,-52.12520201243183,-61.488504552107784,-74.05806059470234,-87.32619699868215,-79.08574340168674,-35.48435792858144,17.00347279132151,43.176109508162895,42.10596515579931,37.003060167352736,42.54160741050764,52.64863074243161,52.63447348187441,39.96511067119509,27.733916054862405,24.532396106184578,26.985686132437543,28.418023918237356,22.761840513475537,11.038156672881264,0.8488935052001436,-6.974768728221604,-16.315848079112516,-27.05744471132239,-36.535410644569055,-44.68668919117317,-55.5460141156823,-72.7710281130603,-90.37061803303558,-87.45298870442802,-49.51005926307009,4.115335258327109,39.72375801558243,47.913305977454414,44.40366194841368,45.10884961130634,53.226698613154916,60.08427472800082,55.06128922095869,40.84605658691209,30.628147259680546,30.116166241434566,32.19918451894324,28.234849521084335,18.929545689199575,9.98522140912543,2.292858741915495,-7.438590328592271,-19.74151561299744,-31.93242096510238,-42.138321375605486,-51.50661374695157,-60.18268181260609,-70.10955938106518,-87.05636760692595,-100.270378027838,-81.17321453708325,-26.914010064631736,24.377646459113734,43.754729246139874,42.26022149389991,43.00536747594067,53.20562606218359,64.65591966582315,65.44806683703291,52.929984753235246,39.31255066303151,35.759237611063156,36.51122699063169,32.38873538739998,23.608563039230155,12.857728213401565,-0.11000542682602951,-15.367108499632808,-29.382109459840642,-38.62926845432684,-44.26320055634126,-52.2375633169097,-68.5332953660193,-86.68698221607474,-81.39797475074218,-37.93954995138427,15.14570895313796,38.79587399976822,34.36640347709469,30.012685066381483,38.73213365436707,49.466612389059826,47.407198361223806,34.13627956925104,21.593928816635174,15.714307705068817,12.99393133563153,8.776941463139329,1.6097710392038718,-9.464015755074296,-22.45011786700676,-32.74829568446969,-40.60810101383366,-52.17318943809759,-67.77057114010832,-70.89926571424033,-43.27551968153643,3.4025237393229526,34.519193937609295,38.41074155999554,35.08153218698601,40.08891602525994,48.56893636156868,48.124421404864165,35.92586080184705,22.84349854582051,18.451577752595835,19.409265831536338,16.930188367303536,9.903057734289819,2.0972636093018644,-8.168178033656163,-22.892226899561102,-36.511357358928606,-45.32308168098227,-56.9428473446742,-75.26911575420881,-84.65680491448532,-62.27361667050451,-12.65100728246543,28.60529833687437,40.189188596356225,37.11856110061389,41.60142070910906,54.02815587024259,58.37327487697515,47.4278985184482,64.0,110.0,75.0
-63.34654268222647,-75.75363872179932,-89.97604803017308,-94.73121271114651,-66.57935441515899,-9.698316549343406,36.41460737686158,48.47907086581068,43.05086697606158,44.56730839705353,54.60983264512726,59.86021514004227,54.30507347519406,44.27056323376215,37.905987624382824,36.38720987225886,35.09379195842803,30.84393040048509,25.55422027376628,19.423996123375183,11.091269763465267,1.6305796689877197,-8.041992425669838,-16.606400870053918,-23.78761672060226,-33.79272522305843,-47.65545090382797,-57.949809074716356,-63.78671194307543,-77.31961114228884,-98.08785960618705,-96.39668866214964,-51.09064269904533,10.594064230925495,44.95616389225361,45.7375239684578,38.5610809448174,41.749166320480946,51.78229961997667,56.64912564062368,49.419135868416134,37.14618659935783,31.74835192099574,33.560331086736106,34.369150653729264,29.654592045786607,21.97234013831137,14.823463842682873,8.777932935135777,2.239039865048001,-6.866674133680149,-16.8418014398392,-25.280098016656662,-34.03382153069144,-44.74198881051191,-54.84512870218171,-64.57281384831953,-78.47135012425268,-88.36849253541351,-69.71287432524903,-19.30880689299345,28.0802752529828,44.79422185522581,40.01148294053722,37.42061055244619,45.66079674436345,54.180573794896006,49.858301299186316,35.74233039793345,25.87200345682849,24.952236889192104,27.806977228794956,27.682004399958863,19.667652532690163,7.698793701473495,-1.4641290995542573,-9.423808096733573,-19.391926430715326,-30.0161991922631,-38.90645950630984,-47.31572562384314,-59.852793679463915,-78.50327508928692,-92.7318799754208,-79.93163835896877,-34.00647248154438,17.326298601463026,44.483353432770144,47.20776346230666,43.77219864447429,46.89162776797895,55.91376508619284,60.075153101440634,51.358996514204314,36.96216647246712,29.606017942111347,30.94359745039418,31.846074562561796,25.834798886597472,16.127053147945247,7.771411628781999,-0.20239608615664917,-10.808498136432267,-23.423228135105465,-35.06416308027541,-44.87914799365957,-54.11471634459537,-62.64468173499989,-74.22457878310358,-92.45326111260704,-99.11284770178503,-67.93227237495302,-9.801053496404565,33.43871462668897,44.30916862124459,41.545236859180484,45.14068006422299,56.953763787894275,66.38042310147638,62.89658142780275,48.36503194143678,37.19743416753305,36.07937091406454,35.97300850166176,30.171493784787728,20.661872273997204,9.396117762748391,-4.375101963102748,-19.755047341332975,-32.600730646213485,-40.43619730174347,-45.990363281880555,-56.0004035642549,-74.43215482307055,-88.84937968665218,-72.34292692654348,-21.469321333160536,25.878885916453825,39.24674065913318,31.994703976122143,31.332268662712163,42.44998956394391,50.48884309003467,44.22600965940793,29.967122677658036,19.235118053294865,14.87189169227465,12.033231061982837,7.051414932635339,-1.1787022392192694,-13.230386383963548,-25.843785116470457,-35.050957380283094,-43.30160619212182,-56.662990396790136,-71.02759536653672,-66.31436610599079,-30.29032291362185,15.299027561564042,37.890354785980755,37.120093749501514,35.548589516239055,42.7556663627167,49.77893808460459,45.51237691492292,31.61862105155447,20.58098182464844,18.599573554812427,19.304422570524654,15.171558476078415,7.67388948943104,-0.423272644543471,-12.068565791211203,-27.300396647400156,-39.387269211726995,-47.94298090516512,-61.837829836457054,-80.04570679595152,-82.04922087436577,-49.45986895682493,1.7743001654544512,34.90360083678857,39.60323068847783,37.11231717198284,44.97716783833028,56.80468031977958,56.55716386280678,42.80393448766269,30.085199793409885,27.974639664867492,30.255736080155604,27.567458030573388,20.994493967169184,13.011038049704661,2.240555185308221,-9.545288221873125,-19.68803512917706,-29.387333000827272,-40.52135744725016,-50.6613825481954,-56.471256177389634,-63.70771483554467,-81.54903176713647,-98.71838652345099,-82.01562994090379,-26.075140512066767,26.929105137790113,44.868713829445724,40.394613092189445,39.71398716434648,50.405709095085115,60.755386317324664,57.93409335488121,45.077861918242405,36.22012899795249,35.31871747821433,34.86620562444141,30.90890637839994,24.43383258182871,16.450043313964,6.683460757111012,-4.304631737315246,-14.963332760797138,-25.907397249232154,-37.34091640618541,-45.689005533489954,-48.95616067655976,-52.868359901768116,-67.20740064799688,-88.55080376458653,-88.57384161460966,-44.911597771150134,16.283052413297025,49.165426230408215,48.321323557384,42.43515119844728,47.36890734748649,55.9351751796301,55.68232995283013,42.25631644132638,27.043225645027306,24.54860103082421,31.036005582199202,32.25483554798379,24.47161383099838,13.099293586282862,2.528537483753477,-7.000200503790013,-16.15820759529314,-24.462156462373283,64.0,110.0,75.0
44.52318244050642,38.224362755987045,38.88101725247001,48.82431250585889,54.512443227798975,46.17395684646683,31.962579355580694,24.826918128047296,25.685067375054306,28.380073724888817,26.213897758422416,16.216549205092555,4.673430427907353,-3.6720234555495366,-12.079801907765681,-22.529253083599414,-32.80174559922952,-41.212307412095775,-50.300834003199085,-64.75435449636558,-83.97943228081942,-92.72453350276975,-69.3677428398298,-18.044053929746163,28.284045431678805,47.07495547363178,46.04517969801485,43.77863604677674,49.24091874215859,58.18226753299681,58.86642379472927,47.14101671335693,33.7554781810808,29.392086743283585,31.710561481264993,30.83692842135907,23.11607198873129,13.488848892511395,5.603652609037978,-2.94873655902571,-14.364023088746809,-27.005519443451824,-38.0239186190674,-47.59300702184898,-56.63408703461006,-65.32979134711151,-79.07605075796222,-96.97829587585565,-94.50138365944005,-52.18175940985329,5.855274057211511,39.51561990445973,43.74511004499389,41.49976445581209,48.044663165311604,60.502528382580955,66.93997426312636,59.316265526984466,44.1428561766387,36.05613843584847,36.44994529478357,34.88776936332637,27.654582198814015,17.59281514423465,5.712010857493733,-8.803601818270755,-23.917792553162087,-35.363550187603536,-42.0243565611696,-48.096735368760314,-60.580626354981426,-80.13429817840817,-88.26661512515525,-60.07043590164983,-5.357877852259725,33.417164057201134,37.88989153359461,30.356307170522427,33.77992890535927,45.88075652710117,50.17249258655639,40.34729204937306,26.16244117109834,17.466230460564805,14.13869374800765,10.87237723583941,5.063256061740984,-4.322001717063642,-17.05241924718219,-28.90137012998399,-37.23922630255396,-46.491007761721605,-61.37162408745198,-72.6511045500467,-58.84210709636784,-16.409592702050748,25.003794003717,39.138556729835365,35.885543037539584,36.88462023635226,45.417184111645305,49.9508799127239,42.00834248531117,27.60375287437981,19.17282236957834,18.97969664127823,18.71535638739467,13.12494552054158,5.451599680778959,-3.2639214225076567,-16.334151134349455,-31.39406266917094,-41.88164020127777,-51.08325006097318,-67.24823368876332,-83.47409613978618,-76.2846450622701,-34.9135981253869,14.466393729986907,38.58602111136805,38.46043454506215,38.15874040844915,48.75490510930909,58.4551810946402,53.487617881180675,38.310456642956595,28.397916049607264,28.71916046007534,30.146067027805444,25.842825726622618,18.89078082928197,10.192547567942327,-1.223443139206256,-12.670493831366159,-22.40741756651236,-32.46323460556479,-43.7763195261715,-52.755495659422294,-57.90168162268465,-67.67063055451356,-87.90416214758113,-98.66127692253622,-68.61409459760158,-8.23611186050059,35.899224751445175,44.57574827253881,39.00665478976678,41.90061914783925,54.17521857509763,61.52313170581708,54.66227302919851,41.59223064345971,35.4041255569423,35.46114891714474,34.081319336840394,29.225435979401798,22.27844327858398,13.827168868084883,3.55352748266288,-7.441834329562898,-18.024978674658858,-29.259581883499575,-40.26333474635661,-47.06818555218591,-49.56464209033288,-55.64787495293734,-73.48504086402204,-92.35095107500572,-80.31902662322113,-26.748791442495087,29.9875265527729,51.32860499647382,45.899029090786534,42.769776433207696,50.06391776928861,57.21121580498681,52.95221560016887,37.23299766618538,24.74769971088887,26.163145141817882,32.377640634075874,30.76089456977113,21.280481104586215,9.885194238525127,-0.27502056518763074,-9.70727495727383,-18.624221273581995,-26.933591864827605,-37.15019228327881,-48.33676682999365,-56.69198564430026,-65.83392599047436,-81.32450590928127,-91.41080049608213,-69.48332358951934,-13.333802139549011,39.0920743374902,56.01264140464029,47.20209730907861,39.91782836011798,45.31165003982743,53.538219375404466,50.28704629496548,37.05017832322989,28.989450350944065,31.920845756936295,36.31348667031572,33.306414281730746,24.682161580038144,15.54894297948939,5.025287201476755,-9.222673339190125,-23.71705493012553,-34.7583625519333,-42.37144665304335,-49.19995697465578,-57.52397669216606,-67.35058015891283,-81.46001804307014,-100.36976095390322,-101.1233459767139,-56.371035943277455,12.441001849336702,54.403196213022866,58.41629823167133,51.74886971825952,54.08922148869513,62.33315567912289,66.08685466269853,60.5444125196566,48.64378031108527,39.82794824607645,40.201505474167895,42.60882880102033,38.384495490427916,29.164490260217928,20.5452863918723,11.732673882052659,-0.517148534830298,-13.982031845283172,-23.938740108930478,-30.16367678056375,-38.21032454068839,-51.328744482114715,-64.54787157395859,-71.94440754161936,-74.6586124446208,-83.76872848019848,-106.85986912329643,-121.39040097502478,64.0,110.0,75.0
24.922790826725166,14.388830792375067,1.783294034377412,-13.301608341007485,-27.74964169332445,-37.689095985807214,-43.541112247125604,-50.76952753894047,-65.89598900521634,-84.96542644976515,-84.38352794834256,-45.305806311080396,9.216304696544963,37.769985918639,35.55117170652043,29.829807916362967,37.05528158828114,48.57501745995412,48.550332782019446,36.11440349030258,22.893857248244178,16.18239077668413,13.380524600210688,9.491112344370489,2.7759754497577633,-7.782776723234557,-20.791053110659195,-31.607407331543982,-39.4931109774697,-50.25206661335723,-65.89354839902788,-72.05381306372546,-48.70728190339498,-2.63627135082475,32.12788791235988,38.863564533367104,35.160704837419075,38.95408073564925,47.71991633629527,48.96820416478302,37.91395046245392,24.171676537698815,18.533507787847668,19.327047461840607,17.605676046817134,10.93164383192869,3.1843497296384013,-6.516882028868231,-20.812372674750772,-35.01798854223823,-44.22015514010665,-54.92043070812008,-72.8018881504675,-84.86970166975496,-67.36543853840398,-19.640119591830917,24.767114074702256,40.07614149542346,37.41565825880708,40.291419619085,52.46985374114439,58.73452843843642,49.47988146336206,34.34583674529828,27.674044712285557,29.53491141167582,29.464228496336073,23.935020384810347,16.655732418967222,7.110484701377809,-4.681189243185923,-15.61875676015356,-25.163101562761657,-35.68238207007209,-46.828499621981614,-54.443223615197404,-59.71915797630445,-72.7051689559534,-93.60105153860074,-94.85994816199222,-52.37843026153545,8.004033205358887,41.597847698420814,43.1105603775484,38.490945169485734,44.979538748492324,57.49452478305944,60.96912523565857,50.82810883445905,38.803161325725874,35.157276015738915,35.42859538454828,32.98581760163073,27.375523178489615,20.007005969634548,11.03874617819096,0.36042852971986,-10.521276164340991,-21.1563702145346,-32.623008079642304,-42.80667936672622,-48.02705972726851,-50.45615994311104,-59.539577073323784,-80.03930357722476,-93.42859548239451,-68.18774433410208,-8.324886803783858,40.347238783696426,51.11766629435788,43.85663487594076,44.10254557624259,52.74021026167183,57.46463845829356,49.14261646329839,32.505373277905626,23.780281787351043,28.197129810496232,32.95666316330777,28.575093300339365,17.955422829306304,6.801854232592061,-3.023087771148781,-12.38096884430567,-21.00733239673256,-29.594540447991257,-40.49402708759848,-51.07404551047075,-58.880844482846996,-69.70762281104885,-85.92879735982541,-89.31697592112243,-55.64469211011324,4.260464538042862,47.96068184516734,54.8605904227078,43.98229951021777,40.300815509308066,48.14622996748917,54.128264358714375,46.894161105928795,33.579128790077945,28.934930343829375,33.606067855869455,36.31479343946536,31.117859180404853,21.992547196542116,12.837023901645336,1.234305308482003,-13.612297171572843,-27.329090602466195,-37.22529985737163,-44.28236287056792,-51.42418643031385,-60.199398366303896,-70.73505313310498,-86.88590788059288,-104.08007243757257,-93.12822458463303,-36.59069821111058,28.937294298346394,58.56356270151699,56.261365952795096,51.28473707033413,56.3554782315794,64.23822524133989,65.45670002891598,57.432200550736795,45.304125902367915,39.07138404548674,41.215979139975836,42.19884733866242,35.943113866440534,26.492499645982726,18.216818712121164,8.568912061065836,-4.511344061103727,-17.361315476033514,-25.94791311734862,-32.013685236911314,-41.567661290218616,-55.47094775052799,-67.41495142934131,-72.89202541959502,-75.99184370452069,-89.26226294763092,-113.84471143693271,-117.66648390171001,-67.24621100513906,12.553653639127006,63.12979172734605,68.07724706057134,56.77825850940562,55.63779328285733,65.70001267987156,73.99057042582311,69.9676293552237,56.51207327668173,47.24582716308616,47.634724757928964,50.015659418298526,46.79899912150092,38.18530290887688,29.165877973399894,21.065207142604457,11.045845194265137,-1.278425545084281,-13.958759875583043,-25.356429910150126,-35.90075113183292,-45.919766088758195,-55.588523337361984,-65.40488354561774,-75.12954533618185,-86.00193497119396,-104.62868369614927,-126.47507185717203,-119.79924673319215,-60.77323970628114,19.23698852969044,65.7707082587376,68.42685517999024,57.99744584185903,58.665542050270126,68.13517618428482,70.78903224284312,61.50946316121405,50.17301035471634,42.87068433676582,38.90258938701108,38.0909440223565,37.149763955188796,32.78339324816052,24.780096114110954,12.80886019335772,-0.6059104086791456,-10.910191079825715,-18.886624822023876,-29.7231240112911,-44.48004256083072,-57.01002334079493,-63.88069572753946,-72.52150386733965,-93.10707694874874,-113.1368482225673,-95.89470164866786,-31.547835103502077,35.923953288854655,64.32748501428304,61.31538033489727,64.0,110.0,75.0
44.94623568367741,31.205601166795578,27.74446741715305,30.124969313711542,28.26279175581902,21.936862521108953,14.21871497692969,3.812456998687347,-8.044665556879215,-18.42493965415786,-28.021817707055405,-38.99113182430572,-49.547033897247275,-55.854708294536756,-62.237038659766746,-78.62997862037443,-97.66889724156262,-86.99029758802574,-34.49807512404286,21.671984540898954,44.393167866309135,41.22334778444733,39.06549026330669,48.634675858861115,59.97777792164515,59.14883767147346,46.84810383174977,36.84374122249945,35.23815788405389,35.11758525630995,31.61833544846793,25.38961129737497,17.605862425855943,8.090321805886992,-2.8398311118557533,-13.562990743423073,-24.385493651739942,-35.89583050655124,-44.89216685422657,-48.69480695652725,-51.92184985396674,-64.55666443741931,-86.13710609101496,-91.01026486015988,-52.81552100594697,9.000226994977364,47.164957004681845,49.38826139493342,42.64521408487046,46.2146167498973,55.06636672285754,56.53205619657851,44.538864220473336,28.524260283878895,24.062387663776533,30.2177751090925,32.674797237834014,25.85682115401729,14.617601363445536,3.850429772798227,-5.747517996776504,-14.987478309932103,-23.362688138695347,-32.498434205136135,-43.814231272579306,-53.50350384458464,-61.33587852461252,-74.19327671468643,-89.53899821972576,-83.85601090449819,-39.35244035423308,20.316099059337116,53.44894475091916,52.20168548598245,41.52475541144645,41.77170809768815,50.81330158221271,53.466230339132466,42.93148392642922,30.95155911788676,29.749398142917947,35.077403519497096,35.578502453326436,28.60502000430011,19.359041817195685,9.903949069094146,-2.8742801047477085,-17.88721093045597,-30.597422091737908,-39.44077649139361,-46.21042311858198,-53.80459401088846,-62.97860924527786,-74.6253065148668,-92.61964960754408,-105.38722117235122,-80.86939912028153,-15.994942262895416,42.02092587320478,59.8914225919089,54.032095621475115,51.80597537215304,58.85641396966285,65.53617708210581,64.00647181520189,53.9330232647154,42.50957426584341,39.120090608658444,42.095754118714154,41.10410010785401,33.23429390403137,23.982619903701647,15.765427221938003,5.069951421947842,-8.487805574573438,-20.340872668372207,-27.709764097617263,-34.19512256735234,-45.34799032404053,-59.43161762909456,-69.68595522077686,-73.5660752588354,-78.23658149474532,-95.96718450400282,-119.15386156644026,-108.94062759407721,-44.51450023608805,32.11641300838259,68.41480905416417,64.87666139470132,54.90843108422901,57.86001669450705,68.90940654451741,74.2786210947891,66.51734215327008,52.84615509727064,46.55425563099083,48.56700780885467,49.811577523322065,44.66439986710539,35.43016758769806,26.844615759288327,18.457340535026656,7.658860813181547,-5.013782247145884,-17.392339694583235,-28.458154431124914,-38.85115168481411,-48.72754424766432,-58.39640337452856,-68.25636818654334,-77.93488382610738,-90.31739238000421,-111.5559068192559,-129.24355330761512,-107.89864453256452,-37.144981855279795,37.74812602312388,70.04792363509411,65.21926538846499,56.677765774786955,61.14418950393616,70.2010306379257,69.04897208917164,57.95441986189958,47.65779103710792,41.38796811686031,38.40521836725516,38.04939284801939,36.275426998797585,30.853050844210323,21.715547066419226,8.848835201654065,-4.009046724311095,-13.245542166684768,-21.521154371249732,-33.765344920862475,-48.646581652068846,-59.46444397633112,-65.62129418620113,-77.13401397081412,-100.39984151430477,-113.47659569353249,-81.00788032865665,-9.769439691152046,48.75022535968111,65.34708621611557,58.93622491461013,54.647167988447556,56.328960343907134,57.29102917195725,52.47190674329291,43.00975541374545,34.75288777795996,32.21605354164542,32.93462456880438,31.463240714322062,25.682883451072904,15.66736597231745,3.427892855670549,-7.975975468962579,-18.52536481381046,-30.189207929805495,-43.29039149039724,-55.315931998276085,-62.86424648468094,-69.9742838949488,-86.94255842231792,-108.32562474043968,-103.24412305450505,-51.75166747785599,16.393525965144246,54.417112563126345,56.84591785178783,51.429415167061336,55.562459336143284,65.18697620508391,67.69855886096936,56.55062402761329,40.27771945891684,33.467632406598526,36.604974694992656,37.62896485380762,31.306349192321463,23.184056968977757,16.85822837119162,7.886169610882025,-7.373481822574415,-22.215431979470903,-31.091339371684654,-40.883017911605236,-54.52388287069443,-64.795824206644,-72.43643863928257,-89.41209014282447,-115.38984185132533,-120.71233249841951,-75.84767541191174,-2.134450565671933,47.27374427899821,55.409106637839464,48.72400012794862,51.70633359025601,64.28555940337793,73.27882200553267,69.95592962039203,57.308851019655876,46.76329695999922,45.681112236577434,50.29103810614398,64.0,110.0,75.0
-25.77549525798238,-35.639636259333585,-46.96953998625744,-55.70818836493196,-64.27291131821315,-79.0619831025759,-91.37603441579812,-74.82037543761197,-21.643592808327227,33.87287050999035,55.82449033653997,48.81136872331628,40.14688783620838,44.0706802774941,52.88595942207684,51.55067483676663,38.84787018682248,29.359030841778054,31.16000145107614,36.069905996072634,34.15924738425122,25.931238249114294,16.758172266260722,6.649587404673439,-7.195469258436443,-21.942666686868215,-33.52105652275797,-41.47379767525566,-48.2263831737532,-56.32362479353357,-65.91461881794919,-79.15007338287441,-98.1202961162666,-103.37318128811232,-64.80756173824936,3.896140018987025,51.349719065072264,59.1882209333042,52.28592233376008,53.2060982647183,61.29963934904514,66.09797226050249,61.79315474929697,50.292722286641386,40.47445007490064,39.7735153356288,42.576373501824165,39.369217990159136,30.439309878906688,21.612517950087106,13.076166459198115,1.291865333142752,-12.30818366643046,-22.896554225514844,-29.377653047982978,-36.827881927387416,-49.4104429956401,-63.040875883174564,-71.3584230917882,-74.2470933758935,-81.70463510733344,-103.39840248837696,-121.56762756000462,-95.16664701236489,-20.688139191074363,47.871268610070196,70.14659178386177,61.27435603909764,54.29134446999637,60.81192749486982,71.5999859277435,73.3615625216674,62.5184547007238,49.90467313794724,46.62747786757426,49.40257630769216,49.014997591607205,42.169058565539814,32.77567303943171,24.55594526324696,15.618096771995113,4.106563601838989,-8.716438097420788,-20.70090597529239,-31.512363543812327,-41.75535081421215,-51.51593869494072,-61.230412282531276,-71.0748400495598,-80.91247860165679,-95.50507781522658,-118.39762709704485,-128.58313589272768,-91.41350783137136,-13.165436046393523,52.27720309037673,71.0352168132423,61.851392404915586,56.624835513598185,64.0532374870159,71.28924631864355,66.39291961719857,54.548469656104196,45.49834764691573,40.16663290004737,38.16612767233156,37.867854416222094,35.07932151645212,28.62405164916821,18.303523662057334,4.88792139129865,-7.058051317872043,-15.48166835612263,-24.535552878998466,-38.07605662995689,-52.426018948913885,-61.44708428063147,-67.81150993452937,-82.94929787490267,-106.98347455110225,-109.6866624195696,-62.51279715381746,10.750567737288222,57.692089352274216,64.43333431300842,56.913297128213074,54.77177108141311,56.985666530842124,56.58119613363857,49.9969461186533,40.21609809366464,33.39031425305802,32.35919137523622,32.89986499283143,30.25437080057315,23.184906060128927,12.207852168525447,-0.03298884048071024,-11.022748436421246,-21.71770944487791,-33.879369303292634,-47.06227042522041,-57.99604673566671,-64.49616017972669,-73.57984272646436,-93.6728668147298,-111.16852465204505,-92.81184412326866,-31.39531256593475,31.752959802885048,57.75873758327754,54.859412720341005,51.49803817073977,58.30949903620205,67.16139074851475,65.8082743841866,51.652642571660024,36.93540896074997,33.80708877298185,37.62175598640881,36.42451241351338,28.835083492703056,21.241507856959977,14.841651463093298,4.026351263493448,-12.172145433837075,-25.266057121760998,-33.42728723904873,-44.68063287257911,-58.10922984577747,-66.82840308930723,-75.90106079570408,-96.77659418965389,-120.87052169775248,-113.16850010202236,-55.14147527284568,16.50256004985006,53.16144701412113,53.51171520183077,48.14505749736962,54.86664499326436,67.8328211468242,73.68217419034715,66.83474964988821,53.521712264352104,45.44973057256453,46.8147836610876,51.36134389451398,50.548522262714904,43.122228634770025,34.19935229629403,24.029991467538284,9.914642548928029,-5.587939427996085,-19.114791224823684,-30.32192647147447,-40.86577758001068,-52.465840909733444,-65.57960946554661,-78.31943985214602,-91.32753476681353,-110.19799760909248,-130.38065244508053,-124.45425975575837,-71.29974223717348,0.6896718993889204,42.54721028875835,48.27772510823487,47.04811023624689,56.923315993912816,71.56626562868938,77.48294869926207,69.35981880406933,57.00361360105108,52.50027583668469,55.059138645542454,55.970800377620606,51.06497172589181,42.43460090049494,32.33783424255585,21.193810099120387,8.456140313698894,-4.398058155627005,-16.223320283435186,-28.161291986761597,-41.5581960033249,-56.15407418790725,-68.66654118999048,-76.57045336625256,-86.23331357862772,-106.65246763523973,-127.34271654806278,-114.78899911213502,-54.744826146536475,14.381915874791396,48.195180492984264,50.68436888027514,51.19110573523871,59.16447794067415,66.83831178502258,69.24003067021474,64.46148659020801,55.17230975373658,49.265193456033515,50.020536050687156,52.2435512961626,48.426912900406755,36.89066030307018,23.019240290214245,11.011301090127194,64.0,110.0,75.0
-119.98063455011017,-76.89613088632018,2.51214806943595,59.318815300082335,69.17283818534682,58.01218026760775,54.943478123315685,64.14134393390039,73.47059512128811,71.27871872177639,58.36578718223126,47.866323038828924,47.24141885036008,49.92612184175757,47.62508868245584,39.46259918840726,30.271076988990224,22.199908409648717,12.540446413734763,0.43719467554522257,-12.331768774666276,-23.905986815342033,-34.525551666874954,-44.614823802574584,-54.30107179502448,-64.08582531488959,-73.8537287962213,-84.26500154739435,-101.5778931609205,-124.32418515485693,-123.65741606388961,-71.10359812719607,9.570698038718223,62.4916775882763,69.62151627701847,59.00065281807322,57.78196817989592,66.93830820432751,71.22051418284197,63.126603194766325,51.46429746357464,43.63895401635582,39.231772432701355,38.09785617774034,37.44471448518653,33.57573728555966,26.072579689033603,14.594137415461581,1.0708083314948729,-9.762676357669573,-17.770786743762788,-27.986255088112088,-42.477046556818784,-55.693130848190705,-63.13366674838977,-70.79606316499816,-89.75888032571369,-111.80737056532762,-101.31236100559829,-41.60228945587764,28.74273174998345,62.976190663668376,62.41312415279221,55.50018983625866,55.28329882328209,57.401893260162716,55.30364002607778,47.23608469718866,37.687408780983624,32.57294375908828,32.63082861833444,32.5691243197853,28.671077421250924,20.343220719445803,8.640638533197839,-3.3580903015426795,-14.041220456247249,-25.04925706543105,-37.674416425618986,-50.64868962365038,-60.23172827025013,-66.31231329752913,-78.26888434414259,-100.36515703958032,-110.8325701369159,-78.38555831131274,-10.919192382335833,43.62519571853328,58.555310445459305,52.9927616222442,52.54356021092762,61.25101870643411,68.21840950603077,62.731942815977014,46.70341451354596,34.69940043028524,34.78231987714798,38.12510586672548,34.629022919468404,26.40948960553107,19.455521234073455,12.422630442316565,-0.3730409774751226,-16.652275090102627,-27.810616636015972,-36.10993015639238,-48.71455454005421,-61.1980909828404,-68.82600643810818,-80.49620924412451,-104.63200747379483,-123.60085503808456,-100.96851811458265,-33.20656663550194,31.824993140512277,55.79248322181722,51.259410680611914,48.750522237509834,58.592199164459245,70.7244378691867,72.94438606750256,63.12684811517175,50.23435393980504,44.999607758430535,48.23033217297939,51.92927993698774,48.882839009425524,40.522933106896105,31.56443752851358,20.34318864233658,5.382533115061426,-9.772488008510884,-22.53653590403925,-33.352243259425194,-44.04594249250119,-56.150783761766,-69.38766809423655,-81.84295487704523,-95.98024810783757,-116.72083608774682,-132.88014451306475,-113.78003311468244,-49.97501260805402,17.23149535263174,46.86326102025366,47.32064500947579,48.68849778204018,61.288487611460184,74.66771688179699,76.41177790263454,65.53531054383413,54.656064509687546,52.86763504278733,55.839955654047664,55.119287675422555,48.82365500566179,39.61026349695195,29.25944131151048,17.659221617021657,4.6540825031764586,-7.898886930817698,-19.587764456919135,-31.847543143250377,-45.7367751943564,-60.188614880204966,-71.34875024266442,-78.66701773140396,-90.93329336801092,-113.83758706705484,-128.65253888472373,-101.53494823001168,-33.15454926905999,28.629027836874204,50.8086391630089,50.049366900340104,52.98766288063996,61.74095421638903,68.18834185738326,68.61645412563409,61.931477033214165,52.792201968659164,48.90478148962807,50.87034612977948,52.00631043040501,45.73033976248514,32.83348226827046,19.332166364454114,7.786827513156382,-3.553705821487814,-14.663533669112162,-23.92771976813025,-32.383185262535434,-43.76299507130132,-58.52343118800996,-74.58892897018079,-95.68799275610367,-118.20954596183311,-114.13883081793585,-61.66718441258127,9.420113671969506,50.100833667957545,53.43731840894418,47.03001697052226,49.999678397030635,58.91536663748997,61.29755406833419,51.20886492013596,37.22684424644736,32.9927373326148,38.32544704411116,41.325055418708054,35.3249709649828,22.423813858569854,7.265301816454388,-5.938854688688225,-17.924286240691337,-30.974062093822926,-43.52324961126753,-53.68709738972972,-64.3838439337825,-82.49279515916989,-102.93802892414591,-96.03643804660553,-44.110988263243776,17.736295718275194,44.08010370778278,39.23500936678495,35.42541006737399,44.11789842286378,52.44600677893751,49.62513660692258,38.4597757066218,26.74244795820142,20.26897773078148,21.27845667254737,24.53717813651903,19.843732551919096,3.69484340677427,-16.284971965298542,-31.057045169521892,-40.45545201564224,-48.74397791701036,-58.771376478711225,-73.33116297746444,-91.00158576797257,-92.8079844347328,-56.67938999858561,3.1606262849159124,45.027765332049015,55.10058692746232,64.0,110.0,75.0
60.01176791285567,54.76877605755204,55.990002032726274,57.43592058066293,53.478463370193644,44.343220980988015,35.56467190997394,32.23907104412843,32.87200413300079,31.89571145845267,26.71191554450254,17.20046504336094,5.059890753260297,-6.545468689720772,-17.092296192467423,-28.532881267422383,-41.52069777659888,-53.932272151300786,-62.09155254915152,-68.64085416894534,-84.00708430091252,-106.19214896951648,-106.61345313290029,-60.70274291973478,8.295209096123463,51.824245585752536,57.624840722453136,51.72591171449661,54.4509068376501,64.04390256037539,68.14698557943247,58.67017319358316,42.14163178088025,33.6103147697473,36.03548118075876,37.952189345069876,32.41397022046337,24.151603684198896,17.701725854866012,9.45887136177908,-5.130314365792762,-20.602929768569247,-30.069958282692816,-39.26570422504824,-52.74019451127524,-63.76403060912303,-71.14987583963631,-86.3285895042062,-112.23040851174,-122.62032375831247,-84.57284198073228,-11.587777320767653,43.3061674208055,55.93670127026236,49.345978900219734,50.53137209541776,62.514685646333774,72.71380079845771,71.12344954331218,59.14470282311813,47.666100973911384,45.31826615143228,49.679394277435236,51.86520191235938,46.74431663401717,37.93819460310264,28.73489624482082,16.297582763556047,0.8484671843483991,-13.735902905613434,-25.786118621612513,-36.375460536285324,-47.354670537363305,-59.9499474582017,-73.09585544974368,-85.4696213687948,-101.29801017281886,-123.0368107838122,-132.3020968474542,-98.94567630018112,-28.375580781072063,30.229510202869438,48.60040798017833,46.612616724247616,51.4152352583601,65.72024148230156,76.72165391210245,74.17283604361478,61.74525670983882,53.17274449702776,53.66012092010682,56.254945705549886,53.77163630834293,46.34986096510747,36.703831024932896,26.080685380018988,13.983881330791347,0.9058983917351349,-11.314156322392211,-23.003513122551436,-35.68278537434595,-49.987162784018864,-63.93084883435085,-73.63012054148699,-81.18337108669776,-96.70523818123645,-120.49566524603392,-126.20759743582589,-84.44013857893356,-12.246384438282336,39.166021293818716,51.457691287259415,49.93858753555596,55.32549362645665,64.07574618784979,69.03232828893002,67.35433359008366,59.16591279751031,50.911283261033404,49.08277759937533,51.65310009833443,51.092276838450815,42.44040268695519,28.756993583907985,15.844642209050642,4.558435186345618,-6.869864050438495,-17.56060037271461,-26.305370596068304,-35.228952901481044,-47.81639074795408,-62.98746573011052,-79.94309110987838,-102.84833960067711,-121.37523918891254,-103.72715839518806,-40.550799459361066,25.650369567584825,53.93446977494149,51.29957522425151,46.71086854969502,52.507845308416826,60.76217422050773,59.57402460724011,46.87108248503451,34.65128787006498,34.00267576039918,39.941610354227016,40.52545232716551,32.1208844539656,18.044485262977798,3.167100603982022,-9.376738360830116,-21.58331541646908,-34.784113716797094,-46.69514884150215,-56.43249058582297,-68.6339153686427,-89.08415966517869,-105.32014965710637,-85.11230891489674,-24.709701070564897,29.89716898954929,44.46574514486435,36.88426850644901,36.967053531725476,47.29378942054227,52.86923772979083,46.91055606048691,34.820992577358375,24.14535764650583,19.848082819816163,22.43616278424949,24.372814727250194,16.19764076643734,-2.1949044987781976,-21.274764846360366,-34.1402056058558,-42.80007694653836,-51.36847334051621,-62.36866608031319,-78.56387165756779,-94.41878874432744,-86.57379763769023,-40.03610012961099,18.624648032866403,50.62743755215772,54.87133776577832,55.43248523011154,64.70246651626718,76.3351041441294,77.16557887029462,62.68993683879101,45.39215484319206,39.7165355541111,43.48811803950613,45.137041144450414,39.33037838246574,28.678976906471448,16.142708029904853,2.7062734911700166,-9.578400525746648,-20.547545964603252,-31.966965552100202,-42.98253134563203,-52.3798857896777,-62.460179504556656,-72.98277935324735,-81.8810462679028,-96.63499898430256,-118.21307475101949,-116.62176622080787,-66.18933551803129,3.891793782730932,43.107896626953874,45.443362445496824,41.58801342599791,50.64694275045236,66.1444557663841,72.76918740543341,64.41965244466878,50.43912223091376,42.70234196557736,42.04348625765283,42.59314563801451,40.606773751213396,34.56406095124333,25.112426095327752,13.261179396037987,-0.7619797311767051,-14.089533545746106,-23.973693747390893,-33.16592980146292,-44.448213875065846,-55.527236854185205,-62.63451503951054,-68.89223827965057,-82.87281575293287,-101.90483664253303,-102.65598937792127,-62.430414262671064,2.259203318224772,46.98325096004625,55.7817919636726,51.15561345868751,55.1851859692245,66.880302198401,71.13804295013473,60.669271722593045,45.398181407963854,64.0,110.0,75.0
50.91994874049264,51.11745450544657,44.30306906771022,35.382166237376126,25.599523500367294,11.972661215745033,-3.592436133827468,-17.468883894344692,-28.91003533048703,-39.433240429275855,-50.816317204015384,-63.80390983873622,-76.69077087325718,-89.37771361476753,-107.26979286575344,-128.43465882346632,-127.90590039857021,-80.62575013650061,-7.964496638387903,39.4875157367615,48.610323087766965,46.672896447152915,55.03471310891013,69.85515904236316,77.5436425052236,71.02284079220486,58.353260586300266,52.53729835978732,54.625450691506515,56.18357614506209,52.00084932977994,43.70140632154883,33.73076498110132,22.770741321493233,10.211326913461992,-2.7491086238088256,-14.678200502438996,-26.507370166634498,-39.671139447381506,-54.22948226259061,-67.27617199017227,-75.65861941136214,-84.42440071757783,-103.37719649741963,-125.70502752413029,-119.4328317464547,-64.51841801434978,6.645630220352064,46.09334961953268,51.023468589628486,50.60685598539863,57.93858377588662,66.0611702417199,69.31389517355026,65.49424556654027,56.39051820753353,49.637562741290665,49.663838574857856,52.158545386777945,49.438422005035335,38.71028534291488,24.788875907534077,12.51292064759019,1.2904032453670042,-10.126205621309156,-20.269282313781865,-28.68210718210825,-38.4235455725281,-52.08873036204271,-67.53504053876917,-85.89553261427227,-109.84097685789222,-121.37463794824569,-89.07397989520649,-19.209911357106602,38.32636612147204,55.04235925708861,49.144595109626195,47.40482689187104,55.23888918286517,61.7556508157339,56.77543953217718,42.578422011616425,33.173252020100406,35.61301507444797,41.03503365559652,38.93092649612053,28.438189697124656,13.603102936572682,-0.6880538187960424,-12.796282362624833,-25.357317723084883,-38.47529883868103,-49.64587164476332,-59.35616833427669,-73.6988680208909,-95.51560476500575,-104.45491402474681,-70.41064260628097,-5.895052198366797,38.28551151107374,42.93989720487229,35.40053100959397,39.48904067861935,49.992932275550324,52.240172879504854,43.67864868075874,31.320458738813635,22.102087623838475,20.06579432389508,23.55896065700482,23.292236193142617,11.622663862648196,-8.118199149738503,-25.67266910946337,-36.865329848316364,-45.15487848139567,-54.182240274870054,-66.44406290316462,-83.92302069568484,-95.82253937342729,-76.76906118742825,-22.274691055777954,31.541292959388144,53.731505971171174,54.44700756805,57.22400526818349,68.39504535847212,78.19086549286533,74.29054973656952,57.15555785229119,42.28957211577727,40.34345021311567,44.60923382636493,44.20777278360269,36.55734096501855,25.209732912413497,12.276842066948245,-1.038606374540266,-12.802631292002584,-23.761052960667833,-35.30812020948282,-45.80533361193377,-55.114694706039465,-65.62129517903968,-75.60653435678445,-85.04633349075647,-102.91664977011091,-121.96213324641904,-106.9345848153918,-45.41400402185187,19.787755859460038,46.46473801304034,43.58285387054342,42.782454006543404,55.14800812446942,69.54134532801375,71.7267718429278,60.31245638276554,47.27994130295158,42.02807263569804,42.307004767445726,42.37808369790757,39.29125104055784,32.11553071590692,21.930377218077574,9.381053276490952,-4.885314126888555,-17.27349834234893,-26.500959441696313,-36.21536611270524,-47.8764660333953,-58.045982651584545,-64.141682306712,-71.88281101692273,-88.52510102867568,-105.37985074175202,-95.47429555913772,-44.345060118625796,18.880627177347172,52.66518745884165,54.50254629508365,51.016747514775616,58.36142996349667,69.5200405329657,69.46439204137684,56.06106809176001,42.07103228460489,36.478646526286894,37.56467251413604,39.9267915329227,37.4158911059205,28.59542816171771,16.67468743736971,4.757393643353685,-4.835220507009267,-12.758935445142017,-21.365155852335057,-31.027670041080963,-41.154706297618446,-51.051005743029236,-60.1005779905881,-71.04281629045582,-87.4207460083815,-103.68384966255417,-98.98970309779102,-56.91670469227338,2.944265476594732,42.013484609726575,48.80361138158241,42.55062523653084,43.315291442161026,53.46802453144275,60.66183494791128,55.05115283782638,42.53794715104871,35.15452928002847,35.23014053407374,37.10944607598492,35.71029198806153,31.412095859285692,26.295557823826407,16.928167622429267,2.0002424148510425,-11.874022320724896,-22.14320046370632,-32.17270350530038,-42.34619272156479,-51.08735041304979,-59.01337263609231,-69.97853851764127,-86.11424894022838,-92.55901116714976,-62.89776419737307,-4.217357475763002,40.32274858668667,49.04707170874266,41.495756147372155,41.601049173897756,49.84116950820598,52.68574502065058,43.233777455403605,29.67600260362091,23.204712062024104,24.05789632113646,25.402188133814835,21.97519114420274,14.037512982622058,5.5446911449915595,-1.9124592806961678,64.0,110.0,75.0
9.27065755721402,-2.019977602954123,-13.267266285904084,-22.80495312777291,-31.168328199631556,-41.99548272966135,-56.47953825647044,-72.28460632801239,-92.47643519120341,-115.94106272656141,-117.42886454056921,-70.91285676775253,0.9073374208504844,47.22790769640045,54.22775312375364,47.508100970945556,49.01093717776492,57.84677210362458,61.70435936420842,53.107511310915356,38.74217444834744,32.81265401645052,37.47794239717561,41.41732510214017,36.61216135059929,24.38511729075095,9.228806679918748,-4.32119159833156,-16.28050679015537,-29.199135910999203,-41.98152126359911,-52.43149749629368,-62.66706130387221,-79.56702282157781,-100.9921173196139,-99.66536578663366,-52.83631083355393,10.946961372084829,43.00678362204213,40.454962439139564,35.120187603054006,42.60503749503532,51.895847072073785,50.644828820964456,40.13955901755301,28.099131140801653,20.69197428191567,20.80829334768815,24.35688382222278,21.177639260992333,6.31635567221312,-13.803907954724988,-29.48202551589378,-39.35500143472503,-47.584713642516284,-57.24890564804889,-71.04356956788769,-88.95603070035982,-94.49922392544087,-63.66364261648617,-4.61664821869798,41.476874417149034,54.96598430407427,54.34067709829835,59.82385043902625,71.99304222251958,78.81079074141442,70.18861476273754,51.8488546170121,40.40850290824144,41.50877789700284,45.27437811077117,42.62804692547655,33.495818458635554,21.61439523635831,8.365758285099014,-4.6281966370709755,-15.952423819343053,-27.056031619554325,-38.54643303794476,-48.50216306211512,-57.9901303905625,-68.73885872794921,-78.08160183493575,-89.02653243225892,-109.55515059940869,-122.70622074431071,-92.90336342047284,-24.346881134978684,32.04715773557739,47.20262402749494,42.077677272484095,45.23095442512395,59.834554050802915,71.82392886707312,69.44462431602734,56.094795452386734,44.86581613178828,41.83193390730797,42.526321403070085,41.892440492265706,37.61542576851287,29.421708922225356,18.557356450875485,5.3255185097767885,-8.83413309235989,-20.148695009237215,-29.090343752081566,-39.465941975321535,-51.17916725572061,-60.155854003837376,-65.76425885210286,-75.7313702463052,-94.34529901089716,-106.55335011624202,-84.49865722657984,-25.143995296860513,32.71715083619475,55.47016359114438,52.8783317307289,51.95406549933929,61.91283176750391,71.12422172614822,66.5545529423011,51.44505506928467,39.53056330717053,36.309877170159325,38.4069172395177,39.90005858022111,35.41059618655641,25.31149013049126,13.111005728566068,1.6948059523704784,-7.176775565274094,-15.113637904179793,-24.079264971784834,-33.923128795301906,-44.09001621748726,-53.717559042207654,-62.85313410165657,-75.19252112546486,-92.78678926286385,-105.62988791282416,-90.60962755223174,-39.66099909497456,17.660329230889474,46.78578272708078,47.219981639547925,41.55561616654079,45.6718627411967,56.50465026746604,60.41511162993702,51.53916816165716,39.54115191633417,34.58645914431165,35.88763382234662,37.139886388328755,34.621662991503285,30.054152728192598,24.26089498400795,12.971908617870502,-2.411276748439038,-15.089674810957414,-24.947994559112406,-35.18775437673375,-45.043413970857095,-53.35607416344287,-61.635581526470034,-74.30802236297637,-90.22417722692265,-88.41141217265734,-47.267282567961814,11.939812417228524,46.24225872860563,47.162102217717965,40.244243005799596,43.669924233759176,51.79646321547871,51.11293798323708,39.12232373089988,26.83023380914657,22.95913283980606,24.708835339883592,25.006733877230452,19.992896546949307,11.471089971681474,3.367216118946323,-4.315418079448908,-14.750783308578855,-25.432522774821514,-32.20004209722996,-37.68053979380607,-47.35940283790403,-62.61136433541006,-79.47058561554175,-82.52976940990006,-52.059948148692634,2.2258740839198676,41.96491395960907,47.70727928933609,37.76197446513354,37.75676928710693,49.35604627194845,55.082874993551414,44.65726617338763,27.65083762469295,18.92749749845871,19.59263953112935,21.40960396494296,20.55598580235046,16.769914215785885,7.835012751924088,-5.78482486918031,-21.264523949638626,-35.007873022716026,-42.84866868662684,-48.13706499372277,-61.28765212324792,-81.09702767002818,-87.99760990865735,-62.75390777768979,-13.448389778085994,27.875949479536146,41.280121788497915,37.211697220821215,36.0708789716233,43.701610427005605,50.70415389634064,47.76742024924127,37.473896996265104,28.62751140702943,26.380425410388888,30.25093655089918,33.84007407369064,30.357598212195423,20.577861312840184,7.997789447985443,-4.504286912228522,-14.392511631056017,-23.610231337583265,-34.03129835175545,-44.23898000210555,-52.969984112920535,-59.35387027388008,-67.0855979850284,-82.47189738710162,-97.0040450267085,-83.80184440344917,-33.14991697772041,22.813390750638312,64.0,110.0,75.0
55.03781017011404,54.89820310003256,63.0625858983057,75.13716119832115,78.02070768760747,65.18480900375494,47.20897341929248,39.69833281461044,42.8767140119777,45.335074442998156,40.48098782268821,30.234223367552964,17.895495171445436,4.47462557789082,-8.051520045345683,-19.089456287278164,-30.412848427709783,-41.62437395176313,-51.15048852271866,-61.02084287385738,-71.69576565359844,-80.61357414116611,-94.00468010848995,-115.7663093205115,-119.55365850554175,-75.24380216165683,-4.489916652062459,40.466225301286514,46.219048887088356,41.47132912119323,48.74763950787928,64.28492790136507,72.7910049406909,66.17196503663868,52.114134525820724,43.21972281246363,41.93845606198094,42.614771508299256,41.09182283965949,35.59900337888687,26.516688403928093,14.98104347492283,1.164321683400682,-12.50696213979143,-22.79757045204659,-31.83337733788023,-42.85994259156111,-54.2328330294007,-61.910057622747466,-67.76901724755781,-80.44447919283249,-99.74921655036123,-104.69412077520796,-70.06288235972703,-6.11149475095468,43.26715256322391,56.05151264673713,51.54062339009032,53.952306902549324,65.40906810881785,71.45087088456951,62.680498762005584,47.17444982706158,37.77615808197171,36.59384715851135,39.203914961845165,39.324533907300335,32.917263429440034,21.86278884251356,9.611785078132186,-1.1228207836370963,-9.441219145841785,-17.57289718714332,-26.86555342284054,-36.849072566123226,-46.97862589982716,-56.30869340127191,-65.88096649159984,-79.86013255501459,-97.87446505058861,-105.15668012443024,-78.92160813316353,-21.835096949396068,29.743611444869195,49.00354365207393,45.190265619067,41.51672751353026,48.66478978529638,58.907093412033085,58.97261172550189,47.77098362543012,37.220762898972616,34.57571167053213,36.52061439293754,36.81074836055506,33.36637417839518,28.650219550237296,21.714693971726,8.623175555343652,-6.531454942142745,-18.045386315000595,-27.8264229740448,-38.16690497583981,-47.596426173863705,-55.59474209000099,-64.64766949925875,-79.0664842373664,-92.90390901838377,-80.6219530692218,-29.952557706218307,25.728586662500405,49.116008309200105,44.703905537911986,40.03916413490924,46.181279693709705,52.931801530048425,48.48843200805344,35.00882097447859,24.78008000247369,23.205829822420245,25.215361884993833,24.124973935612495,17.702503611784024,8.968283188335851,1.260322124994529,-7.004068244810857,-18.079116981828857,-27.813539903558382,-33.64771357490985,-39.88358961509771,-51.251225684836506,-67.70690233259869,-82.8115372564991,-77.56720012607418,-37.32101731787953,16.823625736571287,46.88642026508332,45.077905083970535,36.09756491411369,40.53931103371184,52.42136067869791,53.65153738331831,39.64081729888098,23.905090804908088,18.48546848150584,20.322474748154708,21.42461627463655,19.8466859907917,14.78495040306009,4.261742665713041,-10.192108959740926,-25.627090440712777,-37.960369368439366,-44.18684048887595,-50.79424313996042,-66.92092235342783,-85.52882308162631,-84.330524510664,-49.75476080224262,0.7432254798619258,34.67258294389622,40.90276135800468,35.943354532855665,37.603722946323636,46.36015007506793,51.004937439998926,45.1665986158258,34.4273806350403,27.219391302587784,27.04279366790574,31.708370366745548,33.6802609983079,27.992887769285936,17.12468332237854,4.213926533026716,-7.6305618581167085,-16.96966165410155,-26.525362690809295,-37.07632391720322,-46.9655126370117,-55.034363264360444,-61.10591532875309,-70.67373328144151,-87.76002578135383,-97.22673090653348,-72.27110574074437,-15.512729829069693,34.22768116548747,52.23156786720934,51.9979961051632,54.51836760482515,62.15403954383431,66.87208207248128,62.66637718942296,51.921993460696385,41.91792608816167,37.30310155562991,37.12532986410359,36.15073459770996,31.311626212519307,23.85821723601477,13.962968235454712,2.3553549052127187,-8.950147775385219,-19.19023308693475,-26.982188074135305,-33.03750817135052,-41.410395791171815,-53.17449653133842,-63.70965199284247,-69.91060131810299,-77.15249302751646,-92.28066339247869,-104.63606399194535,-86.1056098346666,-29.82720921775811,27.32159816564434,49.77971439509282,45.12154769722968,42.61780129639899,52.92840361153267,64.6246126530674,65.09648049655155,55.14206751131258,45.00176052603451,40.55856228358762,40.0345297591198,39.00160847931794,35.28176204088054,28.956754234108605,20.779540355549372,11.626010790549811,1.273751763753038,-9.727727482168222,-17.822710355701673,-22.798962159690507,-30.137833045002534,-41.83080949115143,-53.38799165569207,-63.33289686474847,-78.0427785277355,-98.9037246633099,-105.18616820594174,-70.39452379277382,-8.054045391227653,36.61899818204643,45.952120999067404,41.58874170887453,46.32182761743057,58.059549255298904,64.0,110.0,75.0
43.510552099602,36.74089628908471,37.20784235554486,39.78081416250207,38.154426497555676,30.030887987004473,18.32118363946134,6.246065957815151,-3.7086584573468766,-11.70134788846011,-20.144212544749454,-29.70467391881871,-39.79503458885588,-49.78835594589572,-58.88825297134574,-69.30462742551184,-84.96674572777471,-102.15495613692576,-101.69834692016214,-64.3792023037742,-4.552644745259874,38.84240621843263,49.21103122627988,43.27065663670884,42.51761725194317,51.9555772118371,60.367220061837116,56.4814821030968,44.10627925581477,35.63914949912892,34.964544837081306,36.9845201281033,36.12946532692429,32.03444067676738,27.099772681315475,18.575593923621362,4.090209509996461,-10.276710712722586,-20.86041752112845,-30.78761611678426,-41.055624899480435,-50.01300831056082,-57.89719521607209,-68.16672353968596,-83.95143843655353,-93.33286391751557,-69.2366294430295,-12.197681949503657,36.48060786789525,49.50378625380272,42.37345272114117,40.89141990960521,48.748147373325956,53.02593990377826,45.02789683821548,31.229546622303147,23.53096155023457,23.755617378189946,25.432113290477798,22.75772629396897,15.217052567626812,6.591442496112673,-0.8804652032754773,-9.992714054008593,-21.27716195817786,-29.813274627313554,-35.12749796389854,-42.554928462814196,-55.593319283526085,-72.79452950423888,-84.45500500365642,-69.39276421188748,-21.280575581516857,29.16325148954114,48.90193540995255,41.89304723450306,35.76303785413435,44.0290481234429,54.489212948368916,50.80717997481949,34.49591529131287,21.145786730260102,18.678916584808213,20.93187590165397,21.21493264472519,18.86389380077837,12.308611822589725,0.35758888094998376,-14.689538890219056,-29.735930584418593,-40.32486959037984,-45.5225239517535,-54.37454071087097,-72.87801103048531,-88.25700758732208,-77.63459692995255,-35.309032884920555,13.381661523085594,38.94497521951367,39.59580405709193,35.363093300988425,39.81221933671671,48.636423862486,50.334509277835416,42.1431066652153,31.71697493930125,26.42856716520913,28.155741188693753,32.92285845832182,32.814957858606235,25.206010385602063,13.496049963338809,0.5260575184918481,-10.506476363212707,-19.587032271598076,-29.54405147466136,-40.05363185026691,-49.54593873637013,-56.88146325718313,-63.14404572309741,-75.03498345302707,-92.5315891032345,-94.35275352385038,-57.782615976400876,1.4129355862429196,42.687347512911884,52.87937745002495,51.96252628586507,56.50259507043963,64.19026929619531,66.65157366462766,59.9196605665843,48.66268709129175,39.956195260991535,36.98717612387598,37.16729818515559,35.13065259820257,29.373248927252675,21.272792125605154,10.68253039191432,-0.9902735760155773,-12.06097895495644,-21.748548966152477,-28.755490198288577,-35.05431702271835,-44.583714414094175,-56.60514741412359,-65.87915143145744,-71.47321865077853,-80.70038482860728,-97.25335430338954,-103.5986830633936,-72.7594090605027,-11.231106724936765,37.91012441860887,49.90766210365773,43.15159636164202,44.52539481283164,56.885543604387955,66.17796003908241,62.89282551813218,51.799105131904554,43.10177841484074,40.20236061157193,39.94887232760788,38.22195926397866,33.69652589990241,26.740115963711055,18.215916533945133,8.791228972703685,-1.9587658845073173,-12.519102364793204,-19.386029913519124,-24.438632188324593,-33.196754548179506,-45.40477296528885,-56.25728531879147,-66.74826548976398,-83.87082463539544,-103.67491360118879,-99.81123375373534,-53.30530509441577,8.380411444818156,42.4777982386689,44.74865400983804,41.60394730086106,49.666495350735666,60.44204493251372,60.03703872331384,49.316397653714354,38.9859309989327,35.119638716603795,36.336559425754054,38.638888566840805,38.33359166722461,32.835996310245534,23.18519449829418,10.731026209320364,-3.5625179162956524,-15.103150131376267,-21.391136131151423,-26.060779590663685,-33.164665810610984,-42.606962763235046,-52.514399188904186,-66.02454814213644,-87.62901137691811,-106.38543895691211,-95.12668361616153,-42.85129565748317,17.38822894710003,46.6070979524752,46.823838638061005,43.30960243695631,48.21964091309403,54.83124162966467,53.775882960163926,45.504147349019284,37.33829124906567,33.71872354955839,34.047251358904866,33.61748288844038,26.98293978619978,15.261123393744333,3.557857525277246,-8.03784712537129,-19.747330305473195,-29.269152817116467,-37.24179456314493,-45.71930420087805,-54.31917007412295,-64.57235953266809,-80.35245159411257,-97.39924747444566,-93.3255542491663,-48.84622551624807,13.136036199431194,50.46205554372562,55.953545938110494,51.32829302931617,51.61442305614408,56.674447501904176,60.30802734685344,56.89617869588068,47.47279659559888,40.87104930829231,42.130381037044145,45.45860521859624,43.82178067545043,37.05558474221134,64.0,110.0,75.0
-3.1756557767286346,-13.218026688332214,-24.202936461838235,-31.498149266771858,-36.80233840623789,-45.72772313023025,-60.324942485818404,-77.531200916856,-83.77658570848781,-58.15102852186539,-5.028723514379014,38.64341133744853,48.51106704411327,38.900776741168315,36.82879878530314,47.72705620659343,55.235661570540444,46.79813877188959,29.666267386767398,19.407105451688526,19.260789356526466,21.31813677359189,20.808632507326315,17.527278166041178,9.349863694164199,-3.8012091169592916,-19.203109187120333,-33.45706351027773,-42.15039795918388,-47.17860619401087,-58.90808126465305,-78.65584386260706,-88.69753835163563,-68.04468060409712,-20.30148685128366,23.870460130844723,40.97555704383401,37.94399531953977,35.642035818786646,42.43729968571741,50.24621529376134,48.758536256443904,38.94312800341767,29.476530634330018,26.257887430966502,29.56023201303146,33.68623014032405,31.273463248341187,22.097907425153455,9.746886489238701,-2.9732178224761694,-13.192934834843644,-22.310146088884274,-32.61447211737279,-42.94176899791015,-51.93971913012217,-58.58285578920431,-65.68871819433436,-80.03479159717281,-96.03719827794312,-87.96395255121456,-41.20114391069676,16.609209526325152,48.29679295315976,52.65011168807449,52.53480982531541,58.775670510059975,65.76336690022892,65.59230366600973,56.784952489735076,45.643140215210124,38.51456255312275,36.95720193245323,36.9908408213377,33.77524471472034,27.263289060109994,18.459410506788902,7.3109776533477655,-4.273196935499951,-15.070490788090693,-24.054885394307348,-30.45019348503723,-37.377910299152326,-48.00478782269942,-59.77282492519934,-67.6743545172832,-73.35071485951025,-85.02442058860902,-101.47552472305917,-99.20306239236353,-56.5444727386993,6.173124311373529,45.05744888205113,48.42414180915899,42.05781778397097,47.46753881710908,60.54633864550127,66.57071427546802,59.99856339772324,48.71686662312557,41.728428394837806,40.073657422973135,39.715560425758994,37.19918046733268,31.906006190813297,24.391658710599728,15.590698553043335,5.8307793948293,-5.200169744740762,-14.9552520032921,-20.766277958244455,-26.435663280105903,-36.5847221174503,-48.81797998924476,-59.03848731621506,-70.78820843103436,-90.10987391556586,-106.44739886728645,-90.49188473413348,-34.82687402286222,22.19034402472812,45.45593076108486,43.183835471098796,42.75255339182953,53.27017787681593,61.768619165936194,57.57011556481574,45.849902563713,37.165333403168795,35.115828708185006,37.0634854647035,38.97454239925633,37.30552042676119,30.36900641483961,19.874954067702113,6.651222291173049,-7.414296659512768,-17.38516659864194,-22.674315610738237,-27.778470728585013,-35.759792551505186,-45.42373504350755,-55.742718252769336,-71.49828684109787,-94.38489767692816,-107.41834155563627,-83.56785413156332,-24.04904257568561,29.796937590418803,48.583135616295294,45.216331999099296,43.909550691735795,50.48011600282278,55.51554638559713,51.84138010079158,42.824740831481925,35.77347196056036,33.54171367616632,34.288852215391266,32.46312130755803,23.859522736066904,11.767079156804337,0.27888855097228515,-11.505924198265173,-22.78618746615587,-31.602616449400056,-39.62712522345065,-48.20787380201288,-56.93114716147195,-68.46967690629508,-85.78877618063115,-99.71165991118933,-84.56586530916312,-30.656659531075412,27.670367091645822,54.55402108136621,54.65594577651273,50.699232593278104,52.81574010945302,58.17812952327891,60.18065951664625,54.49090059283975,44.850466407093386,40.512451213398286,43.289675783262034,45.62746075524657,42.28413036557598,34.44669831424981,23.30611807215374,9.159130907716094,-6.313972202003563,-21.50292332743951,-33.97337409147561,-42.61227179638929,-51.56956620817283,-62.76904235478662,-73.42832390360105,-84.2506564783718,-101.09407317215522,-119.49663833676934,-111.57382306271325,-57.64601740771563,11.742638268004598,50.666100481924474,54.68498351515857,49.61867102627276,54.035226155849166,65.39292928187696,71.18044311919421,64.689611025351,52.308320948744715,45.75828520285525,46.74293303015206,47.85685127483655,45.04431702592085,38.26164816926136,27.35264076309837,15.860484327929296,6.416993587162783,-4.5009292660898375,-16.836381824465644,-27.049919960649937,-36.44754741736587,-48.05887530791306,-60.62292142558649,-71.57050547326182,-82.27219768346772,-99.74401204077687,-122.19244532982418,-121.71147872888947,-70.97423146098882,6.661795848951987,57.964997717896324,65.95832109731029,55.979486414347136,52.527208573107934,58.93277551396526,67.43068735175414,67.45788511793948,56.97161394340357,47.856093457186255,47.098216808594685,48.01000128559996,44.55317008785748,38.66517253505435,31.798952683918042,22.008609826599628,8.77532860799309,-6.223791207610131,-19.973612661357947,64.0,110.0,75.0
29.32613608460736,51.448333628298585,52.16648863928265,53.7572314760422,61.11524826235282,66.69614761879626,63.748019669671635,53.46321598021067,42.990419914581516,37.57895930591115,37.068940793400444,36.49861439912546,32.14155659065576,24.97748804729913,15.426112241548106,3.9144952895182303,-7.489881793887841,-17.93386476004965,-26.1097013330634,-32.187572510629195,-40.05560349279266,-51.54507086892177,-62.56554916946215,-69.22534352281102,-75.78708904502042,-89.9280957251573,-104.151808884417,-91.09813673354833,-38.46059961348523,21.32112111739897,48.94953615312111,46.18552459655221,42.14754918039435,51.11690900693144,63.54626396887201,65.80761388096566,56.70893293780267,46.0579883524058,40.83274359823017,40.0462957230553,39.27974237912193,35.93940041271357,29.92710279542809,21.938633239795227,12.896782081565958,2.7385852389264462,-8.344041849911637,-17.002510651564474,-22.128832373118346,-28.866246753046838,-40.161681326920544,-52.000829435543196,-61.9141977070509,-75.57758768873576,-96.2722149738551,-106.3756542432165,-77.47021568464967,-16.2752194350082,32.83334193623729,46.17417074616927,41.923205454193756,44.986926480068774,56.67562881907887,61.908349104593356,54.44100394334693,42.697845006665716,35.938686190614234,35.452599278734056,37.78158636355455,39.00523933298743,35.80299804902267,27.6215195334689,16.332027917566002,2.466093922117085,-10.885657701474846,-19.23693202495135,-23.955574888653032,-29.770318682769265,-38.49805659080861,-48.24259039405201,-59.4333277265157,-77.71112865003293,-100.41680908651446,-105.17354885565867,-68.69091402149505,-5.827345667582286,38.93708645446117,48.64910579395918,43.93326168940877,45.275622504937786,52.587388924737915,55.390076982282785,49.43392285280051,40.35082361173766,34.63614028798977,33.642998353368576,34.31132680797827,30.678030244250625,20.439907410031335,8.374434972863735,-3.048346584664701,-14.944378757968568,-25.583125595662025,-33.8768947551453,-42.07841740748118,-50.67968262147903,-59.76683890061747,-72.92795018650276,-91.08960411275712,-99.50421357983059,-72.19640122934513,-12.093306263564672,39.24099700675437,56.29724590748004,53.135886579923856,50.66323384733971,54.30737580016272,59.388614869496884,59.353314234011556,51.70531487567653,42.7320170478817,40.82307327721105,44.38806793216507,45.26741231760003,40.380881732050405,31.571000600089107,19.47503512473417,4.740859872383375,-10.802171659657253,-25.525268279597498,-36.75485298693803,-44.953400678373974,-54.665000027905336,-66.01420997557041,-76.30965967230348,-88.29812767975336,-107.08244602950448,-121.45748563110746,-100.39057126763319,-36.76997188446948,27.278156478942396,54.47820678167344,52.95247419349372,49.66530619722745,57.122659850060806,68.15191048218321,70.53220380879188,61.15494355524703,49.462720686707904,45.540505737094435,47.36656572700562,47.46195069521604,43.51043474423971,35.47698530638373,23.847840758276625,13.014979282946902,3.5634092676834537,-8.103381301375732,-20.06566010101849,-29.66939351466194,-39.54085070724292,-51.73428912833075,-64.00517616343271,-74.45048413687914,-86.314023377151,-106.445125655341,-126.13758174877592,-112.37306300188891,-48.883328022898276,26.01454642342013,64.07706216055166,63.46038854415138,53.81184863767253,53.5986305292103,61.64235743609704,68.69832972857846,65.157102662636,53.588454720882915,46.9035973979645,47.60654273705587,47.49188534670287,42.933257807773174,36.85733991147139,29.336843295354445,18.50794439335044,4.493508186301525,-10.44457512870859,-23.414988909583325,-33.72724805002733,-43.87578724004509,-56.59627632081861,-69.82320012497803,-78.59764076476817,-87.0751419880752,-105.74356940865036,-123.13339257249794,-101.44513535870689,-32.437068210160106,35.08141202041321,59.79324276694678,55.079723695198055,52.7608266499688,61.13588731536387,68.11993098613121,63.75370643196857,51.98534908841269,44.59601214599133,44.82757992925205,47.03797564705088,46.984661175453326,41.56004227914922,30.269669786561803,18.4441153654169,8.843003455164146,-3.3807041827351485,-20.168808405944134,-35.63447953570692,-45.65983437093215,-51.644533326476505,-56.70149243537906,-66.84117932599148,-87.23892431642254,-108.93168456384414,-103.03026088296882,-51.08529658276439,16.062228686574578,52.34147863670359,54.08646313404737,46.55101123479621,45.57672411603912,50.735734672986844,51.78996244149323,42.91537170359369,32.30909696564523,30.950184677468254,37.816634225342206,41.24525511617613,34.754970352992935,23.31891996741841,11.157658045619264,-1.178394379381417,-12.585812299608836,-23.5861653344521,-35.318848723490916,-45.04551451623816,-51.71034413585445,-60.66845671955909,-80.02548736720416,-103.09379932259588,-98.00183858407807,64.0,110.0,75.0
59.461493335572314,60.87420374942212,50.95714379072059,40.02707640333427,35.26390664011846,36.02361868424605,38.405770234616476,38.647759574482855,33.86180448577082,24.636244843063068,12.550457120236445,-1.6944957886835843,-13.88757250598355,-20.762465711677788,-25.352007413428595,-32.03627952153736,-41.30591108368196,-51.12823748187304,-63.76986154924238,-84.44782669208332,-104.98766674328941,-99.19244862709655,-51.35795111292959,10.643969031762207,44.86277488598659,47.53710766594294,43.31774034587126,47.210410883635745,54.26496706277509,54.45665869198493,46.76422951841615,38.200200819117214,33.91748243155694,33.90839284039642,33.95172449824049,28.275826801969522,16.896432561462607,5.067503238039642,-6.4484416425909385,-18.271875900756186,-28.149940551027978,-36.166774079050136,-44.56805095338878,-53.15825541992196,-62.95251619913702,-77.91360261016086,-95.69775232427564,-96.10262352828573,-56.75585321176334,5.589299533412607,47.63416173468061,56.33068880880461,51.8025693428962,51.197891400407066,55.929674734554155,60.14783423791712,57.822040163859285,48.7871664796442,41.28654554715969,41.64132005309048,45.21460557956844,44.38834339608985,38.169001654379535,28.418950616573525,15.411328586914095,0.26367246286160206,-15.238606775951936,-29.233649281780078,-39.24065277607653,-47.4656454593893,-57.92111359768133,-69.12530697040332,-79.30001074959372,-93.02393677340442,-112.88947223134507,-120.29604272200255,-85.23619645922808,-15.913755111647472,39.368716513916446,55.77786041016096,51.193045382920204,50.75355268313527,60.53681911932425,70.12284255912145,68.80664761099152,57.41876455015188,47.367813774419275,45.840650658340884,47.79410460048094,46.71758533778684,41.64455305427658,32.34674580461861,20.44426792623278,10.327728970202038,0.4666389100016232,-11.734409896153105,-23.048764268032414,-32.31847166532383,-42.866836507586775,-55.4097431356996,-67.20292183026179,-77.40194726577542,-91.14969940120515,-113.32298753128761,-127.19241369428195,-98.4298483974215,-25.769066273712124,41.912002694217016,66.73505412605776,60.324480702087556,52.57357645097142,55.39876265150423,64.28494335306102,68.98896632278007,62.092210483013375,50.70964282123845,46.65040788963995,48.00235594611007,46.545132557806056,41.22337228647982,34.93997026120485,26.58212903867246,14.726538889926106,0.12921052944701045,-14.485709295821753,-26.60958692971771,-36.51579204492995,-47.252035945229096,-60.61712689380829,-72.90095390797858,-80.55387290462379,-91.23503335888542,-112.37016399094789,-122.41463328446125,-85.01143347134821,-10.041474299408819,46.986198268078454,59.88398442554852,53.20359985639892,54.438326667064146,63.938994268150466,68.13648363857301,60.5983100706662,48.98929364837964,44.071171267130374,45.51634682112193,47.38485449682959,46.097297391732674,38.75125603183109,26.625037539244335,15.56230732030306,5.8378094429988945,-7.927653635949163,-25.08314033921234,-39.092766269563384,-47.690279514094705,-53.006510002594254,-58.773339774468624,-71.67881668037332,-94.34716768726989,-111.54819383983195,-92.38985071009121,-30.830952607095846,30.875437026764065,55.397912866161676,51.812145390437635,45.350384129604244,46.78564073932023,51.96195132319993,50.1219185014683,39.4348892779484,30.713027390189616,32.51308938952729,39.6947173889096,40.309752038797335,31.655085517429498,19.841738750823087,7.575479846662652,-4.60919150834424,-15.708968839549309,-26.95427148458392,-38.49061743953656,-47.17258660443499,-53.67332733904996,-64.98881899034801,-87.35921212997042,-106.13273371454171,-87.28742867312661,-25.535829168775326,34.71012948907678,56.302707870554926,49.93264348870606,43.138434298590845,46.098674333565356,51.72333376988024,49.64717735142038,40.42156424867076,33.9077134476893,32.752001795473426,32.75550805445508,31.91329142831411,28.826262046205056,20.475074314571604,6.6065952606439895,-8.340530821431942,-20.005104715284823,-28.474760481470923,-37.35276131489849,-48.689681676415255,-60.13849170113513,-71.110558518808,-86.73292142954915,-103.47093326539535,-95.3538170790978,-45.19160874205027,16.07700386261473,47.131012020934946,48.71833791770098,46.84064621185549,54.49321137971545,65.32149957152956,68.10034656745844,59.47918509107002,49.12668214816339,46.37940485870277,47.39155816264247,43.89644190707609,35.152375490387115,26.336645137422373,18.111057564624595,7.196118034985957,-6.005885459009804,-17.75438715135196,-26.775211156263364,-34.89934988562642,-44.64819812721851,-57.25710710999747,-68.92236677651891,-77.74004755447805,-90.98115312920935,-112.08197150898836,-118.41411167349236,-79.08020456790999,-7.378556661817209,45.4441149427277,56.81101879936074,50.281885780712024,51.72178304012724,62.468289204500145,69.83396194212075,64.0,110.0,75.0
35.68230195794501,24.983907424932585,11.163996025555916,-4.237879668077111,-19.565923749698612,-32.56789077742216,-41.55851562945354,-50.216840574735684,-61.2430965319714,-72.09422322389543,-82.58408390892166,-98.42204984059359,-117.78649840412534,-115.29487211315941,-66.87826354298184,3.5553735331080367,47.88696389603691,55.29625217110886,49.92966067966175,52.81154188370208,63.930551936972044,71.09977659405126,66.15699983093563,53.82739264640489,46.08619932627071,46.43399234868429,47.91761420366347,45.64503489458719,39.41715155821774,28.96211127789144,17.249683097240155,7.670710881276077,-2.884328970956199,-15.268478818409974,-25.82128323480819,-35.09935432605171,-46.38824121919388,-59.00766142272909,-70.22393747564948,-80.62809130907318,-96.84823824140312,-119.68004964345609,-124.4477386071906,-80.4007789469778,-3.176637169166672,53.838714626416504,66.67008207463986,57.23915177215258,52.32253145070311,57.73552099905698,66.57413941958225,68.19086842850965,58.60884345064391,48.56673150486616,46.890337569919566,48.09975594808497,45.2429750565523,39.4790378446532,32.84335490506106,23.5222474445059,10.69993078280445,-4.234605315356724,-18.29983126364779,-29.59673662550176,-39.37979996355838,-50.89251933264003,-64.55808794792326,-75.49578987465983,-82.73885918186811,-96.49480701235981,-118.2311382562824,-117.37071620534724,-65.0559536141584,10.595672466485176,54.80943968076891,58.35042170643004,52.20893850559429,56.893323622567316,66.24225184009354,67.06640439613349,57.075162994857806,46.650438158160426,44.11375141684235,46.208910750985886,47.476159449239475,44.67481615525821,35.49803663293111,23.1182825514291,12.842884689653703,2.441004745235929,-12.807694964441705,-29.691747055427708,-42.06922995054234,-49.44590398190058,-54.375947744606485,-61.45877367483814,-77.45620319066265,-101.14473031837913,-110.96495217085334,-77.8016877946645,-10.613094966036247,42.199388864928665,56.01914538670978,49.424395556958295,44.9023003382724,48.36243753346119,52.532232199531855,47.61397828271373,36.13721441487701,30.102136236041936,34.578795881909166,40.947517852028824,38.52773334711394,28.335451698149814,16.33795191059774,3.989171716874386,-7.925693390442573,-18.85013809921324,-30.38375465822957,-41.38892280023978,-49.07378017941147,-56.023912321160225,-70.38108329829463,-94.5763458550846,-105.82491340612165,-72.57569881371448,-5.528716517557387,45.280940315667614,56.00655976814936,47.123554355860804,43.08947940948636,47.977998762673906,52.19150842033626,47.307040739188125,37.912698343493055,33.182996038131385,32.793735183158205,32.6212342802888,31.378484864666486,27.06251437785809,16.906647444398377,2.147241950872572,-12.140206306738206,-22.656505560531258,-30.822870872050068,-40.417166416324314,-52.125522399576155,-63.20296492232481,-74.92262931840405,-92.22310893231746,-105.11383883076734,-84.75524410731435,-26.328529165056402,29.0307442781358,49.54716763337811,47.50325889067752,48.09795284950039,57.826703633946934,67.34083958312641,66.56526289553888,56.057800796419016,47.47601284326903,46.70708756288008,47.069243652212215,41.702054923149745,32.433288471950874,24.04704431710499,15.326468594783318,3.4620855431163475,-9.690499592295696,-20.588561654085947,-29.11228449507979,-37.42794677249711,-48.07079087108068,-60.96050319310184,-71.59700829577508,-80.66452613492507,-96.67373518890163,-117.10016418286284,-112.33109946870728,-59.61267583131607,11.877036777137944,52.534957996189746,55.24838787652626,49.34862011407973,54.35290420346542,65.49540812081429,69.97462562272257,64.0536400597273,53.90077764483532,46.662554987308134,44.503144211986985,43.558631111873886,39.49936007262673,33.15412457590391,25.301753870601125,15.404336334534797,5.461166651321599,-3.3542053069651616,-13.563198341406121,-26.969442943325518,-39.479367950168715,-46.528894673356746,-51.17883846797778,-59.677390764788704,-72.73319103261571,-89.97141268611048,-110.92642035012246,-118.01393981708765,-82.5743177112686,-12.756174053195865,41.76089906166549,54.7172843996592,49.56651596207158,54.22773554700668,65.30654966980173,68.2831984943343,61.29408036227062,51.52936323071641,45.411126815833626,44.36676146044314,46.93534464939233,50.04827473996475,47.86244879262036,37.71415398916656,25.134712456580623,14.966076526119524,5.049234942006232,-6.623033674812007,-18.21298642044779,-28.652107969767275,-40.2697863245895,-53.713450653911195,-64.86729061105036,-72.557079589093,-81.83566709256654,-99.28473712665321,-121.2917353447063,-118.40173509745314,-64.48401350825377,10.697935042081602,51.68090385387251,50.877705727079885,43.35611858708489,51.5654067546643,67.08621775802364,71.68516217287961,60.66559841091198,46.05513074258325,40.23362751195247,64.0,110.0,75.0
