10.682044478761913,59.16339228882,68.57624557408612,52.85168094721823,38.441793604770346,27.0566970907329,11.761452004631998,-3.7611699394582363,-14.349519490239874,-25.00085997941403,-43.19492327624034,-64.15718662941482,-70.66299544361534,-52.782031299015586,-20.665032199911995,6.542381049712962,18.673020844020773,20.473918108937863,22.82542126585289,29.070187831942334,33.68206699037308,32.218814304198986,28.825615126960013,29.96128120566789,35.64428094790515,40.64458638190623,40.13963808703858,34.99686136721781,30.395472871117867,26.07301265750814,18.962242747632548,12.64362867437731,9.507804793740268,5.326654083213676,-2.058090426826001,-10.573521873834393,-18.651628781618403,-24.86178744933512,-30.4715446079688,-39.14973931713892,-50.368251914563146,-59.27067308743088,-65.57339925183491,-77.25176837971647,-91.87713497529417,-89.0227399017162,-60.66640563390387,-25.197689617507876,-0.03420466894981954,12.665386716953158,18.277159778885313,22.996225458416934,28.742571066550028,32.999727723315594,36.05709472889681,40.32670256086298,45.423058302776624,50.38773409291464,55.08163960594997,56.32805621875661,50.78491638707396,41.142000982721086,34.17402940226978,31.866988247813406,29.24966691257074,24.008418428434933,18.59658000508953,13.716384098908708,8.285810720687595,-0.0449037139907258,-10.966150437457499,-21.161448594350375,-28.722852501703866,-35.55677887252747,-47.441353484028795,-65.28791797654587,-81.71419311417868,-91.12862641226111,-87.90636376193528,-63.34329784219792,-24.3577432958266,7.144491825168998,20.899346632819903,23.608037195658753,25.941392452217418,31.10688580701273,33.79499171359349,31.515775216612916,30.73984375947724,34.84561031714384,38.67903844090027,38.745570277382484,37.71964882843302,36.02889258605045,31.215742691757132,24.826286782126992,18.90429306941288,12.017872145231175,4.706773749353983,-2.195617288327068,-9.958891016894473,-17.49754968326781,-22.94595048837765,-27.8209614686597,-32.87430348446737,-37.575924815638864,-43.186717007187184,-51.514550811380616,-65.37010248941547,-79.52339932000129,-76.96283579581667,-49.73032209064135,-14.526819327253884,8.182343911249868,16.92364221519927,22.335527209146054,30.72431350040357,38.97032334035416,40.18499528403228,37.60124315897215,42.40855098456312,54.013900499601384,60.53300809913314,57.96369547980059,53.12056347644235,49.418614659706066,43.73154836380752,36.281260177753296,28.7233603111747,20.581014958629204,12.08167213599875,2.799359165580525,-7.050715745039147,-16.147392039119545,-25.349038087638288,-36.193090155818076,-46.24476381820483,-54.49862094460925,-62.471846428829906,-71.0974505248918,-84.18257828240043,-99.77075448903834,-100.77763106030595,-74.9587744299627,-36.75109720094034,-9.914672244608415,1.4413972441315221,8.251841509561382,17.999923715392583,30.637554645117824,42.28504982752754,48.658836023414594,50.74656079297633,53.44742859530812,57.416451355773916,59.77268161702576,60.910978046369586,60.74311139165381,56.2674997471921,48.58706330866851,40.757399362569664,34.428438902628486,28.556966492807163,21.20225102436877,12.547636064436578,3.9062644552917223,-4.983852885908737,-15.13281036025384,-26.0761288523628,-37.767688027265095,-48.46013092054832,-55.491596051345574,-63.082359563665456,-78.64677152755812,-97.55942680044528,-99.6454931163559,-73.37884006295086,-34.041454990561775,-6.343445820804033,1.6688188675253937,1.8313131397140752,8.130988166190289,20.249873322556983,29.365658276062188,32.12653259309922,33.90224529200162,39.815159241324245,46.831139219102,49.72275320221739,50.45119864208692,50.23520530771493,45.72778215673478,37.447408069867976,29.924358101702932,24.41737829073147,18.765832154589027,11.24782539172687,2.83882283984935,-5.40182580134442,-14.136823739406239,-23.574236383737283,-34.09661927189359,-45.71825750349704,-58.14484408634941,-72.82953333144783,-88.16175620356151,-93.78905078942356,-76.55539080433887,-41.613729264734026,-11.103446373754805,5.108440823923627,14.57242917083012,23.986514097981352,32.94802163781027,39.02104251025178,41.7670457860263,45.297457887552724,51.47612496281616,55.89198704755076,56.660982293308315,56.43267875445099,56.145216407200806,53.691203376535675,47.23354384108127,38.21213904883981,29.442207322908317,22.71453387440205,17.39969965985848,10.639498741536094,-0.3550985821750689,-14.653891884599217,-27.89404449922314,-37.1330111106804,-44.59231643365261,-54.03449357452166,-65.05626456233114,-76.66147898253342,-90.62269109048786,-106.27558640445804,-114.1416082115867,-99.20914494175551,-62.69346208326781,-27.39950476810615,-9.596181726784545,-2.667722877355488,7.329342296987998,22.7822554132697,36.14683691134424,42.08521707436301,45.02981318556312,54.0,121.0,79.0
33.1750118265183,31.386842556194768,27.91593568296221,22.37874886899654,17.15214458177537,12.299193678727894,6.256535386242343,-3.068106608646495,-14.12090767673166,-23.626932924634577,-30.551845419318116,-38.235224217994286,-52.22680613912871,-70.53166626349683,-85.29608751675016,-91.92415644326361,-83.16893860961316,-52.64973971363691,-13.636314515879572,12.874376660393699,22.293918108257994,23.978775373584277,27.272548880050177,32.432886587829444,33.47439756379598,30.79664863321363,31.5513074177043,36.26809987958635,39.039077241794395,38.42068611602472,37.429608155294545,34.98797129102141,29.370983717950047,23.09746215428055,17.065398262917693,9.854922395266637,2.7225721835745733,-4.32735102976701,-12.284816731895074,-19.2782924273359,-24.312278072757273,-29.31219777994093,-34.23411574584548,-39.042237109033245,-45.18471243030164,-54.90636117501619,-70.05141259709029,-81.27859196007688,-71.31186603976737,-39.24483236159565,-6.209985136041687,11.73480161664378,18.375472962522082,24.419137125666868,33.46385724914016,40.19662158487141,39.31680618036793,37.901168421404215,45.53787461140578,56.88013757569072,60.52436407434636,56.464884118850506,52.03173244106343,48.0894078442078,41.629841446562665,34.12596409660562,26.43082348112889,18.160959061969784,9.506724443567936,-0.04620190651422991,-9.78954992372951,-18.674035863470962,-28.358558846813132,-39.313456404562004,-48.744041876572155,-56.7992810863198,-64.79318613253851,-74.23699933249851,-88.94618424400494,-102.48400027085253,-95.96237229686845,-63.99236767042803,-27.164101895640897,-5.433607601096689,3.3791224337937393,10.65987257241088,21.477093953043084,34.331526039683055,44.76439526434975,49.48678533151141,51.304049589956314,54.59574906739675,58.33098763219653,60.13787355901525,61.13867164689478,59.9479754017665,54.22797987356539,46.23274920064996,38.75994871389505,32.79587705945065,26.620463262746807,18.775258872452653,10.013832645823383,1.4280066855584301,-7.787160746424146,-18.234565631687577,-29.3793558486278,-41.132614507671306,-50.84962714909115,-57.248459830626715,-66.60024609158556,-84.48144604986066,-100.84483983397995,-94.78285226232214,-62.16163993489933,-24.0397552201183,-2.2470837230798706,1.7356798216155784,2.7260286908738474,11.402200159305304,23.530547049932853,30.698193857221483,32.4080001918251,35.14735161108195,42.04835818668873,48.131157881106205,49.98012923683026,50.605094274408124,49.49306432191371,43.523393382427884,35.04440627054911,28.188828537579102,22.91651580770713,16.791559277222543,8.823793902783569,0.4548401023802934,-7.846983884095597,-16.791887209497222,-26.47414004762474,-37.37699432859551,-49.18732575677217,-62.097066327300176,-77.46783355145118,-91.46119046833073,-91.45251397492562,-67.38306143128412,-31.462417392587867,-5.103316991260078,8.087533696784106,17.22030469027487,26.727940482608943,35.098109996856074,40.04304028571524,42.48935476614405,46.93327200734746,53.14939173381915,56.3984057008031,56.58753522059024,56.40589211290732,55.78818930890867,52.23411679658084,44.764003402872596,35.540349034504395,27.262633909806695,21.129822906065943,15.750889672162625,7.9518931709308465,-4.309331874596503,-18.792418305154335,-30.981709928304447,-39.259745543166126,-47.05001602862583,-57.15191900840497,-68.30474954465322,-80.36947301316555,-95.18641455951797,-110.03309911891822,-112.64081549503624,-90.10263341181098,-51.250212062740864,-20.354442887527316,-7.1817215826904235,-0.4826129008699013,11.471102482362594,27.250026440960518,38.60779731904686,42.86814847838096,46.43146925898866,53.79003447927518,61.43146452353177,66.97213470392218,69.18283852255921,66.31192608569509,60.91961691628811,56.87099147426854,55.22691589410461,52.563267588448774,45.22011990504962,35.57567483723919,26.980183970856537,18.328767840072327,8.389574281159334,-0.48398442101134737,-7.356369021696973,-15.261266226980636,-27.171730125642714,-41.30510481100105,-53.69522237581244,-64.96352317376378,-78.32690894308143,-95.21264102717949,-108.40827016515185,-101.0153525544507,-67.74249441585731,-29.28693786655001,-8.035545412254422,-1.6995454898317939,3.7554322152205453,12.667434385891442,21.97413246261024,29.1041452652194,34.63284767288049,40.509143633186554,46.18150329559579,49.99323543502082,52.06814648000075,52.84053047248395,51.60931847826436,48.094873437879656,42.805366648149324,36.33642005795594,29.58441468064391,23.72219476450616,18.29436841144465,11.446052237075182,1.6789390742100152,-11.027401792977331,-23.66531217353069,-33.07017604934602,-40.78279256536168,-52.19392625133076,-67.01326716821153,-79.81435093178048,-91.29674474496208,-100.52759388998705,-94.14963364884262,-65.26671623119101,-30.05388355500247,-6.6854675900353975,3.2541881516692266,54.0,121.0,79.0
51.01686492192187,46.49863761845546,39.45784116006718,31.962167619067877,24.08097137078148,15.720739688063105,6.844103764660689,-2.913646541686156,-12.42980384125327,-21.275341354106192,-31.50958944035318,-42.273331445311754,-51.12215378926296,-59.10485829578546,-67.19622081672154,-77.89144518690883,-93.72735298841891,-103.42309097721014,-88.81008999265734,-52.63123741449184,-19.021826689225538,-2.0856911671224467,5.246964860945786,13.40559709049044,25.14206487966332,37.82056448249681,46.71582895136433,50.05888498633764,52.0331128368172,55.791810304121235,59.04466428957633,60.46429116994826,61.19607593341358,58.728731687711324,52.002984272944,43.93083088017675,36.91300650786671,31.140345163942655,24.527953949447305,16.267930727057077,7.513261064152918,-1.105560857615941,-10.706976359690987,-21.381103332038194,-32.759951028889645,-44.32339900047829,-52.89671361741548,-59.24737197190654,-70.94914773168401,-90.28940690259058,-102.12769413016932,-87.50568266432539,-50.48795100827199,-15.555638236462162,0.2419462512014871,1.5890944695287503,4.3823040111803495,14.986353258708082,26.334349577880364,31.519787808303324,32.80220140741329,36.808856781337134,44.20002833964937,49.013670996058366,50.17555245089984,50.63904786626976,48.293039569945506,41.09829479416667,32.81253445220168,26.601294327261304,21.333847417369135,14.641207080151625,6.3778702445527085,-1.9132962794220973,-10.356397216579966,-19.49944054137787,-29.486110668082542,-40.730704302407986,-52.72973195692752,-66.2925057000599,-82.05776486481929,-93.59640303687533,-86.92167446219877,-57.1465510029796,-22.264808306914453,-0.2923973958484608,10.778290616165519,19.94097842895744,29.37642534754209,36.94209739216212,40.819769357849296,43.41903794976188,48.75952307984504,54.52740678297605,56.630799685147636,56.50710742484977,56.36180848806034,55.17392105825807,50.42471849481852,42.147104841444445,32.95664066810261,25.281325097846356,19.620269280467497,13.89473184925611,4.857872275885353,-8.465634049567532,-22.719330575707797,-33.70076737449966,-41.352335208446554,-49.73837778826076,-60.343972778796335,-71.60838641084983,-84.33823883359811,-99.82238950868764,-112.7992682637281,-108.86464635378265,-79.50917266868929,-40.592757324082214,-14.950839644260475,-5.300916236165929,2.2469543979637217,15.979221377379151,31.30544108933221,40.40195606851443,43.607460890245584,48.22613723803478,56.1664565137515,63.259116968576656,68.07124500542426,68.85483745563091,64.81313659706234,59.49266861365626,56.2148221739036,54.79798355971817,50.93742056522418,42.453929417643664,32.95624456058673,24.602059758678084,15.537716121774144,5.58694268215373,-2.5926963347119285,-9.35584897172357,-18.25483439758549,-31.237695293293243,-45.143629242151164,-56.92405513990267,-68.48245693662425,-82.91083171732765,-100.07643451060265,-109.0838532273352,-93.58215189166906,-55.854669425931256,-20.973416623236027,-5.332759559008891,-0.46937260718891227,6.0614246131260785,15.47711011181195,24.296689159190947,30.767233425181228,36.25421794325485,42.262268614081634,47.504169883622694,50.73139576787683,52.44276129561214,52.72450518250896,50.81365550138572,46.720305795598534,41.03295855018522,34.3527243774779,27.775721847710383,22.18381723283102,16.540727570748324,8.972582477633898,-1.7699646757749798,-14.866688273465497,-26.771526113393897,-35.24080330965142,-43.523910130113684,-56.38126305001888,-71.04248101467404,-83.10698675789448,-94.58323252730206,-101.00008728290815,-87.7730905631763,-54.70843910051729,-21.677499042640576,-2.770378051193889,4.983094662144913,12.377237870317467,25.036399277537367,38.56081658248645,45.15994479176952,46.60191944669841,51.84825303596436,61.511509048308774,67.49458123659672,65.16146349425006,59.59269871263896,57.42964841923722,55.52306260351584,49.408857297696755,43.24877260531419,39.571998398431674,34.13259441668043,25.851940625043177,18.088903300777137,9.880986575139529,-1.3956595205583744,-13.020909839806063,-21.63623674850569,-29.626252954107553,-41.51804029630938,-56.17646780045529,-69.06714083480944,-79.7862593067545,-92.01620772718688,-107.33216406376475,-116.73101888754945,-104.12833199153599,-68.43416313539505,-31.482115949026362,-10.503471897489018,-0.595848802867684,9.202027517814857,21.399689681194005,33.131910340879784,40.60133964365847,43.84229102949755,46.94810941619195,50.71646536184801,55.035075886727945,60.57640221767349,63.903007561707625,61.68093333950975,56.30618926300826,50.72972708621727,44.24828580482317,36.40389553320449,29.997002238898887,26.015298952143322,21.134886460978038,13.890631876316405,4.785210185731251,-6.5698390157454645,-18.26512900778605,-27.259818492148376,-35.64192979449601,-46.95227449057112,-59.12906355702105,-68.92965961642352,54.0,121.0,79.0
46.08748197328082,49.55553338144956,50.36509169043698,50.43888032155549,46.63292161332988,38.593264060066744,30.787595681379653,25.099799704676965,19.614858888245593,12.343767420156691,3.9482435259185147,-4.292845860878046,-12.930397749209073,-22.27015610017104,-32.61609875378912,-44.13493489937432,-56.396101871519456,-70.72325074789826,-86.359528027399,-94.16020625429698,-80.26582580356701,-46.490018670841934,-14.314518332309211,3.5698818012617974,13.372945975929005,22.708435638955528,31.869028960550086,38.44444230151854,41.470364653839226,44.63458266596259,50.63699842224028,55.545956208213084,56.677535285020255,56.44973257146863,56.24394572651522,54.240390578728835,48.301831640131304,39.45721746557828,30.51171978247867,23.487040528266057,18.114740314641153,11.74726942813276,1.3712127158137808,-12.70552480509373,-26.34303924770491,-36.105066431479095,-43.53167910819769,-52.638830329062785,-63.56612315972072,-75.02735112500028,-88.58154549860893,-104.32326958560334,-114.13064279621202,-102.76330011675883,-68.06445870383472,-31.207600557497535,-11.007500548530713,-3.53944595331673,5.589403443716047,20.643957539323512,34.77502919393035,41.64722134350601,44.511682438346476,50.35238499402194,58.43202762464476,64.91033355806779,68.83046547174105,68.08301560290185,63.215902227369504,58.2566922321842,55.74991219115229,54.15075028065007,48.87236845743215,39.62045280211811,30.46697996737318,22.149051706501385,12.644118732355848,2.9615070932929695,-4.560380021738575,-11.542384341052642,-21.6335596446134,-35.37957808293411,-48.76088184201727,-60.13170561597315,-72.25260287808692,-87.80420436485004,-104.31887610085009,-107.576598623431,-84.10131913141765,-44.28058769417882,-14.467264857074445,-3.5442438829131175,0.9969637463358177,8.632863558093893,18.222773291884454,26.398301794189585,32.346122610583855,37.94591119882279,43.94781724046994,48.643302423624995,51.347847322341096,52.706253385308806,52.41742780930849,49.83236286078877,45.213630106300194,39.173332575061345,32.377578280508644,26.06504645168703,20.646627135234286,14.621381609773978,6.2222410342023275,-5.43919746976169,-18.598399184566777,-29.547971131620557,-37.377370606967546,-46.7136528807281,-60.736414984683215,-74.78303760588614,-86.40170302558506,-97.55054193863826,-99.71696924948134,-79.57256631325487,-44.215741603214106,-14.605554555427117,0.1609592629440098,6.723483576502172,15.510803563197763,29.24944601855831,41.36441390499687,45.70420599516845,47.45009982483099,54.47239515442069,63.99483949850758,67.61952110865776,63.48730652071211,58.54779283714108,57.18844665408451,54.1405967120696,47.359753871549266,42.05620438128339,38.374669200734886,31.88725711025745,23.472608715805997,15.939945639332464,6.924590825545258,-4.938061860667766,-15.835757912596044,-23.769386794803253,-32.567878254339604,-45.68598844075933,-60.21111896447522,-72.26867114233045,-82.97482895244393,-96.27234869158647,-111.36790618502516,-115.90616471949437,-95.51139619340873,-56.741840405874136,-23.620779609233455,-7.0861386833047355,1.9627752111537884,12.559870017989207,25.012242606230146,35.853933732528986,41.79713016546927,44.62835194775075,48.01632969320454,51.848263750838896,56.56718876143754,62.00139014222187,63.82402403209,60.260115734294736,54.68889990812881,49.0266492113387,42.04736657800673,34.25763085466579,28.705971833588695,24.843174599459196,19.253968514603553,11.461578781806741,1.7286066731291574,-10.08931453414125,-21.17379672530482,-29.520366600544854,-38.59136002681426,-50.57396533557959,-62.256370858453316,-71.336296155402,-79.94947758406461,-90.3004398855637,-93.53824103191447,-75.06502507754526,-39.58762191853677,-8.67434258438469,6.807403993307704,13.170692993157644,19.486320543079675,28.393352705223123,34.837288547483084,36.88070195669002,40.53832530043895,47.444572771295896,53.02463483976415,54.69883053283988,53.86838694571827,52.064002541988614,48.72224355109832,43.645254305888876,37.931889895561625,32.3707363177814,26.754683411382153,22.170414674106745,17.180361611114712,7.134801360395713,-6.411934622093248,-17.095973558714146,-23.05089557725084,-28.43326045491126,-37.27207299076163,-50.97647626396889,-66.2362799559143,-79.00220821568661,-91.82165368361997,-107.64277832622922,-116.2836783153622,-100.58545388933773,-61.51017707206853,-22.01688913141448,-0.6907537142363409,5.871610068689917,11.605824172010893,24.66657483070691,41.19771159910873,51.53237302820288,54.09595992630801,55.05002930765733,58.39956886987177,62.909513260123845,67.13051245033557,68.69531747385452,64.78505090526099,58.541355414783446,54.15675495458658,50.58194757222802,45.50219230165521,38.208324943046364,30.266805597363106,23.13784002471445,16.383681906523872,7.7828144833955415,54.0,121.0,79.0
45.73590051312852,52.68546680727819,60.52773566607647,66.37262660568348,69.17660097932759,66.93764019962808,61.625522004214886,57.25187479699443,55.389906475796295,53.16056113996361,46.43715793050361,36.82817090289607,28.0706897466152,19.568432193625366,9.721694608502887,0.5528112931895528,-6.46946590105656,-14.008961653665068,-25.35951836833578,-39.468005737726706,-52.17477412762338,-63.40745206266718,-76.33121081196505,-92.87661913159785,-107.46409402537338,-103.65355148474858,-73.11988042291266,-33.69137314938053,-9.70664924999576,-2.242010650937227,2.802532181567849,11.3743548040635,20.832273641409024,28.29162484806875,33.90512120284547,39.69443254321846,45.51238682203733,49.604836280960235,51.86255417479528,52.83442544162729,51.91048816921186,48.6796856872704,43.589827894162646,37.243218348080816,30.448975108881214,24.445044081706186,19.05826332045671,12.50070982016781,3.179388872594682,-9.249623677342381,-22.127996064239426,-32.01658793033724,-39.646621380913544,-50.36848445953774,-65.0696758666091,-78.26824204960059,-89.74742387618485,-99.83004037815513,-96.39698246812384,-69.99302641511365,-34.30898267027075,-8.885034446495926,2.3844939536067535,8.709067953894605,19.12595943456227,33.33090104209214,43.421947104782966,46.008722001720415,48.83028206910552,57.346436003990334,65.93352782752358,67.02769928426153,61.76185373916524,57.89344060511498,56.77158134218698,52.378444070761994,45.48591251953334,41.03855105421818,36.89228329819122,29.46308023911947,21.218443149658643,13.657383245964379,3.6836113613846937,-8.383650074450667,-18.355115604973044,-25.976108531671372,-35.925249567029546,-49.976857870892765,-63.998626047146644,-75.33595922618318,-86.40748061016625,-100.76780257472383,-114.55607982675212,-112.83668423369207,-85.21492612087097,-45.634094358281786,-17.3043286046362,-4.273498020456268,4.7195102476628,16.090421032202883,28.495112092804487,38.12460648911505,42.715779646866324,45.501648494492414,49.1083877766206,53.052832216130184,58.20218094064064,63.10210161712585,63.250473986206906,58.68839292928524,53.09131425418672,47.198581797609855,39.75210890103267,32.33078972809504,27.581454918924447,23.495507380029455,17.187170207553514,8.880922958316601,-1.531641449438507,-13.544389259042035,-23.80315279755675,-31.853638785190576,-41.831817335817874,-54.158968145786176,-65.13291578715163,-73.69325823327637,-82.85576013529753,-92.71873933209672,-90.74970642477935,-65.69468297759663,-29.308219642537797,-2.6746793962008333,9.11162852819308,14.723691349067373,21.91147960527973,30.785499890717738,35.685837819440316,37.51092644845533,42.366752354721946,49.39107757628569,53.90541450637794,54.60708597451411,53.443510926000286,51.299534461810694,47.39613194271005,42.003168091053084,36.316269078656404,30.735884722039362,25.274213394177675,20.99103442716924,14.904382278349988,3.3041354194539196,-10.02278881818491,-19.185664456910544,-24.439296792960526,-30.513726775866633,-40.772196917309564,-55.480212187093194,-70.20709152204357,-82.44941311498216,-96.20904189194047,-111.71247204586854,-114.73481703412932,-90.93965038264929,-48.96799641785935,-13.731880350569394,2.1268477680422757,7.054025707952105,14.561644471800339,29.534650820296047,45.120617903032944,52.858298072222084,54.24603686095796,55.76079473212825,59.6782110587907,64.20541739358032,68.03322948862414,68.12584531426951,62.949881280933575,57.048500970596486,53.1568327584732,49.34600087656812,43.58457212029326,35.888316092087564,28.103306495633348,21.21782183447329,14.220253998941754,4.538091314684018,-9.477270737428608,-24.292165568089043,-34.88599920855789,-41.30669120732793,-49.68590910043887,-64.27264589121113,-80.48616325101169,-94.48679859462888,-107.99366373590368,-115.43662817470513,-100.46867100977367,-62.24715884557712,-25.07959873683765,-6.102254195935832,1.6215814669599669,9.132152781206086,18.4680158510159,29.663891664167707,42.41772358465919,51.80139215058069,53.926403303627524,54.17157779824668,57.83388337686615,61.1575652907496,59.159782077684774,52.85834020890703,47.24601622382618,44.4334549465255,40.20121629498206,30.848351144002766,20.70362321078361,15.159820739771272,11.474910955061022,5.378788227217828,-3.602937921825234,-13.411195735054662,-24.290527919509643,-36.53736233180928,-46.55578619462863,-54.24620799593149,-62.82785903527475,-74.9924009196807,-92.80497295586656,-109.56771909199855,-105.51693127335292,-72.44718535913407,-31.132817033335325,-5.459412612548387,5.199417881995451,13.52371989818968,24.298045410873662,34.16534727928293,40.76954474786411,46.081727445473156,51.30497960909593,57.0851073856409,63.112159131061546,67.6164976583852,70.06293506103421,69.46152329103718,62.992665708486896,53.310354496153955,54.0,121.0,79.0
4.200749590969374,11.106188142484257,23.116117391990734,37.03792411871188,44.755542494938744,46.355225601924474,50.776183902691216,60.23942799439502,67.17774781471063,65.85003635048399,60.2055522048363,57.53846831178883,56.014161595780116,50.369620497472525,43.88624783600939,40.055597968752714,35.07777739634189,26.982981241981456,19.06621556844918,11.139854864135012,0.23412125569571637,-11.620717217176315,-20.636738661631867,-28.400848250732196,-39.67647854625138,-54.24851946004039,-67.52393557384556,-78.36847715042649,-90.16483565224428,-105.30515335196175,-116.43337856219955,-107.40581010060187,-73.84635984220792,-35.62627101609779,-12.379852562385231,-1.742166470715385,7.729080396313724,19.71799002217078,31.742878008930777,39.92276714420112,43.49477359763873,46.47299276915077,50.206542451513485,54.37639055632861,59.84854689504403,63.765115569204205,62.25419167741031,57.05893447470578,51.48542956101265,45.21597908246667,37.44449435990368,30.671182873023486,26.517005482858412,21.931328361347823,14.96348199381621,6.123418758751854,-4.9557756314801535,-16.83041527702254,-26.203409203437168,-34.384141508492846,-45.30178318774507,-57.60686763267777,-67.77616483059992,-76.10964140113732,-85.92942986477556,-94.15507160858277,-85.84272364795505,-55.30662557585723,-19.98007729438008,1.9876468596578205,10.919840087676745,16.457132650307244,24.53403767176988,32.78505158659839,36.22952532254058,38.46296355975235,44.399245639421906,51.10023150457389,54.44131491862474,54.37237956931028,52.95088643778785,50.37620684709663,45.94070506537424,40.3404516254903,34.718336415445705,29.091045225423944,23.929482865592263,19.674570359368886,12.100747822744282,-0.6847377139136899,-13.236007342082067,-20.915381332591082,-25.9146970434533,-32.95524145063933,-44.68813682665393,-59.97143317753809,-73.91201442533794,-86.04329404999658,-100.8639169162708,-114.75150700405051,-110.76793355378977,-79.64761490799403,-37.08972844489083,-7.226965268378758,4.008123732521822,8.513993045814088,18.228639575353878,34.46919518838128,48.30216674869475,53.62125328944617,54.442951812433215,56.70584006296328,60.99042692894101,65.46396451734124,68.61918463127661,67.05744516658082,61.075783029242885,55.7607995884934,52.15933514036492,47.933791223228795,41.489997409568396,33.568876834512096,26.028865763857468,19.29861711028063,11.833406938511898,0.8861580411349331,-13.941580232115847,-27.913424555912595,-36.989730648754445,-43.187526721508085,-53.32601514444995,-69.09529069421491,-84.72432540663067,-98.40355732279636,-111.41867186861205,-114.03346208181947,-91.02587523942907,-50.18561173371041,-17.659907528813832,-3.358698245316336,3.5897116552068935,11.66488634577369,21.479589636068827,33.302923228368535,45.78313671318683,53.092443172925215,53.8072996213913,54.89587493249851,59.12481343171375,61.212159603809816,57.58039395358947,50.95946829637419,46.226954568243706,43.63222764962772,37.99107104912446,27.650674564327606,18.60234475003676,14.153953234932459,10.053831519289746,3.008130196737326,-6.425345454189142,-16.348880265308956,-27.816905463133523,-39.79060365691679,-48.876840153739664,-56.51067644591447,-65.84729336656704,-79.57122209563333,-98.47951200622634,-111.42020719307573,-98.5088245861286,-59.988595631879846,-21.635851316230685,-1.4093589994224867,7.409437929899764,16.451209662783565,27.44400052892923,36.36521068357611,42.340362006146734,47.58317484517302,52.887746610772425,58.87391984814208,64.6329694777139,68.52159982896532,70.33953066249947,68.23511829372643,60.23419196004496,50.788943912601866,43.70080284903729,36.90875708927127,28.959072357978087,21.29315145434236,14.222494366920978,6.526675976157388,-2.3192889432288952,-12.428625088133618,-23.68637160126961,-35.421692619670175,-47.073494440972325,-58.80331975692828,-70.50932274694287,-80.58208709379298,-91.15151270280998,-107.2008151670013,-119.82001298811919,-108.14943140905847,-69.99982162400711,-29.380947324476413,-5.473742174789928,3.5883599315895833,10.500792790073303,23.15551732385412,37.5923086763374,46.639311117801725,50.720189430592434,54.55941816985096,58.768775672104724,61.44011889732082,61.793586532077185,61.23481254090789,61.06733483920458,59.354501515938374,54.01919404746712,48.25438443281149,45.089722406384496,40.97616809348321,32.12771807732952,21.505259997874347,13.498027345211216,7.218068748537007,1.8941363952074435,-3.4786377478083352,-14.070749326957534,-30.171212778050094,-45.13581658561307,-55.12081683727036,-63.38218964502968,-73.67858273526325,-86.62952699220486,-102.56996283434167,-117.45726912658697,-116.65623233172325,-89.15183250478574,-48.60714899298603,-18.968237965922807,-5.117668725576324,2.6084711818289947,11.85182268721268,24.556518376101423,37.00497135319368,54.0,121.0,79.0
-70.23918486233168,-78.68709926353868,-88.98315448561988,-94.14379670824697,-78.88815842673071,-44.521409406658286,-11.918658475302463,5.503567019546466,12.477843476222807,18.46129302710656,27.200937082319356,34.302446583989266,36.66160280428748,39.79799990800631,46.49538878159024,52.49764581221593,54.67547341838968,54.04350742524094,52.369828297140764,49.28258212234527,44.386463006721826,38.68621190654199,33.1162381269512,27.47530779184337,22.70850580423097,18.06267994304416,8.798949942556586,-4.645196796674736,-15.986427960992492,-22.406127401769414,-27.579327716317017,-35.80835496777381,-48.93818415188835,-64.31315900027518,-77.41943144719315,-89.91764462919956,-105.56001507316408,-116.24525214272593,-104.33818412973838,-67.33659881404178,-26.41893575986092,-2.4073938176400205,5.339347993112281,10.482373448740132,22.522118386360635,39.17792351610062,50.69011140188252,53.99922668813552,54.80609801302982,57.8353182617473,62.30594687537922,66.6381578914659,68.78368232567675,65.57280580295622,59.30050036866396,54.63688221933084,51.10351706204719,46.318194626454236,39.26395644943016,31.29280470564434,24.035411621306963,17.327185415300715,9.144141129944328,-3.1353838386365185,-18.326946823763553,-31.083244546960593,-38.81052952490161,-45.43772812566103,-57.5034382839686,-73.86412601813113,-88.76355858742258,-102.35455425109663,-114.04507050426245,-110.30298099687263,-79.94164735025295,-38.95931437479536,-11.927200813696201,-1.1854656167495774,5.713520766457127,14.332873069088972,24.66479959043527,37.043694914035626,48.68348784479837,53.75611876702497,53.75905622033629,55.94961876791574,60.217558522078754,60.74087478934437,55.736002554028424,49.251600425543884,45.43410441110887,42.54881342614439,35.322719558128306,24.5832478602852,16.952784044332688,13.157831715483471,8.362287269896767,0.42143080775815456,-9.252818183584385,-19.436329883761132,-31.41299081835959,-42.753401414599395,-51.07168735235533,-58.92298725476742,-69.23214279339527,-84.66678797915239,-103.75107157913945,-110.95730023248642,-89.15363333564999,-47.615522150214844,-13.852699901340127,1.669991787920998,9.720558495635318,19.581595739382653,30.38732416914989,38.29232365476769,43.87137083768061,49.08164057864256,54.54267681370371,60.65079558107989,65.98044353913218,69.26866020785418,70.30094934557906,66.45368897433791,57.3637843008543,48.51653429567043,41.845643320965614,34.6899692555255,26.65275490931286,19.236329719106855,12.108224973546097,4.092415290233988,-5.106061857780355,-15.583089896949792,-27.065327484678843,-38.802199504725834,-50.4351159841669,-62.24130970841002,-73.63697876979448,-83.29921722130717,-95.2210684141727,-112.10459353531033,-119.66850687555215,-99.07942028879944,-57.29317822462987,-20.47278291374241,-1.8269115390804223,5.246140852367453,13.539125406257936,27.524869599460718,40.92447819286761,48.10103477839422,51.727183091534016,55.81639754703646,59.774188324044886,61.754348555443805,61.630426740855675,61.16078967291238,60.88994760214957,58.14550287303143,52.16857192920641,47.10742670455409,44.26402248673854,38.903321488298076,28.979293420021317,18.86771093117067,11.612193593371012,5.539050496549271,0.539910520884063,-5.805199320326747,-18.389936715522857,-34.919968307888766,-48.49578717576363,-57.45103541918809,-66.08535397401346,-77.13846583435634,-90.93888800123123,-107.43314041923841,-119.64265382358987,-111.36838587591402,-77.59907001826656,-38.22149506504336,-13.69511087813277,-2.694048568294476,4.917295171648703,15.255093802732228,28.395378379038625,39.97384550392807,47.617839814778954,52.47353367865798,57.14507427341842,62.99059180651596,67.94431155228854,68.09278290247643,64.15275099186884,59.81608374087284,54.5854102326874,48.1996375454911,43.34075120189547,39.91155843799564,35.64330457553297,29.187751697192105,20.265206362323585,9.758485566380964,-0.2000196571301133,-9.666001493822673,-19.790738601732762,-30.27941341312718,-40.331739769543795,-49.80663632414125,-58.920961681021765,-70.66423478546908,-86.37073688456785,-102.12736378608643,-106.56176526022006,-86.35975498183844,-46.24166332086384,-11.150051929645546,5.032948918641246,11.441582709051008,19.62881473958484,29.587766801742333,35.918456153217484,37.184062925437956,38.0056160820801,42.52660066680887,48.81581593566277,54.26634131082061,56.95248825458352,55.04308227805112,48.91378081262194,41.17230948049763,34.69260817051713,27.798449857216685,19.562871465773966,13.57942302504333,10.263396544607012,3.7519458025157193,-8.918534911901537,-22.25408374525944,-31.245493356952494,-40.21657095128074,-53.43771616987446,-65.9822074000811,-75.79977420617539,-89.27740054244195,-104.59489466471409,-103.82004361710459,-73.24378505073753,-28.738662482140462,54.0,121.0,79.0
6.084841627101724,-7.435936239799324,-22.485795200617734,-33.787788287372614,-40.51012865253635,-48.20891111580309,-62.07924862432114,-78.4512334409028,-92.68899651407725,-106.26071458401874,-115.38832427348389,-104.11821616287993,-67.90588382413219,-29.084712248403545,-7.664195118343346,0.7448500705558567,8.014748160215117,17.131389238204644,28.04201618952842,40.75939820272535,50.97434317713597,53.9431458325601,53.96211792226047,57.219307984919226,60.962927094556164,59.763274292244134,53.767930629782036,47.810867130243,44.752202451108,41.05274505906859,32.30838009084894,21.830479182984913,15.667047394193203,12.049340295735062,6.384980292443701,-2.313116937207208,-12.08914578381742,-22.71480213050467,-34.95633664970916,-45.41721196533619,-53.23538492092633,-61.53808907341345,-73.05983687087156,-90.17986153969764,-108.06623636173285,-107.86197868969987,-77.99993029398131,-36.04202875355136,-7.755759503379046,4.1565082149742665,12.261092244100178,22.810710180065236,33.04623911466187,40.0189511585582,45.38654856373979,50.59495820326459,56.26972172066318,62.361051792769516,67.14216755509518,69.85508111995846,69.84162513711121,64.17633082077575,54.550963495005405,46.46271087777344,39.92605826597198,32.382213076882884,24.416121025783852,17.20997786241142,9.909632068495615,1.5609985263689032,-8.002433720427161,-18.826113271046992,-30.461735700248838,-42.16892391252044,-53.815208375849465,-65.66202388461656,-76.5711396799705,-86.19715488562856,-99.84565592317776,-116.28542492372064,-116.95669195776844,-88.08792510640572,-45.119645415317734,-13.223575307331654,0.8139555041479912,7.069958556596035,17.136977077729615,31.83753924806521,43.665620491963764,49.260094918572996,52.81457472761495,57.06705546575646,60.60166361500562,61.877340721732125,61.4464040097046,61.13234087483493,60.493131686286986,56.62058049338516,50.41802237531203,46.20034439513995,43.20285546449112,36.39672493287454,25.82716120510862,16.515525739513652,9.794874723478108,3.971679767517458,-0.8961083963640851,-8.716939126409612,-23.073642063439554,-39.379217787347606,-51.421123962943064,-59.7755963823247,-69.0092612893797,-80.81752127551549,-95.51826557107441,-112.0267589317235,-120.04259242522517,-103.74707581261679,-65.57560906390253,-29.263463752064013,-9.595440630834736,-0.5169384688208684,7.490286569083504,18.930500164178916,32.082516159907414,42.589551840047086,49.19831153266949,53.732542465073,58.73178015981487,64.6978107985627,68.58551451863359,67.18112355942333,62.87253540414685,58.489921890461375,52.750084541815994,46.55700079345707,42.30299645027818,38.85086335829874,34.027898172712305,26.859734541692312,17.29700767638957,6.766830094384638,-2.9217212349027695,-12.502412297510663,-22.834776569182775,-33.23396015742367,-43.148029092393685,-52.396015344991625,-61.89178283433061,-74.86205167452749,-91.25763528519539,-105.26278472605249,-103.5685779871287,-75.89570335054425,-34.474214726017685,-4.622147030603133,7.216052502650934,13.397612827644716,22.569757319625293,31.971627751145483,36.69896391142291,37.17695080329754,38.92833433683921,44.31236777136516,50.552325426118834,55.42924850645773,56.902363270663955,53.63753337515608,46.66667920375521,39.15464191810576,32.88476095781993,25.44326675670584,17.444731366149703,12.53036624641609,9.001127864936919,0.6134124279798249,-13.058347650004668,-25.283058699896497,-33.49144133429753,-43.68319269324219,-57.42617785998369,-68.88839629739898,-79.06687239846683,-94.07366481117027,-106.99432019782013,-97.99743568353232,-60.36673758794435,-17.986235384339718,3.386669900928984,8.692922177113886,16.839600723645113,32.13523060330831,44.93331295986829,50.322647014529146,53.69649280813694,58.93607146655618,63.98992290956515,65.78021457144088,64.27833838121586,61.307520247537525,57.671574086260605,52.70428600479938,45.39006344067868,36.661492785715545,27.790178690455726,19.00108641043258,11.445456831064018,6.211329786994193,0.9166204734860808,-9.497637036443075,-24.54927525712212,-38.65171175880947,-51.182577795617846,-64.32217430268783,-78.2021645512936,-92.02951543579742,-105.37505975821641,-114.86662908683336,-107.77841446081241,-77.04241033582073,-39.26435627844863,-15.003911265355638,-4.467939012170562,4.7334952021262495,19.424462058013823,35.660577934458146,45.9635916207357,50.677824808740056,55.270341219058345,60.74434521108803,65.95608220557882,69.17988454510642,67.8470096561701,63.06325116922813,58.23719923487812,53.74823414438714,47.509882256336674,40.28904696945568,34.475029284366,28.430211564864905,21.284667667776972,13.905826157873483,3.8355340255917403,-9.474799204364695,-21.563717248620424,-29.8153300765664,-38.15556304267444,-50.90631361615856,-64.81847532421259,-75.01332807335463,54.0,121.0,79.0
51.92072468066979,44.55555207600648,37.891120674884995,30.03752096638139,22.261020117455715,15.174648797759431,7.616472353471386,-1.0707987310834226,-11.007606990927004,-22.140308074370573,-33.85860023190202,-45.52631147907113,-57.22294175330171,-69.00904341924874,-79.33826535142225,-89.47068693202999,-104.85260394150352,-119.12777528668221,-111.53573611999273,-75.85241512193377,-34.02435915790556,-7.580379455118776,2.796650086945058,9.296071365297506,21.185376301106295,35.87504927145588,45.822100719645206,50.26883130608484,53.99226907239715,58.256172952189075,61.22477817274909,61.84619434524792,61.28933677717918,61.10225872612973,59.79349706251963,54.86892630539821,48.87620394626595,45.43433256143861,41.77835778070027,33.53408010197001,22.81577471358267,14.407626495233067,8.019431042994107,2.5274666399910455,-2.5755939352445756,-12.246515838251984,-27.93018024361347,-43.427000749712,-54.00721022319647,-62.2051788857619,-72.1552431147624,-84.735523849353,-100.3160231430372,-115.97647836405494,-118.27282070384634,-94.12262552777615,-53.78748571251675,-21.865175248345896,-6.381002950921446,1.6050049347740099,10.394473273280218,22.76848563484096,35.52189650519439,44.858671404106865,50.60090303338751,55.04457187050469,60.424557676697816,66.24026130904288,68.73311962562424,66.02457011811208,61.6290891496733,57.02457167033372,50.86189687630524,45.11111346416312,41.334826889293154,37.66633933415929,32.21191571121068,24.32232411569733,14.239556737602424,3.871514043908204,-5.6366732487156845,-15.414938024718351,-25.88144208407855,-36.144924370253165,-45.90745194354348,-54.97648412042299,-65.18564721953184,-79.37493251919658,-96.00667974286668,-107.083879156599,-98.23226105832703,-64.16728460974848,-23.83747416793359,0.26137717589898696,8.969361630823109,15.694690956334956,25.537014632494696,33.92704543284224,37.08090722893261,37.30435226426302,40.1978967293251,46.15457820127238,52.17721345753162,56.306234878592,56.43753710977516,51.90721480823467,44.37983360889571,37.28447593059337,30.94875008802872,23.011618201741324,15.62889291360237,11.63887913382512,7.284095222149201,-3.0259194491546992,-17.044472051253585,-27.898639517362653,-35.944371186340696,-47.5165719110418,-61.160329153793214,-71.63333732785262,-82.8428586198416,-98.80431073202631,-107.47763661011481,-89.5340826011618,-47.074023048934876,-9.246233112886136,5.6758283920904615,10.16330834898299,20.83671921597046,36.54534621573881,47.13061941065683,51.20108348922335,55.03073481208969,60.579536283362124,64.91674673672073,65.60297277301167,63.506643326158084,60.32789382403193,56.43428745029842,50.83583291201909,42.92949884901646,34.10078439424607,25.217514712973554,16.61550662209702,9.705450805128283,4.9171514128492495,-1.4131242390311478,-13.615605531122071,-28.890215137792314,-42.31276653179497,-54.874742635254606,-68.28666264427133,-82.23615730528954,-95.94924519153864,-108.90545034763171,-115.1982532085226,-101.02612229069003,-65.70404549316731,-30.41805429160281,-11.043921285740378,-2.185924287412194,8.409363916944548,24.32868342618972,39.44259219755567,47.63965954497663,51.864687453240755,56.82217403619849,62.317795015029134,67.22177831889215,69.31474924811504,66.65477339859692,61.57395880152964,56.99267889151098,52.1844316192271,45.381344778917814,38.45575366156662,32.8810382821167,26.4001062892197,19.234201473281466,11.401749733579559,0.19003260768547964,-13.323798173291337,-24.28013534454054,-31.935222060776297,-41.370688406827014,-55.11468370178329,-68.16745185876847,-77.59882267145383,-88.84783129232854,-103.54486783594267,-109.29825424066046,-92.4753053199131,-57.365513483013956,-22.437752447862966,-2.626389990772471,3.148039201140235,10.380195087144363,26.931003999542916,42.4127785829953,46.577969196887125,45.37959794376176,48.300685840951175,55.129182478896524,59.93632538483127,59.44631992188472,55.701770178803,52.361683382412714,49.72002181439982,44.27983092389973,34.72574758129993,25.225556146741106,19.104777958060463,14.603537656678022,8.640201924288036,-0.8176703844334863,-12.177150284921057,-22.56146559021018,-33.419178812867884,-45.61665240657226,-56.05195405705369,-64.87763189506063,-76.51913269708311,-92.18199245370003,-102.1251459791571,-90.73305406223753,-56.09339048216924,-18.390499129751458,2.1611755180101904,7.794994956371546,15.09703407688557,28.892311602218136,39.048394484643914,41.56351525711074,43.061868481941815,47.61419013409518,55.03462685014422,62.70799914784905,66.0803324959401,64.00672185999314,59.11875057503157,52.12934781301407,44.002718705809706,38.25219648994162,34.2514523220856,27.802451786748904,19.282804498158598,11.146603223760913,2.9031510556978444,-7.855982599219397,-20.18929813793676,54.0,121.0,79.0
38.64837211767641,46.811349641101444,51.89446838688706,56.45473348926405,62.17954094663919,67.49492690795618,68.39521790605673,64.75055225873908,60.39648998348693,55.39175810960784,49.013681237808214,43.86062503738257,40.371019022917274,36.323077916866524,30.190139460066174,21.586341205841297,11.163940618836545,1.0683558996823581,-8.38196362937929,-18.397437374761456,-28.901379041275984,-39.01884385680105,-48.59373715274247,-57.637336155729635,-68.8487791408547,-84.12790476734331,-100.35107379987055,-107.18987936480671,-90.59265164765192,-51.88395327586328,-14.753050229260667,3.774738934198727,10.631929759763949,18.325861262492012,28.368727913347435,35.402794540115366,37.18574703486891,37.704636256324406,41.74518664377689,47.98756927132323,53.650867929738226,56.83753545044265,55.57104992904145,49.90641216087283,42.155346732563146,35.505918732336205,28.83465512228928,20.61851706479017,14.15148985319454,10.736284656379985,5.004499002146434,-7.015108652831711,-20.706362259448305,-30.222011498269257,-38.766605623892744,-51.55872026650417,-64.54356122085031,-74.42975184036808,-87.14611320930858,-102.9956980467816,-105.58262344607753,-78.79562756064041,-34.260158576114655,-2.670028615850909,7.0795385547777885,12.296244710114863,25.32002079317426,40.44945245288799,48.7228493179916,52.10434742778661,56.54199137053954,62.117381802236224,65.51022613601684,65.19079764135418,62.65459956842466,59.298387260916954,55.05379947784833,48.755138272278984,40.40000112486802,31.54063654867152,22.656881591598765,14.375839969857582,8.174908086872442,3.5066682583530975,-4.295004040437969,-18.00916922213012,-33.01745150981176,-45.90648953769734,-58.65307173509654,-72.29927460326525,-86.24243261489764,-99.83593295231542,-111.96400724062414,-113.72646795256416,-92.32168857669618,-54.41987449682164,-23.07034848458188,-8.001990133150676,0.31186572157499726,12.599361783598317,29.169405693404673,42.565850889413404,48.97647797964091,53.15993190814959,58.4131733160589,63.85238149349167,68.25668031386829,69.01362039290647,65.25820284027972,60.15601507322255,55.74010583016885,50.418701904405445,43.24456572797723,36.775931741795425,31.179195474507267,24.31639996722878,17.157160830341795,8.583394432318913,-3.6818093375703933,-16.92478977246924,-26.673711222457747,-34.22164529450157,-45.01125492845279,-59.249858324224185,-71.13753499914739,-80.36279122478793,-93.03377152522845,-106.91561362040989,-106.9893747723096,-83.50379528959431,-46.39704869700314,-14.829160498087468,-0.06605999381412575,4.379061565729756,14.391489511376799,32.2032765078387,44.816820471384716,46.23485201267943,45.616791690712944,50.10235108957083,56.97934504573347,60.331310572627864,58.521485315765545,54.58423345692556,51.6449213094113,48.59860992232004,41.83810322221124,31.734859040971983,23.109959039714045,17.784691268259415,13.1512420836238,6.2904685528358115,-4.080426025604402,-15.297589830085498,-25.51944586981615,-36.91227012454726,-48.92721865075324,-58.606908670744076,-67.7513960632014,-80.82626655446913,-96.3531622818588,-101.56029235335569,-82.54709165027779,-44.34601205937892,-10.293703594631726,4.6301909339594145,9.117518771162798,18.736495714108546,32.664472853233974,40.35297885965669,41.79331121114658,44.03508622265361,49.516887825242115,57.42572478902422,64.28746285597144,65.94122077953101,62.7923613510565,57.335114871607125,49.75402515559235,41.98559032466106,37.11782233542771,32.73971939520163,25.41916849582979,16.84161418855684,8.888047618458948,0.11063007350285894,-11.412770618083028,-23.576238915585257,-34.597805287349345,-46.618453510416515,-59.64598202514523,-69.47336234617471,-76.50101948742184,-86.83731411168861,-102.63894275520634,-117.53173719806908,-116.83621188660422,-90.48658917710162,-48.742607244298775,-15.580293473581769,-2.0216522777731276,3.740915120227281,14.418782142941994,30.847840382820305,45.92987565330479,53.2163529471039,55.643536123009696,60.59458376632439,68.92667874913971,74.63169786024922,74.20306903343366,69.41427637285392,63.4201768814209,57.83693738551519,51.438124154600416,43.220377146929046,36.38950730608651,33.629273723806996,31.114341197011978,24.493011477248277,15.170959939832457,4.864926160807024,-7.137182584034707,-18.701130330023503,-27.160463013565685,-34.503725163279235,-44.483274120601095,-57.40747947061978,-69.25487306824205,-79.13533513558656,-91.56134178549519,-105.17565873216213,-105.5516172308092,-80.2041542560467,-39.1529684110773,-5.681785141476285,8.194025193312452,10.569203539735655,17.081278415241062,30.966608096502952,41.584262607608515,42.4220529664114,40.09759568414624,43.50405342978694,52.28769273544568,59.29813857413222,59.85861659318746,55.22255642537003,49.29743432509051,43.75077108129466,54.0,121.0,79.0
-22.71394463605274,1.8780234648689913,8.161303742643769,15.224476574264257,29.998958831830162,43.68511820185164,49.880365220404954,53.14951197117429,58.16927560583347,63.45902347622105,65.7678233961003,64.59843339877035,61.74380107863661,58.204395770397376,53.49284376664531,46.48718212639613,37.84268709523966,28.975387832007808,20.137786696407336,12.321772920575713,6.808518331615224,1.8246998959646408,-7.737851377280474,-22.496196330074493,-36.91847361103596,-49.506066246089176,-62.515766832903985,-76.33801956631834,-90.21176385134831,-103.65797362120651,-114.21324217848324,-110.16351941698213,-82.1030513270481,-43.79950649421088,-17.228566751198297,-5.521159961912965,3.221063843326948,17.2046108799455,33.71845829264125,45.028803521284026,50.14951729958633,54.579698258729366,60.01111228171155,65.31734816955455,68.97575569822823,68.29898190819604,63.76147274096954,58.82520992591118,54.408248539905536,48.46243435742285,41.189723493217585,35.19437401506458,29.33050696664697,22.23536785102232,14.97392073543426,5.413729610034949,-7.651972706169379,-20.186571390629272,-28.84798196351863,-36.82170280056871,-48.99368118763952,-63.14130789350008,-73.82516879704558,-83.47855404683575,-97.4295359589607,-109.09576394618371,-102.55831859133723,-73.33521829181245,-35.94582033040571,-8.752922980890327,1.5518350170947528,6.18808599540189,19.17705715496446,36.98232350162003,46.15522313022557,45.75361916357827,46.35464666724017,52.12543698389925,58.49890606191033,60.26225022452698,57.417956219395926,53.58342629395274,50.94055861619244,47.136408431005776,39.077876330702765,28.89472764904382,21.30470632120531,16.51804146371506,11.508588052995552,3.610638279211083,-7.406715588766029,-18.295253155310576,-28.601864402746177,-40.483110134276046,-51.99843094374795,-61.09650437815172,-70.99149962112526,-85.42604343286766,-99.68376226149496,-98.8307761397847,-72.61230057922118,-33.01203030229793,-3.9789570104814085,6.175601810926711,11.00836176544541,22.813817983435136,35.81598328813303,41.08408851662885,42.140006018073656,45.29134098224142,51.64283075910941,59.738796465332555,65.39356466667329,65.38410836536596,61.41316533659467,55.35705313371449,47.34516056066332,40.261507100171265,36.03397143768743,30.932303244167098,22.935899711990324,14.47863152612057,6.568231641433023,-2.949830753639488,-15.019714327884397,-26.8300478326784,-37.85909242944879,-50.43723970505486,-62.96582515928462,-71.55086311334342,-78.90915715053147,-90.94449579532615,-107.56936774994905,-119.64525368343108,-111.84872149268583,-79.0105423220626,-37.310372219630516,-9.858170536809736,-0.3196191409524866,6.072180131292593,18.79065111364324,35.74378967596919,48.906172549725156,54.06583002917066,56.58724737973918,62.864702772298,71.11830580229099,75.12964674092923,73.12242466443954,67.68672050590925,61.767713819218756,56.17273973351165,49.191307989331044,40.890697155187716,35.22199111283814,33.15620744260288,29.661975553232633,21.930126087253743,12.324005151464501,1.5594505002403407,-10.700349254090128,-21.468666858097492,-29.21529596067995,-36.99672855824234,-48.05232313713529,-61.1163774058861,-72.15668117315225,-82.28674233151287,-95.79328600522268,-107.46904509135683,-100.91955059362539,-68.94634266099835,-27.79657309304885,0.3328791533087443,9.318337016141463,11.52796593854049,20.66261485505749,34.90565377294452,42.74717718329616,41.584322673844575,40.29753332532295,45.758060431935654,54.81640666656838,60.16700160513856,58.88278199422537,53.50126114885057,47.66799211208098,42.109636247833976,35.70565845676176,28.61026144098424,22.385110128161234,16.013748266644207,6.685198876102932,-5.092953291386073,-16.152623391713927,-23.584689916556016,-28.15914841984379,-35.115906842374585,-46.90872220913652,-60.55673559248322,-71.01416410879557,-77.32017564656309,-86.55034886145168,-102.4677357837849,-109.02276585927633,-86.27358151049624,-43.58885186956191,-8.124919697138386,8.526978533891697,15.054414301766517,23.334087603595066,37.11516803335486,51.24429627867381,57.238345080023805,56.2530680019482,56.661826108931024,61.25891551522453,67.0413966833132,71.24970327563123,72.50702540235369,68.39542314697023,59.71739722568494,52.083913338700384,46.785690277115506,40.90540453899689,33.198880853853765,24.074675629984004,15.523387277981874,8.816625172414676,1.6345292815159935,-8.875723068748613,-22.94952424122789,-36.53644150799987,-45.946347436694886,-54.09312679138223,-65.37114662971796,-78.98384355134468,-92.10640647376076,-104.82089743509837,-113.21485972439544,-103.3094107459752,-70.546944654088,-34.097189682216275,-14.577078190244148,-9.64878186514481,-3.77280240128696,9.195949532917489,23.68002589854139,33.605795077562526,37.41718211639114,54.0,121.0,79.0
-76.3967667650925,-87.04699975296936,-101.71673706820019,-109.66841653620833,-96.08475944076316,-62.46827560092768,-26.422021291970324,-4.225327627297633,2.669583439348437,8.839930654126936,24.4443337324286,40.933854203516624,46.59942391885559,45.42129359678503,47.58571352014286,54.20179746581664,59.59152161401597,59.783291547916505,56.24161283084262,52.71896183944678,50.1467676505975,45.27604763194537,36.118030798576115,26.311577868484097,19.7546349190893,15.226796955102836,9.613721377578429,0.6344173818721364,-10.694876602098905,-21.217994244762437,-31.857749652805897,-44.024528893276795,-54.82261440077259,-63.64552281763616,-74.67047621334359,-90.09277449551523,-101.7316330546604,-93.80875756237147,-61.465091712683495,-22.68276952802153,0.5876564489153075,7.2911700740975105,13.634618839049406,27.011407547131288,38.207918332406436,41.45333902412341,42.7090375621519,46.82063662554549,53.93969683641099,61.843313155653036,65.98265042085364,64.499999401341,59.88030599857756,53.18639179269742,45.01714909757891,38.8294731290259,34.8587837839344,28.84418511898539,20.429250189023044,12.187598835316662,4.106640984724137,-6.2608168892973195,-18.58210089629943,-29.99156947602333,-41.28394467472612,-54.27819224317018,-65.89724055254307,-73.49969726943316,-81.7563646907212,-95.49085277445815,-112.17897900206981,-120.02933242908531,-104.60865260743935,-66.73491706989157,-27.22106780780811,-5.779250182323558,1.1824874364177764,9.010773344304434,23.558383176652686,40.2982343476043,51.13517188934141,54.68962532987549,57.910507548926674,65.33358379745943,72.91564531128516,75.09519667408787,71.75511702450409,65.93293496528442,60.164787889489205,54.379848161186835,46.79747806754997,38.804355361248035,34.40868822377252,32.542318541639645,27.809417473244267,19.233188876402238,9.391804879840855,-1.9058925523589327,-14.12641946548354,-23.945112367289695,-31.2737418984031,-39.79656274326045,-51.81590673187911,-64.6125885985608,-74.94845610627338,-85.79142459495827,-99.96920724079513,-108.17892270881312,-93.97596440247484,-56.88497292660039,-17.64872929919917,4.612302670598464,9.868049122045822,13.187449710553729,24.74765844901696,38.23350754271826,43.0690996064866,40.75555130226391,41.14010032253348,48.340960360632934,56.997733483918275,60.44429575737096,57.55610594808761,51.76742024420194,46.07498628344946,40.38766695835614,33.655093934681695,26.687391156723578,20.70073740358087,13.686373891018983,3.4103913028240544,-8.511233340925118,-18.753612821079958,-25.00281376197137,-29.703928593514085,-38.07362352633811,-50.884046703720664,-64.09450510648318,-73.07996322021633,-79.27315967102057,-90.74711414389314,-106.48133677284001,-105.73793269108262,-74.77947818772806,-31.61758631782093,-1.4922691262222176,10.822171172516782,16.92827127311877,26.81493541131123,41.58462853847151,54.02292247152855,57.306653904520545,55.935726763250614,57.64138476450857,62.97389684408208,68.47961510041652,72.00110691420387,71.9685154381452,66.13202633459088,57.20196284399324,50.4308743104261,45.251857478621865,38.86780686386507,30.655547665068845,21.428062923480056,13.441208375472023,6.941974611443044,-0.9798338074872983,-12.675122190899833,-27.177062498450006,-39.68539246153966,-48.17429012122832,-56.95579542215771,-69.21788025196359,-82.87615796469187,-95.79811854937736,-108.1798921289794,-112.86935413753994,-95.72722106247184,-59.20250207268365,-26.329024379273122,-12.32125268898189,-8.62147580050311,-0.6348966785586275,13.564596768173358,27.176563793933614,35.28291130022572,37.69840611406003,38.268618782910636,42.22846232470863,51.8409927187108,62.450711791192944,66.71400579823155,62.83624387589807,55.881167521490596,51.482484844946946,48.17125686852464,41.58769068095251,33.67687336770628,28.778149661192494,24.68256108319333,16.92161469084464,6.409248649405565,-4.460742207310836,-15.787448390044338,-27.46384580025591,-38.52141779113093,-48.009896323997545,-54.76584604645608,-60.982639462372944,-72.32430334663144,-88.85120658441275,-99.18413252960143,-86.44556860774696,-50.89516898664983,-15.63867148498601,4.139431501653908,14.119203173437562,21.374110389982306,25.963799443101987,29.256735559482813,33.634193770023174,39.54804952264609,46.01056180992007,50.88554360547274,53.2837901273012,54.23638458933876,52.85807438186301,46.93553930158121,39.21790932462677,33.4060764610876,27.449932100293545,20.392780806562932,13.548710525206722,6.924322135995987,0.02606641527984097,-7.546801096668605,-17.16746152274255,-28.88037409915103,-41.09658105771964,-53.700820169875435,-65.51657949510613,-75.59345522343047,-86.49789341023752,-96.62949907738974,-91.8585893636384,-62.30604578270151,-22.5876409919226,3.750523644049499,12.01821271782644,54.0,121.0,79.0
-22.032176707762734,-33.1329486619723,-44.895956005738704,-58.005079084635014,-68.42726349338665,-75.50568812344832,-85.11283468795764,-100.34746126429931,-116.08477409209351,-118.35901347703245,-95.3393807433465,-54.3243903294228,-18.829920166260784,-2.9925291508272585,2.84503327853966,12.575924454158866,28.539068228954275,44.30769436937347,52.68874840693792,55.30629125163207,59.65574828952961,67.82340427960186,74.21560669987565,74.58162215829319,70.18463045330132,64.20179148771162,58.57774907803984,52.41124265449561,44.34162439479342,37.06128041829105,33.84519959630944,31.648367297242917,25.605143517611282,16.464311816856704,6.330385283037865,-5.477919475171089,-17.322737049319837,-26.184583899211933,-33.44097837440838,-42.930128374637455,-55.65146688429079,-67.84869805037674,-77.77618100425687,-89.66821675853477,-103.716194756568,-106.89604161851875,-84.9531512142252,-44.66587195639569,-9.058450817060372,7.35764065249203,10.29681909293054,15.665810838419597,29.025456149864887,40.73808654907791,42.73179379439239,40.20063954241768,42.62407982626956,51.05226305742871,58.69945761609672,60.16098000635926,55.992679289144576,50.065487626217596,44.48937744403563,38.56207501674439,31.578673490347068,24.876083536729436,18.93311987891349,11.053323109314707,-0.009974208617918395,-11.786589944138264,-20.984723141679062,-26.266500966670172,-31.59276101475647,-41.43584545622538,-54.90012479632367,-67.23668024873587,-74.85193621388458,-81.72311358565989,-95.47127057904373,-109.07815180347401,-99.6629290491633,-62.22598325663939,-20.898981693716987,3.534789653159987,12.627575518662692,19.176878487140186,30.763245449120742,45.86638312577645,55.93800479895282,56.965413865110825,55.93887049019669,58.94813702693039,64.6885529844032,69.74655711764478,72.47231739148542,70.90275718508559,63.58467709551132,54.92225691942179,48.922978726328196,43.59624989060383,36.6735318104716,28.011190905410093,18.901125379380318,11.50943138819592,4.9416996759613605,-3.9291695762711605,-16.743780451181546,-31.217643895461844,-42.443389521861285,-50.43984526675897,-60.1529068364602,-73.17947779565988,-86.6762418133758,-99.49854398562742,-110.9758455521773,-110.57115485494877,-86.35837707840767,-48.22702028021049,-20.326447571546773,-10.962637791857683,-7.128989678407451,3.0819823983583214,17.861229181670257,30.182097232275815,36.45747324191769,37.81545278606643,38.86445956558987,44.48740076916058,55.16677595169365,64.56011662373409,66.31078392026072,60.81766541586433,54.25279005868855,50.65583347429982,46.66936346262128,39.190618902230625,31.895750906530047,27.77084418779477,22.886111346712184,14.019617838930943,3.274172372832197,-7.659069249270548,-19.171161383233944,-30.754231182936866,-41.487015764065546,-50.250603841004335,-56.37745510512638,-63.53598448360595,-76.84605022789603,-93.25236519211809,-98.41502136652592,-77.73677840329462,-39.56724048008655,-8.299882954573606,7.55112380250263,16.42864097872913,22.98522130183477,26.917019536215335,30.353244867949005,35.207290950037404,41.43515687470682,47.679842822507396,51.79438896921282,53.67944424245812,54.20305787331999,51.621392699699726,44.63577756338356,37.34941036177153,31.83254238242635,25.459245635710914,18.365012140293977,11.638933412185583,4.970953884697689,-2.0534076153524254,-10.049772030340863,-20.41875808241763,-32.38636853965842,-44.70305879153726,-57.29432920168976,-68.54675722979736,-78.52753933408019,-89.91398054464122,-97.56293645770916,-85.71322203399028,-50.69813730535384,-12.915106397225594,7.59236364754433,12.841949969464544,17.91327500689465,29.546510450966295,41.20303098513013,45.90453932603973,45.52989109089783,46.628665630108614,52.02486463747519,58.428868589508355,61.628139972148986,59.60318790636619,54.03408717252691,46.686162331455094,38.27659266437188,31.732354421720476,28.4564578930358,23.689536514696346,15.293336652239258,7.063319610790637,-1.4844467695900871,-14.254660526056377,-29.80780916770996,-42.65586435638375,-52.137685714775216,-62.90515187669653,-77.10474327970003,-92.81175122986498,-107.73101400592604,-113.97631024320064,-96.71938690201208,-59.154164117711694,-25.95293210210003,-8.77493023541973,1.596343324060209,15.840592807205757,33.89861057754256,47.217448778026345,50.897384254443104,48.902664747552826,49.211654437815604,53.990324480973015,60.53278612036361,66.36957281866087,68.78181246375513,67.01648999322974,62.53767604886421,56.043889372071376,48.04156901888718,39.50473867013365,29.996805043243246,19.251759822797034,9.426909737263692,1.0059762541883728,-9.187735811400294,-21.766555475341537,-33.3795602431184,-44.45830970037292,-57.93843958143306,-71.59310265289815,-83.23778216103715,-95.85881333193574,-109.70309466057805,-113.80241103084836,54.0,121.0,79.0
42.87441478417183,36.628837219992185,29.530734894154783,23.158793653949946,16.990414727186486,8.124196353089049,-3.4910883755247077,-14.84022841377519,-22.84226763476418,-27.531383188934626,-33.901019776847306,-45.12547176166584,-58.82004177636229,-69.92664809071464,-76.52059239479507,-84.85386394649582,-100.331673443683,-109.61337244098495,-91.00744987982836,-49.39422680794649,-11.7609307338359,7.202997265710548,14.273084287961451,21.902846000426212,35.06272452537022,49.696469742656845,57.00312326052321,56.46835090061305,56.33914087144021,60.49350656303072,66.32707578024504,70.82344927170536,72.59257051528517,69.30109494529502,60.929528401808284,52.918697251148295,47.4653801839571,41.79109036985054,34.32831897368681,25.316144426262408,16.54523743576928,9.662357443981413,2.7377688396843727,-7.233581443243109,-20.97821860895964,-34.946306483458926,-44.88950957496526,-52.879908057090944,-63.663361202426344,-77.16195356915685,-90.40235094222075,-103.17025646899721,-112.81246172108877,-106.1076063388375,-75.71178998137977,-38.23592050111368,-16.037661722535557,-10.044863329260213,-4.993054682661475,7.20946786848235,21.923241333238998,32.651798122343365,37.1972475118228,37.903936820218775,39.869751102660764,47.22519574472824,58.38220109978232,65.98205471617868,65.25899336648517,58.723811712685894,52.9353670980642,49.794109046824246,44.81528613268062,36.81462049312151,30.442582692600524,26.689026011693418,20.7102594736748,10.971243544661485,0.14130888253772117,-10.917258292156186,-22.561290192787542,-33.97498833260469,-44.29091896895498,-52.236280145513064,-58.05617700294062,-66.66511391170658,-81.7057459560655,-96.7396983113395,-95.3071185494894,-67.43292041836345,-28.95771295360382,-2.38082464135314,10.434223482474822,18.583235028890865,24.345455753803332,27.8354031892172,31.582304600202587,36.901119126883884,43.33464635731366,49.15085712508953,52.50881038530151,53.98509475310887,53.913648318559666,49.96334204442255,42.33073354598305,35.67478529089722,30.151988674738842,23.40643485713881,16.38014054274254,9.732951487440452,2.9865425353599586,-4.201207914377942,-12.773410037328082,-23.80572696297206,-35.90608258218167,-48.35300776072836,-60.76276188584163,-71.44021279302898,-81.63168838756165,-93.12204105507224,-96.77937729041011,-77.43616294934361,-38.86858513469626,-4.857668927328856,10.063987963203056,13.723581497875106,20.718144782756095,33.342265932848534,43.3714557537105,46.03595537394958,45.442320518949565,47.80745732065819,53.98424294894972,59.83177771765957,61.56789253716159,58.23528891486493,52.07695936542284,44.285047549543734,36.029802692202075,30.563886533583812,27.493347451486304,21.49755357540718,12.773447556598901,4.820264538467892,-4.656817903431783,-18.704186665348395,-33.97973990924791,-45.57438183218153,-54.9147934185695,-66.70371111861363,-81.58876767354852,-97.34763913900511,-111.0788703096605,-111.86283924814295,-87.00848054935712,-48.08524241661739,-19.50886519711275,-5.6813514517061625,5.070557479945805,20.980535923425577,38.61214344957609,49.25633196094828,50.53912545031601,48.491609746353916,50.2358603526631,55.81184779650548,62.412125709930834,67.51421038422464,68.65312890103024,65.93793758603543,60.86810760263007,53.83282776698827,45.61644299632891,36.90820639725179,26.959991635305908,16.209451594306312,6.957036318829571,-1.620573186637779,-12.70320299527869,-25.33517529913181,-36.4583997062067,-48.0991111318938,-62.05254919944394,-75.10999727484653,-86.60654100330433,-100.00059469638977,-112.59615213634272,-111.02867514020977,-85.84906812786345,-48.68822209463285,-20.368156655194078,-5.677191379262338,4.715758873781644,16.157038969687875,26.013699920460734,33.3868973206837,38.9133018441204,42.54732838534069,47.812550705061355,57.31356565973842,65.12312743956635,66.7173509441105,63.86117850592604,59.99924773002308,56.32305451379058,51.44329146009241,44.06159187109583,36.301945476352564,29.591219607042873,21.817274757057486,12.790469655075816,5.02401948217434,-2.9296813843249443,-14.361103307343589,-27.896753004444523,-39.227936771853116,-46.716444691562266,-53.32265864934468,-62.59694914905776,-75.58216959569208,-90.56787239329039,-97.35522949282719,-81.48897492673771,-45.142696556854276,-11.662203761759594,2.6461601960935144,5.519975521664823,11.384234849177112,22.47502244192813,30.71837975157748,31.981204657192844,32.84641393033401,39.290039854413166,49.16811005308341,55.37404469250736,53.34913960679901,45.33989172643595,38.068293091556704,34.44369414959745,31.29985605026191,26.703096330805458,21.764923602019604,15.808616492516226,7.638328916669207,-2.013690876077363,-11.252189700783013,-19.57738263661974,-29.748086294717577,-41.13735888042223,-48.64827364967293,54.0,121.0,79.0
37.59702675201808,38.102617464589756,41.36330743971326,50.330637256350606,61.276386274613664,66.65700848932978,63.689094383080175,56.72880819084524,51.894483545751264,48.748538696326946,42.65705600311521,34.60614783167272,29.261827273329555,25.387534078427745,18.1849718263117,7.85429265846894,-3.0019977801430286,-14.238383745903706,-25.927087811155857,-37.11060920890218,-46.890689638777275,-54.00337651448317,-59.97235383805342,-70.4046540868461,-86.64234706390037,-98.8252779631192,-89.77606005344668,-56.193565407639646,-19.51925337362249,2.3125158335565272,13.002911793898352,20.546201763753647,25.490752810507168,28.789425143909572,32.95401410226174,38.694783964026136,45.189091667390144,50.39219609460695,53.067791637855876,54.188237020555675,53.283240302822406,47.950539378891044,40.154052549448984,34.11489040230091,28.333096554827577,21.33978374847652,14.435129393402622,7.815524615504897,0.9688120232262235,-6.456812819772398,-15.730337461685329,-27.269988277279868,-39.44990040731348,-52.01886146701196,-64.05986513082715,-74.27703885028035,-84.92849464865138,-95.74373969536686,-93.92800085991522,-67.38821131299636,-27.503274090068473,1.4370652484691149,11.54723624541918,14.986774162872745,24.070733274777808,36.89020085801334,44.854575802714464,45.88352020480582,45.64260397119433,49.34402658770298,55.90575329003857,60.8768095440879,61.05470711553266,56.64717258161219,49.985362624489426,41.82133096170784,34.04160995265819,29.647037915635234,26.23084563800751,19.049014461292842,10.374193103621248,2.456195361377339,-8.265763853258765,-23.270338785707292,-37.789734132639396,-48.279131960525646,-57.933428905678234,-70.78095180651091,-86.1358187268316,-101.7752731162467,-113.39425156221857,-107.4037509592228,-76.01388428269493,-38.06000854609674,-14.406610049022209,-2.8101645571598506,9.06295782627079,26.305104957060596,42.688933503294045,50.454354437335034,49.89042351748739,48.46151195234885,51.59195658996329,57.71340769374979,64.17236321009065,68.30557763948397,68.19144373891753,64.67738294753137,59.02728119355017,51.52341523905794,43.164215231616716,34.19940052614258,23.83577207339085,13.319533157739198,4.565848400490877,-4.492255174894079,-16.370437961771707,-28.727266188576106,-39.58269395495508,-51.98222231420098,-66.06731110134204,-78.45643297034131,-90.17789293799244,-104.16524200429521,-114.28838629886438,-106.11564980949488,-75.32767421600467,-38.96815490940405,-15.024593453176204,-2.6775537583316695,7.963454625385106,19.294955344474463,28.346724464236264,35.191638295219036,40.097312936528375,43.653085638800384,50.25026156848852,60.08562041654316,66.22856167170201,66.18513031728797,62.73679815456391,58.94016904265407,55.137751944088095,49.538326399136416,41.717530714785774,34.31052363157711,27.55480760127913,19.221077084753432,10.368996714554234,2.931443769762763,-5.826737809263508,-18.242312471142448,-31.55892716318029,-41.72934521355616,-48.516868355080426,-55.64408514335078,-65.95906380864501,-79.94733458616324,-94.07436711545002,-95.50786365731976,-72.29527015191786,-34.03345368511047,-5.487171339316426,3.8975188919559116,6.521313891788444,14.311057680631897,25.545673699629393,31.659815096838123,31.87147638066845,34.081098777631304,42.066720120455926,51.651643783414585,55.67116307123209,51.38019446870872,42.88795129121067,36.71991346655822,33.66111441298106,30.081851248446487,25.289045598948423,20.22876370810401,13.678796266858681,4.928939522973145,-4.812469063039884,-13.66398178568766,-22.216274959885638,-33.12634333851731,-43.872309864540775,-49.94298616282109,-55.29274294074027,-69.08459553408227,-89.85844120706442,-100.05360731640802,-81.79538629573685,-42.286861735844,-7.5204295868001845,10.446185302294525,19.16843999723356,27.341525878125545,36.705824425815,43.67210243208176,44.63573502600688,42.87257882917174,45.5147376982754,52.22512891093184,56.23444976984618,55.80873921904669,53.321335388162254,49.64356734479916,45.0883519107849,39.35495761759596,31.984899436947675,22.907018152896562,13.902046231777154,6.608183756472297,0.28510945949210886,-7.835180179777421,-19.33108246700973,-32.30705406838074,-44.606247779342596,-55.35038514417544,-62.87080506390941,-69.83302382044293,-85.1888035477094,-107.93481190703748,-116.31043208739689,-91.37076251790789,-47.901177831980014,-16.213223591525395,-2.9736370838562776,5.278643554052138,16.46661117061023,28.530597110588467,38.72896124715768,45.728508507504586,49.40282640096282,53.21855130189741,58.704957531388594,63.02585419871909,65.71097675217784,66.08294392889869,61.19480850355458,53.306853716046604,48.60508998905054,46.252676334355,40.213112596900686,29.617573741607558,18.78696273526193,9.906278363823041,2.335461209780137,-6.369224079637744,54.0,121.0,79.0
12.478201300906845,16.83720572714436,27.780979984499098,39.97834941438815,45.70003431369931,45.630715329230064,46.222016366146164,51.14147301581223,57.68363366338125,61.497278720717816,60.14015820644838,54.89146963945817,47.75721273812552,39.373229551033916,32.38058953333529,28.839971890998285,24.582813959857987,16.480673148196804,8.092204493826735,-0.1608131780979126,-12.285233865007989,-27.7866545291227,-41.20617607611872,-50.90959313744145,-61.260485432705835,-75.0728983512265,-90.70627253812692,-105.95212194878778,-114.22127090807624,-100.59075717731386,-64.46191597918417,-29.42466718011116,-10.369822428403708,0.14045159255460926,13.5913576843749,31.566077566859466,45.98450000038791,50.90296686809383,49.185389655211445,48.873452185307904,53.192383839938046,59.64578247920037,65.73606949757735,68.71892128936958,67.44367775080529,63.25073527165927,57.02029629064213,49.149921075403384,40.67307316201602,31.35515839249382,20.688963391419772,10.613792369288326,2.1540994667263726,-7.643425662892976,-20.076574428599876,-31.942210854707866,-42.86688746648969,-56.03865074730506,-69.89963813307078,-81.72471650507923,-94.00823418589952,-108.07914767621976,-114.38669288388351,-99.1376748811036,-64.33782571546121,-30.43949297287784,-10.711994215261994,0.2503322569882892,11.309876526445418,22.205354063772628,30.500917885960767,36.83880057701647,41.12797022019682,45.04227982479533,53.028782824736474,62.4994028775747,66.78359938596336,65.36724095981207,61.6051376238348,57.89630904809939,53.79424396209731,47.41619261567805,39.43186971392844,32.39666496133738,25.35556756165266,16.57033726753255,8.110886482433875,0.7240219265200316,-9.07141256584518,-22.207349899171163,-34.92998269207597,-43.91625634800908,-50.35658482163406,-58.24843996973865,-69.64307855411066,-84.4017740278356,-96.53132433832687,-91.43621863971191,-61.71815236225647,-23.861469352795073,-1.0852326098928302,4.605014179683991,8.058002585278674,17.578319313392683,28.12407309167594,32.03600805932742,31.97031825465485,35.85214762351507,45.00207593193213,53.63473270785275,55.22618606152649,49.038048348344354,40.679305582885924,35.6657720951305,32.80519857825967,28.74941793580492,23.87563334516261,18.56167075143989,11.351402802882602,2.1309407229812614,-7.520855872984882,-16.024983680764382,-25.099279789189715,-36.512384830038,-46.14783890007882,-51.12890831843046,-58.14986970061998,-74.8895146163888,-94.91539774884984,-98.00283377936992,-71.48289215078239,-30.73851461145568,-0.7111790599388756,13.40981813190241,21.384834399403502,30.00534252782318,39.19719681453524,44.584486716972926,44.06686531934546,42.98168927103241,47.32057916476792,53.89614827584617,56.460279973252035,55.23368259650155,52.36230979757786,48.41977581212057,43.57244650749277,37.4177945121896,29.495990316539892,20.18999981484862,11.6023856516377,4.779379759415942,-1.743483160073236,-10.838677686284923,-23.058901444143377,-35.970578286929836,-47.93263674103532,-57.89863272580946,-64.58782003544725,-73.06963426183698,-91.62465867104116,-113.08170337495609,-112.60465341447613,-79.24549985641022,-36.62116756289962,-10.950183329971917,-0.689255998656952,8.200492346113204,20.023957679413336,31.739193208050896,41.12972457009851,47.04671246311589,50.29990614067254,54.73745086378133,60.166519919674535,63.93141725128112,66.18778603609137,65.27802999627153,58.9178041205588,51.471501240456796,47.94383200431194,45.0903586433142,37.4522840570445,26.341058334323392,16.012139077659924,7.663006625009947,0.06489643881090787,-9.39093406666461,-20.606724179366267,-30.065551344274215,-38.19497022181473,-48.66768655401906,-62.02656813594892,-77.30008459196469,-94.8266783264745,-111.89055087848969,-116.27305990686267,-94.95044861899963,-55.612518413312486,-22.263530631656486,-5.484980140885581,3.203117114989059,13.547765918344915,27.34942524505668,38.35093909612553,40.09314948437365,37.554408688390076,42.15480060593422,53.117559585165516,59.15301992934202,57.38299100180206,55.240461702525806,56.5620947787837,56.881856860164426,52.071822758285194,43.52664882578792,35.33430500953439,29.847348536154882,24.488900758169244,14.945387508586883,2.1975684405180687,-8.859508980591944,-16.739144210061202,-25.396575913500726,-37.5545754867584,-50.79663378483908,-60.65013458659025,-69.09861991282344,-84.65716740424946,-102.45853067868774,-100.19709341295922,-67.97576929316975,-26.729471311070142,-2.083028488335174,4.4347207821973225,9.505469975708989,22.193509235547452,34.92259455664446,40.26471964824728,39.452566022595015,37.86511004806908,41.34444131856889,49.259302574871924,54.61273205253932,53.67820158738541,47.85795464856111,40.39526534405664,34.89683077474946,30.587970233561403,23.308031837960794,54.0,121.0,79.0
-112.5703086612646,-90.37189136442211,-53.489909552909005,-23.24106159199902,-7.15008829116956,3.2704552495657233,14.650402731865347,24.866968392454517,32.50751943958146,38.30371710908374,42.09123480012037,46.83426054895581,55.966657033755965,64.42224855589379,66.83944919220113,64.36233797837063,60.49801102493097,56.83318102222859,52.240063712265254,45.139543833513656,37.25955834740163,30.489965926354444,22.972745160797704,13.95837924546978,5.982494611474107,-1.7083287322801592,-12.632087407921446,-26.133082072312884,-37.95558071861975,-45.867623244968485,-52.33846292660571,-61.15349399894805,-73.64220082791802,-88.7136000293064,-97.51105260722245,-85.11516750906598,-50.40771288060287,-15.120018886284253,1.761050843143711,5.191348358348459,10.200120813166308,20.95381631386791,30.059802094616202,32.039715245100005,32.457546423303164,38.110623243426915,47.9006449734446,54.9873851542028,54.08468058585779,46.51226512099764,38.807712799328186,34.80637861945399,31.811492259924275,27.354441293310003,22.442689228631988,16.722240730150585,8.845625069357968,-0.7067642056631996,-10.104728753883759,-18.427565657199224,-28.23277136665508,-39.74379966299974,-47.95418087804606,-52.471165588266416,-61.925088229330434,-81.07565803171693,-98.51783928424244,-93.25309379791919,-59.909986746593155,-20.253968445437792,4.664041035640197,15.899999839224087,23.699223448265283,32.74999575294395,41.356016703113745,44.94395458607467,43.440538218083944,43.62247281105233,49.336667419253,55.17044502342408,56.36306984259928,54.53698075488366,51.312503918365906,47.12663162958915,41.94632322677717,35.33023198237148,26.873641422769797,17.5435351102564,9.466678298087926,2.988848021989953,-4.005307082645444,-14.127915997330044,-26.83377081518856,-39.547825976142654,-51.10721523018895,-60.12227392273815,-66.41298880990195,-77.26228878151052,-98.45460385691162,-116.30273142381864,-105.86671268564976,-66.336004402786,-26.98818520763792,-7.056401886523668,1.5749280442977398,11.415147808466337,23.55631426201186,34.74840201466657,43.233643388172545,48.10626022387182,51.33677510171876,56.359791230209325,61.454275480448565,64.73244631144154,66.41399436493859,63.9570076308123,56.54285509660724,50.03391932329459,47.35732584073609,43.46767324184432,34.382169660938075,23.159209501569745,13.4141192729372,5.496522158495228,-2.380307491688826,-12.5938357063559,-23.63208296015409,-32.37618182213749,-40.87810901058072,-52.28853117994265,-66.2478400117034,-82.12227948611034,-100.14369466220089,-115.21355554074655,-112.9380218209743,-84.43972973628524,-44.4246163219534,-15.867953324353293,-2.690081830141526,5.774840758224516,17.32899878404752,31.214564569826436,39.86040070475768,39.25214280160096,37.83413617017189,45.13877368368496,55.77287538402812,59.2102505434559,56.44338122050217,55.36328770766223,57.02707196787241,56.06078077918237,49.81247879582607,40.953183582940184,33.47870509126682,28.51879870440657,22.24690926741271,11.3947505837994,-1.3665055834753406,-11.347567118149007,-18.95376489642325,-28.56316081555594,-41.48126373663048,-54.11408210299503,-62.85975761568095,-72.63565756362274,-90.39131990492544,-104.86322125156707,-93.54793666387143,-55.585728516199495,-17.286697660180202,1.0593786904402667,5.297101414778378,12.497166657265092,26.37013928733973,37.29652963147919,40.47378890164811,38.77935773304293,38.19161557944941,43.446137590163715,51.35903577040154,54.99141097855932,52.37351647917192,45.697503252471556,38.50525246203371,33.73233098188528,28.88155381863609,20.642507038052972,11.378465284402344,3.34784193060705,-4.160855340292468,-11.665522789222733,-20.881513361041915,-32.90410827044488,-44.21379819878433,-53.11161941829923,-62.89432070921797,-75.56368230246333,-90.7092499381939,-101.48733793351437,-90.79964374993867,-54.102639334001275,-13.257640985746736,10.772926919759097,18.667472839224075,23.23877621489831,33.28043473137696,44.92556031713805,51.08845936041859,52.594458362411316,54.077621767661654,58.25677673526289,65.059131533235,69.59186511489172,67.26505652374904,60.121097387058704,51.443088704582166,42.60802867337942,35.58966847697582,29.798027816431336,21.978880736970897,11.92278914015002,0.20633611387759493,-13.358966553952316,-26.300459044010047,-37.34269466124804,-48.435995267116056,-59.59733141112798,-71.15089769156707,-86.65132173188078,-106.64829381542367,-123.0196010745725,-120.98403618590604,-92.89452130717919,-53.21404550135381,-22.594268504915334,-6.231764258439757,1.7261858219224866,8.504166973878629,20.421179338264157,37.395001466890186,49.571630178513495,52.05131259162429,53.88799899649422,62.70193675622489,72.65797776123328,74.81752958697086,70.3000911626429,64.15461464899502,57.72349832913543,54.0,121.0,79.0
-49.37390862597873,-54.251909925776054,-66.63066300985886,-87.20062781305855,-100.11660258861606,-85.9355100086017,-47.825693610085274,-11.181357184665382,8.842108302944068,18.15586595384108,26.15729406850832,35.48284378440465,43.06236031642702,44.82013010279792,42.976222885182665,44.80594184179457,51.35216788479775,55.99922060438319,56.02572651118105,53.72954228749989,50.18586017419975,45.75277080838596,40.201799605803274,33.079085020050854,24.166529797551252,15.017021356536446,7.481153275856071,1.1622681224140414,-6.554918194896851,-17.649156889623043,-30.5923620183469,-43.03296373229682,-54.07205653170173,-62.05284636066669,-68.61417564661599,-82.4699641477825,-105.11187244245323,-116.97938879592448,-96.44785942681013,-53.53959455967856,-19.19432102055166,-4.122033742472843,4.040753085720153,14.842545139690854,26.993091688536815,37.53032136017301,45.016680754696615,49.00653396303653,52.57643782867874,57.98337855935499,62.56579054730794,65.43132362549072,66.28746186251576,62.15706800868948,54.2709217379804,48.98183570266381,46.66060746330918,41.34916025915608,31.1366283460202,20.12684949096556,10.979777476823463,3.3439527733277052,-5.053778768773699,-15.883777218273528,-26.416156567376984,-34.66125616754889,-43.8366402255675,-56.12098814522745,-70.61467094810796,-87.15767555972639,-105.29419616482414,-117.06245165606524,-107.22405703091084,-72.89794796773647,-34.35775669951675,-10.858340796487433,-0.25335642619889903,8.65996270886783,21.35921526263797,34.6214412549371,40.49434019553721,38.32827989452585,38.97002614251991,48.4402809660972,57.72820934825766,58.69555343134625,55.70728973096981,55.7633661415418,57.24737603311372,54.75751969155474,47.329453725783154,38.512427565285876,31.87426730225203,27.0773458552183,19.573585717173998,7.668034821238804,-4.655407483287288,-13.606232513807404,-21.361580475598245,-32.042325937299694,-45.391540717262615,-57.03756762575178,-65.12051248069997,-76.98733702229735,-95.95413821205747,-104.94738126359688,-84.45420650470001,-43.226386587927344,-9.711945795315176,2.9424476640162136,6.518900399300619,16.154402615358276,30.243908065867608,38.972999106908624,40.2583312419124,38.19892035088693,39.07088793269101,45.79912058779032,53.05611740231659,54.82123412949619,50.72604090590575,43.488510911542704,36.86547273214602,32.570645503961025,26.83735432919877,17.899595063598785,8.934395491432959,1.16456174309582,-6.304986374448699,-14.026475907563423,-24.154209301578693,-36.43620568298643,-46.93794487720736,-55.68765117409958,-66.2496667528281,-79.76749250933726,-94.91664236766229,-101.33224156729665,-82.28439221482549,-41.464721228144505,-4.210956047638865,14.225039822046744,19.737887976959993,25.517786451014764,36.880172911174114,47.403690738101446,51.78283920242615,52.86654258514004,54.9359284201201,60.07937143023007,66.89996624113937,69.65424351955569,65.49927519319832,57.703154162812126,48.831288091046495,40.32240670612282,33.943505526010135,27.83183883536449,19.24212087130399,8.737025632827823,-3.576586680775899,-17.30602791873083,-29.617002859188993,-40.48000735211964,-51.705971698355015,-62.774364879953495,-75.06491977380848,-92.15207383736929,-112.33137280444016,-124.99076719173385,-115.32955327464252,-81.55018818983332,-42.86279269464969,-16.56914602505432,-3.3995803900436394,3.4978115127891325,11.217008374259287,25.11708735233439,41.894955464451854,51.08591085145012,52.09832796410939,55.72947772860612,65.96630397660559,74.2475520870715,73.92608140631094,68.57966409662674,62.284949152971926,56.06278528514589,52.03752923933945,47.71277287285316,37.20138095955717,23.845097663239173,13.826021645450703,4.675829732642075,-6.9961258878440455,-18.705642138715277,-28.42508485283841,-38.34656770149701,-49.92844174952604,-62.66698104250915,-76.59561277504412,-94.58254498804104,-111.43087856395809,-109.51007588167289,-80.66607826009887,-41.06264712316846,-13.263188386762156,-1.782422133571593,6.421782892981512,21.019247972164536,35.81140272168657,41.47057056150376,40.08689315510431,40.52836947202656,47.4359457470682,59.34953768001509,68.39510362171113,67.47800056341345,59.52628972723595,52.516620733532285,47.139523467691305,38.77984718387707,30.030892911661713,26.06678945741285,22.432405214936274,11.647665384983931,-3.364053518089958,-15.43593374667503,-25.02188552644844,-35.892091663869174,-45.63017550773948,-51.305216906836144,-58.05657118421267,-72.03233141227324,-90.89228773400593,-105.03289531554081,-99.2042157355902,-66.08428094500249,-23.87775348336763,1.9761427584907183,9.30163428001238,15.088531898492816,28.26484422260437,39.94618194497641,41.504373132106856,38.86320890840264,41.93884186648968,48.43276088702167,50.75819120856936,48.69610428550777,54.0,121.0,79.0
-7.970953193947923,-19.144803567168424,-28.95954038459002,-37.038907787932075,-47.08059045271351,-60.12803259912607,-75.14702012817132,-92.3783318389475,-109.98471465486489,-117.02188938806114,-99.27532510362865,-61.015453019040656,-25.72401243058355,-6.97877138826076,2.0922455060596494,11.918145703701336,25.477433343707236,37.35931772641404,40.35835237048427,37.67501676931068,40.972811688176584,51.71216962194655,58.88632553720457,57.83132290089925,55.30199161454111,56.30699256289945,57.09892072064153,53.00873068750025,44.73254360129245,36.27951466393783,30.461451268093462,25.385230970100814,16.488676836117456,3.9049439139089985,-7.6109059631648375,-15.751862045789917,-24.048980911240548,-35.77383746938011,-49.150603268548515,-59.57979639294845,-67.7146316304675,-82.10255741428043,-100.71735189941698,-102.34376142665994,-73.47432159922798,-31.639796736869393,-4.068727827983728,4.047336727528574,8.386041183435346,20.24445243035798,33.593985034857006,39.994238668377655,39.74749997378973,37.88047991188792,40.51010158923367,48.19668915600695,54.248460836600785,54.144430371795124,48.80994077644393,41.33819603140974,35.47205993605257,31.269503004657366,24.4801323949398,15.17846387887782,6.60682279460673,-1.0059352723024577,-8.448231163457228,-16.607278375931593,-27.643212675398217,-39.7828729484978,-49.48554619991213,-58.44407128334369,-69.85403890903515,-84.17011440210196,-98.47369369166152,-98.88921740817827,-71.77228146918502,-29.219729566401554,3.105866851881326,16.555497986537215,20.88711509163319,28.360729411408553,40.393160538495906,49.29963443181422,52.20195326076163,53.23554357884677,56.07075164490119,62.081108319551845,68.37933431675835,69.08547342562436,63.44638312943747,55.203681430244444,46.23794232047373,38.24851103306093,32.32735460733493,25.625118434725184,16.3563760479235,5.401700146006998,-7.50663294697703,-21.10625309682088,-32.79569536608639,-43.676597743168806,-54.9439394453629,-66.03040903938613,-79.41885061667963,-97.9723048806528,-117.42884925704425,-125.0119473501992,-107.48518528217053,-69.8227722811867,-33.67969068071577,-11.680484144170933,-1.0850376019114747,5.339042233231206,14.508044666894186,30.121693417594873,45.67939138191466,51.820811108817225,52.4236913126661,58.22515713769608,69.04801139147543,75.03030576182648,72.62223740842259,66.81140728692988,60.39709472904947,54.622552775477665,51.13353351311952,45.39541660848663,33.24822090619748,20.558520741077096,11.338167548793743,1.550832330716662,-10.561921029862436,-21.661811623697634,-31.16265996097037,-41.512889636744724,-53.545049179359076,-66.46247130173452,-81.30884226014996,-100.22209643078749,-113.59022405353336,-103.65064331509622,-69.18452503956797,-31.161449354743713,-8.656142645253302,0.22842812596732748,9.984713382610062,25.808249393888556,38.54940837023709,41.40654623288599,39.697534251819135,41.810884823922784,50.59800172658318,62.704585131455914,69.23146289490393,65.53523405577064,57.15753086848492,51.026675639214375,45.10705004693318,35.97103050479452,28.37166437332685,25.41488479612644,20.15211844550288,7.371590053071644,-7.321961002548189,-18.232937722913,-28.009995563022233,-39.04879553763902,-47.62648981397953,-52.76072605045203,-61.28597248459716,-77.28162243875856,-96.06181272499822,-106.09004052454918,-92.13948036957112,-53.49459059892503,-14.063459279237659,5.388894383374178,10.366427837368846,18.27836021681917,32.386272105043936,41.45844971183907,40.61490003052516,38.99335488011922,43.85592631204639,49.71777055763373,50.42371547630944,47.9654580909784,47.00675489305964,47.84971114947985,43.722703900264285,31.41942592699377,19.091154970159916,13.65654734072799,11.9139376540324,7.794990751193998,0.39829545195084826,-10.466025459862445,-25.71662577193295,-41.52426181952963,-55.11156175528954,-65.45463150175861,-74.28346630405173,-86.61857670927608,-96.52653896419831,-86.8558034978447,-54.87016193929918,-20.731132220187664,-1.506172900601626,7.625061449840387,18.65519482140805,33.90600264837517,46.57911413532452,50.199053496578,47.53783579552638,47.104702045117946,53.65790480666835,63.22790699345562,67.85093495245113,65.28992509191137,58.47156477555891,50.39223635674073,42.095035560376786,32.63773771661934,22.249752459783917,14.951548130212295,12.223190848563403,8.997012001714381,-0.042243105947394166,-13.082021643101806,-24.808779402445456,-36.970935320137734,-54.137978732859295,-73.13742432922463,-87.18512935971539,-98.11482924599737,-111.98185984736617,-119.94497411521817,-104.13497396547116,-66.3727928158751,-29.668483426534014,-8.549916549770192,1.530683565414618,10.474323304095895,22.755922294330123,36.91601990902572,47.927809979302396,52.474179326371484,53.1952403012916,54.93040196095771,54.0,121.0,79.0
21.887729528053956,12.549107188805744,4.363808812572707,-3.1680197045460146,-10.629466512450238,-19.46494245690322,-31.242572264211386,-42.87715203463627,-51.9618196879475,-61.432363698169844,-73.70523443344614,-88.6622703507783,-100.896445921222,-93.93428165910022,-59.86476188188308,-17.975956534282574,8.717717988639057,18.11114710238991,22.381542835508498,31.658413961171103,43.59935928833253,50.637073618974156,52.480678292542336,53.76455882682983,57.50069390037422,64.13671259897217,69.34741253082196,67.95042627208744,61.2017236799396,52.640478266811236,43.7229003911088,36.38730971450043,30.632527686908663,23.179297083122343,13.348632637891573,1.8893967668375404,-11.512314580204016,-24.709128441894745,-35.909245400432596,-46.927260592901874,-58.13623386995938,-69.47074268833995,-84.25839738674784,-103.92546378993778,-121.55676160827046,-122.79926224098935,-97.82098378699125,-58.3087240082118,-25.791394027694928,-7.762115848176185,0.8863460916892683,7.419258378532907,18.419370848011404,35.15390313453855,48.56451742396222,52.03731156187188,53.274722915777474,61.219285807951195,71.66776219208349,75.0418931161944,71.06666489449712,65.00304815990816,58.544727499667346,53.43118784435585,50.04728403854697,42.44612014187714,29.272585700459818,17.633878215553754,8.776941488711213,-1.8144284471027046,-14.013373171181827,-24.46048263627392,-33.987970519905645,-44.83196291730903,-57.22404601580227,-70.39150902209391,-86.45589314842688,-105.47743112254186,-113.67619146990333,-95.56895581125895,-57.42579347517113,-22.71825811998379,-5.279901515014337,2.3887358495140183,14.17070469203503,30.315504340340667,40.36318120666349,40.94532185916665,39.67334233693087,43.68391248257866,54.088208412717705,65.56100264567702,69.13491350732326,63.18790676597073,55.056966895347436,49.56571592117816,42.72880400386252,33.30330000724674,27.18833932319213,24.55721660543395,17.149657230785813,2.939364640487065,-10.889582088760765,-20.941775310051217,-31.159133125645216,-41.980530996485896,-49.26298212103085,-54.52624340030523,-65.20434831186839,-82.80061345366789,-100.54460224421437,-105.05184025764336,-82.80545981400685,-40.86879587934965,-6.124960692209675,7.50534723019816,11.795073182480508,22.101858320621982,36.03064629605024,42.0269822986691,39.677486401271096,39.776268153949246,45.85275855100166,50.50365210006653,49.811141442689575,47.38745142649408,47.25672190381843,47.529349832997866,40.80863999778694,27.385804293809535,16.775644862137625,13.095740094108194,11.114981154069755,5.938221079193199,-2.2839278939033836,-14.51817322829707,-30.424644210178155,-45.72191841491744,-58.467334509071776,-67.91839627972497,-77.40734417608974,-90.44507382386257,-96.37402844785727,-79.31321562348519,-44.12395522849678,-13.463144112019485,1.5579008886262997,10.281579993603316,22.81598245003242,38.229182791181316,48.63696536272856,49.715954084927496,46.83821886628285,48.279892905928705,56.48984064294007,65.32497567334761,67.7617310860064,63.60066330810345,56.17358230236963,48.03457773647126,39.5370299102339,29.61173255331328,19.623031629208707,13.825023097754793,11.649342914280188,7.071808994971034,-3.675019757720537,-16.708320767482416,-28.004667094246237,-41.37924277659682,-59.780217884107294,-77.86301659164069,-90.30016731888655,-101.81895938970848,-115.74582374723708,-118.3205173851874,-94.6399440501863,-54.615121994102985,-21.888723140076735,-4.979376006808313,3.8980956244389633,13.653650518306211,26.83312142549071,40.66750985106519,49.891537440603216,52.85403964742164,53.417624918334084,55.98112350106456,60.43613797033663,63.88520589477053,64.7473940524445,60.969541004905466,53.95871821585531,49.386947267957076,46.932293648598744,41.49229277367832,32.720962801198446,23.814569757527103,15.004801387869254,4.359388006095401,-7.320746973416293,-18.74764991855832,-30.0632876246878,-39.65772592021232,-47.93712251146387,-58.077692662213266,-69.0188473462952,-80.15030153712975,-96.03929884494718,-111.25828894051945,-103.19076534387399,-64.43327813421658,-22.871038881902223,-3.721315289134361,1.6144769963109207,11.015877978007717,25.40824990967784,36.748254375053214,41.76466433170433,43.32160533674763,46.58949098430273,52.18759992107668,56.72948033297031,58.38862669068309,58.04266644368615,57.800568998009645,57.77128377020945,55.258168657436926,47.683054017365684,36.43011546327055,25.662904024296278,18.526174555386337,12.901837839925346,3.4010971373307353,-8.830551064177937,-19.09004367938313,-28.93989444094066,-41.50621634910945,-55.1817739307915,-66.13794768660098,-76.17636788011562,-90.86113384203529,-104.42415391534301,-97.98695655554687,-64.82931377147936,-26.07440433808898,-4.423674637033109,1.1172988792096552,4.833506431483047,14.291011383304214,54.0,121.0,79.0
56.80468472502145,52.449235649988445,48.57220187859192,38.94996980220545,25.485584358735895,14.98830340725659,6.027136737518883,-5.343801627944034,-17.27465163653745,-27.17752566243837,-36.93812739454937,-48.29226049432491,-60.94060038460445,-74.56068490477675,-91.96887186716316,-109.85440724224907,-111.39480192533235,-85.68071724848416,-46.0337667309615,-15.879509728631911,-2.7664512207192162,5.006355889737504,18.804359469852958,34.25226633103859,41.29814552729855,40.34407490025878,40.132619905707024,46.12982925005646,57.70579834090116,67.69757197136887,68.17404686673666,60.676637930535584,53.2581549687547,47.96470653847655,40.0663842021056,30.962087472061555,26.37165663053436,23.24489044258682,13.502844292217633,-1.4263990748835078,-14.074783238296247,-23.702902356813077,-34.398890163946774,-44.57117806727766,-50.67553567062227,-56.79862362061442,-69.75314373346083,-88.37431059951956,-103.94617248363367,-101.62758496809373,-71.65910247679953,-28.95376515926,-0.14887574925154917,8.820722595012723,13.872846126538223,26.297687386472912,38.92038998060346,41.80438675734364,39.00952853077881,41.14987713122193,47.69269829440943,50.784204931069965,49.05562487818816,47.03983307725005,47.59589644727263,46.560527820207376,37.25654828219014,23.635967470268124,15.113016111559515,12.668835781283422,10.001132075646579,3.84827217990491,-5.306949885374612,-18.919369993606132,-35.049227190070944,-49.710488464227524,-61.515532421301884,-70.36519559186571,-80.94561134172321,-93.7353203317172,-94.13467295103085,-70.11430664885951,-33.852681478059374,-7.66588106573213,4.106906732986676,13.34117365056472,27.266512303328636,42.109190987018216,49.837697143749004,48.88603120085166,46.53905751108075,50.08753140196582,59.3800328327447,66.82970336976561,67.10141514358327,61.64600103438748,53.83211636502723,45.6593107037299,36.84287401798039,26.548195002072948,17.389362577475808,13.041224431438543,10.861224948489522,4.566597535494477,-7.501904433946394,-20.116963924238984,-31.383154332597798,-46.27678168528475,-65.40139659048397,-82.02672794274905,-93.33905569030826,-105.87140886450085,-118.58370610376977,-114.30027408422339,-83.67326096607042,-43.60067097441979,-15.545350309189061,-2.076626732299642,6.38796169755955,17.150480884485024,30.987019515664368,44.00630131750848,51.28980001902126,53.03075193272833,53.842932664491954,57.21144114859001,61.623920550505495,64.47362714486025,64.20767820918282,59.024623566318326,52.219887320914594,48.69320293854746,45.81584122453635,39.15983871507233,30.061386504949255,21.357201130811283,12.148279277840304,0.99519405693983,-10.642052087064611,-22.057949114226357,-33.095584940851154,-42.03269460697969,-50.61208967752432,-61.30019604350231,-72.05343241959719,-84.10864196276943,-101.31736361676808,-112.32475989996303,-94.44625675988298,-51.06191341087384,-14.81141380515223,-1.7369376862521047,3.5113972400369904,15.015526233027485,29.28141312804468,38.81663039789534,42.32919452085234,43.929118876536435,48.103138894858525,53.74331617272745,57.51287049247015,58.39888500671353,57.89563701774611,57.84882409606334,57.456722358326715,53.61924047061883,44.64311721831319,33.07864316906408,23.187323118098043,17.00741963815154,10.685654923424593,-0.11032862233772081,-12.06751398710862,-21.776557018260206,-32.26774988837108,-45.52620331394013,-58.71900766860395,-68.84133662909899,-79.85870363068871,-95.61146823190137,-105.43481698252616,-90.65930360849228,-52.887133885365635,-17.623505530695155,-1.7535905636566036,1.7960364795771286,6.996990764758932,17.602327152635716,27.074391416409046,30.847368481908877,32.08523799345365,35.6837214463624,41.30516908145255,45.89658818891627,47.92557422719706,49.01258521928012,48.03110875903672,42.88124137132285,36.98759084844663,33.4831357236558,30.218563420480052,24.696306414846568,16.553491026122938,7.075424401542842,-0.6897988490876202,-6.257483660137306,-11.801637684925879,-20.364613784709668,-33.99387414035616,-48.82678532367559,-59.14394557604762,-66.85506838707232,-81.344456751281,-101.44784293670429,-106.20605206315714,-80.80550690995413,-38.92612514318827,-5.537507700416527,10.661100351848892,17.269871655855376,25.021894759818892,37.04470453401357,47.61555711139747,52.070890993963104,53.38455186269852,57.716211696297385,65.05267773853711,68.57444793865825,66.17288034937047,62.71425087906733,58.37727023864127,49.80654791659417,39.63389758965014,33.18677364906035,29.59441488698519,22.46411863190993,10.710405472589926,0.805690885982729,-6.245182430958584,-14.676389747658828,-25.593811272842604,-38.45281533505506,-51.000575147254274,-59.26453416044887,-62.297783487594536,-64.21484649223824,-71.39047324654015,-85.81672443477525,-100.36927473357223,-99.82395736127793,54.0,121.0,79.0
48.289267178136704,46.958218898843505,47.835655251277245,44.80717019313741,33.30119029671986,20.383450289512076,14.013955981830565,12.192654762687186,8.561228596189535,1.5408569172705964,-8.737854650243337,-23.546431612741053,-39.522797670192766,-53.46701205838243,-64.26821505134647,-72.97703675180094,-84.79917006128707,-95.98232424962274,-89.65958379854374,-59.81344969129568,-24.57287766965718,-3.195181344927599,6.494481330787838,16.87158112026396,31.82631001415541,45.34604241930489,50.24313028646326,47.94517608741674,46.78294091542023,52.43574343620611,62.094690891544396,67.68062591251837,65.9559191310319,59.50344664398276,51.47801948165057,43.23752618714257,33.997449693232014,23.562402668269236,15.613697410026216,12.46424288459552,9.697088878531307,1.5184309268833232,-11.345968972516234,-23.34863067343904,-35.10532611574217,-51.58779003687446,-70.78706349519419,-85.65734180332012,-96.53624926775662,-110.08094819578864,-119.94992213860827,-107.86278891027567,-71.88984852272353,-33.7477200148582,-10.499479651332829,0.4350819909951663,9.116537996482986,20.93248339246924,35.08563789154387,46.82333990737826,52.194747622966425,53.13574090359905,54.52592384781448,58.531703501920774,62.66787143999798,64.81716890763438,63.21205467055005,56.92524251481579,50.82309203639683,48.066300448763606,44.33242708392255,36.61394664281982,27.468440110143383,18.86221460113938,9.099691953594382,-2.3984186852529517,-13.93599104120849,-25.361937237568267,-35.91695689395883,-44.36762194042749,-53.513636982083824,-64.49551249373948,-75.1574063076834,-88.61355126654405,-106.19839536703412,-110.77451891646174,-83.32298222973458,-38.43321534266608,-8.942307385431167,-0.3704347610271083,6.075058548275488,19.2613501939236,32.70900218739548,40.34751608983685,42.72635243846736,44.80117450866491,49.75116308115137,55.12419763536458,58.03884558310208,58.28849462759923,57.807729082181034,57.88563053097277,56.8463488730705,51.51623267906542,41.378054966524616,29.877772303448427,21.06959140710085,15.486481376673133,8.025286914144079,-3.717779864183159,-15.055845658074857,-24.54422918929088,-35.862247513062734,-49.54968736955985,-61.93683285105094,-71.61193131739549,-84.04924377211368,-99.94649281734326,-104.2362333171903,-81.21477341563657,-41.232833740793694,-10.98089389899763,-0.14974286112265983,2.6926957935480873,9.692340996728712,20.79587644831271,28.74461214925379,31.188140250100027,32.79200188317346,37.22562341259275,42.86969922286247,46.70690113569626,48.27912697600421,49.10784401671406,46.920067860835005,41.02215003865038,35.7449040809173,32.671662300454614,28.89877225521307,22.59942670643008,13.824827143641368,4.553587117384593,-2.45223052012904,-7.740976944019655,-13.81514931101679,-23.818064096259885,-38.468090821638725,-52.38960481905853,-61.27952748428387,-69.98487320084087,-87.23753302121315,-105.48600962369312,-101.91407334645159,-69.19476991028807,-27.60374532792991,0.7697938871107667,13.031451126230662,19.042099882149348,28.207680069696632,40.56664074102716,49.55334274942557,52.47188127784004,54.147491773755895,59.77198237442318,66.75352164223884,68.31007035839727,65.11163834942911,61.73491408394637,56.36832661729936,46.75430737519883,37.264584317009394,32.101451486771595,28.153238901805842,19.302807279925215,7.417840666378645,-1.334436243021847,-8.414842963275962,-17.594529346511354,-29.15398501994536,-42.28368425750917,-53.9718473723805,-60.57822339028166,-62.68866649974139,-65.50709689324543,-74.94740815419593,-90.56816462245905,-102.50279916052654,-94.90699871019409,-63.00227719403375,-23.952616164385205,2.226879292818825,12.21803113593439,16.130658659118513,22.832565637155554,32.38160518366173,40.25392275357636,43.62675293236242,44.37269840553096,45.56727718492812,49.087259310457725,53.27268762923627,55.487793765715296,54.15780662961631,49.28791439581109,41.558537191175574,31.837679037222422,23.19636963449228,17.496374314382752,12.045546794760034,4.46892194474117,-4.243784470932944,-11.748521758294409,-17.347320533278157,-24.8452047842652,-36.33736060321016,-48.622901453129025,-59.92377315103046,-72.49555801743244,-87.47443411502353,-96.8742372440628,-85.4651804843878,-50.69319887721982,-11.291025347261327,12.916574759066277,20.287663773616323,22.970961922604847,29.932923789736815,39.77567432782736,46.215193138568836,47.18412734599884,45.744975183933214,46.260513739065004,49.962028829688464,52.64498915573612,51.489233637096895,48.95383134971761,46.43589097298803,42.59165031105281,37.80102975177843,31.895259418373186,22.476159573047447,10.092041122108864,-1.5007512368062033,-10.309756250888016,-18.701985549333568,-28.151391753333098,-36.64926451088387,-44.735092919497795,-55.062610128120646,-67.44748146660332,54.0,121.0,79.0
55.46961688921708,59.85038674636329,63.5437311432242,64.85393282994544,61.767984828510656,54.855244470698935,49.77243182056058,47.34117092054172,42.469415527085246,33.956948134368254,24.95372868090816,16.258485745135022,5.884399867370886,-5.77604544491345,-17.226352521069256,-28.606766365821127,-38.520594811451616,-46.774938911925844,-56.6078363003042,-67.61002706288227,-78.48967140059855,-93.61818481245221,-110.03531988466419,-106.27588644215889,-70.58860377497027,-27.326893460104507,-5.007846047852065,0.9215644439409295,9.319700581602811,23.510307144409694,35.60406120463968,41.40755706870017,43.10956337319178,45.963208335306014,51.43021506915259,56.28055348892518,58.32666037028149,58.12175044785702,57.78911022061697,57.84156454127483,55.858519119399034,48.98045098772714,37.997157750659596,26.92184605911735,19.27189207222771,13.788274297642214,4.941119263215528,-7.25770829883859,-17.84472477262632,-27.496705603464243,-39.685338095065156,-53.45407137189461,-64.86178912744312,-74.64386292244593,-88.65656004059733,-103.33581366536839,-100.54758064763269,-70.22275598233709,-30.536600205133084,-6.118006905642188,0.7937920355703623,4.031101408343678,12.784593412104972,23.682280379415413,29.900201930931125,31.46961287206976,33.778577440162145,38.87410320921989,44.266935957942735,47.30278638975748,48.61408451796476,48.936580047616424,45.45276814195508,39.241212996655555,34.72426615673113,31.786280111124196,27.35663166271965,20.28495451164211,11.041653207634564,2.2530340398771953,-4.062167897838103,-9.285532013020802,-16.16549659790424,-27.71495376905948,-42.87313740921526,-55.46507976978178,-63.35197747835593,-73.95490050503557,-93.3482800448768,-107.58198932338254,-94.9679655274228,-56.841931816822935,-17.538099867179074,5.649459583736177,14.885311484379153,21.148641926606924,31.71132562596535,43.77537743357719,50.924098404968554,52.76746844064377,55.29970565755467,61.98009901442534,67.93524905700902,67.6145719286836,64.09810449493256,60.5932384020853,53.94460244898566,43.71481097994165,35.31430235975828,31.146969968204445,26.234275270957646,15.847545766174807,4.461983717906421,-3.32308436813907,-10.79473507997367,-20.708644669224125,-32.864173632635826,-46.00288994863512,-56.485335022511784,-61.48612537620446,-63.126850615398986,-67.40100917666517,-79.08040966129526,-95.06875282967364,-102.93302464675256,-87.78188089713227,-51.371101001466485,-14.550613206900962,6.467877745874829,13.432834240721562,17.62159162667857,25.468707889559084,35.0383867718503,41.680559898148466,43.967789607087774,44.5457492321787,46.34745906688261,50.36567181954038,54.202737920417356,55.50417633238569,53.0763848168599,47.33248124457059,38.86400305286717,29.06524981939067,21.29669800033538,16.065757384096155,10.0811337867494,1.9747630404507666,-6.641961865248741,-13.46543288986469,-19.10677126603091,-27.840236442993312,-39.969830789094964,-51.94504529970117,-63.28327182678955,-76.6995628962599,-91.4167805807963,-96.2725373513115,-77.2964342538197,-38.69184178618665,-2.2569099724743267,16.35300436137739,20.961674832940417,24.421682709545625,32.75277492411811,42.20982677505591,46.981609750533565,46.82123935823105,45.52612362111671,47.11708983621053,51.071590393977836,52.6660934688756,50.752022081822275,48.27705564584127,45.492478590843625,41.25161443536418,36.307018776637925,29.608913468353144,19.05513052774649,6.499987059381968,-4.301901207487626,-12.618663824432877,-21.395204546586847,-30.767041683840873,-38.90186308781453,-47.41568149609687,-58.5398619405965,-71.0051373420959,-82.46504668165491,-95.2033804858946,-111.93298049574003,-119.8521643815721,-98.81068740076016,-53.123374388378274,-11.34306836751401,8.905813082148283,15.75962477892241,24.050094671461682,36.08147934392251,46.26422505588744,53.608893336766236,59.33487151347984,62.65429519490795,67.22615092494142,75.10382705879822,81.20284416157996,80.28146003824912,69.48112084484801,53.05010850812406,40.139306573977315,34.31577612514115,31.546734768829207,26.862276160301622,20.063853865474794,14.16709345761009,10.806454143748166,7.079435352506343,-2.708198786582356,-17.279138558449155,-29.223468257699874,-35.59016023842437,-43.561366964670555,-64.10606754504026,-99.32389555422664,-132.93768322347603,-138.91913423126567,-110.48695841185578,-70.21556107059358,-40.28555897150064,-22.047953946723297,-7.465997120285937,5.170571534688374,14.77856760816457,23.149879790642267,29.86041464046472,34.91454695112297,42.76068148568891,54.12393488934037,62.59668354534171,62.34777957581705,54.73585048885732,47.14652661933412,42.37593511771079,36.629019999991144,29.355255205979972,22.919192919095373,15.697752013426236,6.873754421538503,-0.40764864999420647,-6.894259694704505,54.0,121.0,79.0
16.07746084373888,26.122892097717997,30.623863904742613,31.846040719592597,35.03034153917637,40.54769599451164,45.4399070099526,47.74941160664811,48.90886489034232,48.40881526913374,43.72741775289663,37.64423650759862,33.856773873453996,30.756114866786515,25.58784717056761,17.770380931865763,8.299553685998402,0.1875818527704581,-5.575518931426928,-10.962532269769946,-18.932708938597937,-31.959622902433996,-47.03256048415189,-58.07338112588012,-65.64281942545573,-78.82462757701133,-99.09914758255152,-107.25660962583396,-85.70805016769471,-44.46301288472853,-8.963431523962784,9.310933811817602,16.517166976792026,23.69361169068912,35.36400246794495,46.527857566544824,51.79947873871591,53.140737946052965,56.86607733518116,64.13609590432122,68.51281864300213,66.65672018311535,63.14594297931484,59.16253666838585,51.17084757450874,40.85365689009196,33.7755027673448,30.13498716772315,23.7744973526583,12.30981057517942,1.8804565108856954,-5.30161918687889,-13.400775002969624,-24.010294200353517,-36.67820860528918,-49.496682644677236,-58.50211380538508,-62.08867379525667,-63.786986180948325,-69.97208293143181,-83.63413019055432,-98.9267192734429,-101.31914542897113,-78.72674356747176,-39.752277207130184,-6.602956990425478,9.469213486565497,14.459756737777495,19.479995810705148,28.264644515212144,37.42660079892484,42.710019365020436,44.170830753444385,44.828391949681,47.345030658905166,51.62083624484049,54.9174069944311,55.19367274062796,51.72025515043349,45.147518411211486,36.03531137847773,26.48591769521921,19.64261259515888,14.55205758881996,7.918353404822032,-0.5671932338151702,-8.871790770841619,-15.047039720465788,-21.161176432231496,-31.15036935134906,-43.56142430436985,-55.18814055835009,-66.83613691705601,-81.09109851155681,-94.57491473492304,-93.53856278199083,-67.35285373265198,-26.923035414905424,5.139078793131814,18.55905013784011,21.599279068582305,26.348705351479364,35.68240526879834,44.2040970930828,47.31170293288635,46.35955218556563,45.58198881584774,48.20715015279461,51.95338156901862,52.35739662027886,49.99731233916172,47.58560156531616,44.404132478381754,39.871519813706705,34.67939422364122,26.964597483393383,15.45436559839335,3.0746327064070456,-6.859287163562456,-14.995593964002257,-24.15561110349018,-33.24632123289418,-41.1819028514597,-50.34352417119935,-62.139608357043066,-74.44239368942878,-85.76868974066392,-99.79902030773458,-116.15186692043895,-117.23598386331706,-87.07560705676886,-39.37044256159056,-3.228927062488248,11.491603259019803,17.613375708863995,27.378035283820118,39.394622286475425,48.57504896320536,55.47178150944799,60.49559959984343,63.596822610065985,69.31153621913288,77.31322525526595,81.85377220137664,78.16411377850658,64.90989763135933,48.623560272140594,37.806836544248036,33.47154384490117,30.508721929173138,24.995537204318836,18.141425874507878,12.950894303898586,10.042755687841186,5.015801530098998,-6.724649567808089,-21.30462663411045,-31.499771400264205,-37.21674314508348,-47.82718538300868,-73.12049938780562,-110.3681023841076,-138.43784525910644,-133.63878958308146,-98.76347961421467,-60.05453182128809,-34.18313394762854,-17.70315945467469,-3.5140881562337247,8.200874839967309,17.26837256741256,25.345307294876033,31.34617007051025,36.69748102121721,45.883363498553805,57.20732884298964,63.53701940283176,60.615647044160156,52.23956528993749,45.597921417074005,40.970860508841604,34.55269225964935,27.39258949317992,21.056170440394304,13.186322090255752,4.525338250476035,-2.2031745104439295,-9.093240965551077,-18.070246149516798,-27.946630445211913,-37.700524712568864,-48.573962282388855,-63.81420735227575,-80.73837642419022,-83.08943036340243,-56.971201312470555,-15.88277395444798,14.632612688376398,27.816909751905467,31.73965004055299,33.897933310005605,37.532815320834295,40.31192630652205,39.75767008169035,39.162808480114066,42.86786806383873,48.56135281263688,49.266082448051634,44.50910769360667,39.29885496181624,34.226133674420794,26.750205953878243,17.82071262697534,10.008129774088966,2.1827393983536156,-8.564687099070508,-20.29221661837686,-28.300141121736964,-34.26496193765796,-42.97178241948461,-53.668440169856204,-64.77088402491233,-76.003668430941,-88.45247558368987,-102.30728014874322,-106.1850391210678,-84.39464687703729,-44.53142848391011,-12.321691521477888,2.2166294724959266,11.242378118449832,23.469754691355078,35.63648515614213,43.8183197261477,47.15845380325512,48.352275844353734,52.0220667825032,59.000562655701,65.79025092327444,67.57252791195583,63.99656584521022,60.243033727411195,57.973762898302446,51.749688351184204,41.57921315978382,33.45368564131,27.747256613660902,18.715713955253094,4.87439474593505,-9.387716032571483,54.0,121.0,79.0
-97.45755931260659,-68.19695548199229,-28.714094691177547,-0.20673201676215794,11.511753787484222,15.55206599900647,21.7009850844671,31.098258297733782,39.4552983601599,43.400660850426874,44.31034622348775,45.28493867020694,48.51209471390196,52.78356954323186,55.37449676305413,54.55703839115406,50.1108858895904,42.73948428739577,33.15515688121916,24.16777983903074,18.15449634878324,12.881344853001828,5.587909375419641,-3.0982645986096404,-10.891312666651487,-16.60231255378479,-23.590883494990926,-34.6731009512705,-47.05342631568953,-58.417185502915956,-70.6452266033699,-85.50283924104144,-96.51266307212042,-88.5312473117198,-56.13311625459154,-15.950932937016145,10.838210701371871,19.877510624049286,22.45392259460293,28.71753170729672,38.535689719386056,45.69814730746742,47.2877516982458,45.91341571610277,45.968336096668445,49.40923849768255,52.511296740836514,51.80113270302371,49.2736355074249,46.82432000571236,43.186823863414695,38.46372529818099,32.838053837146305,23.96620933927988,11.780662628800115,-0.11815409027391964,-9.242692102186629,-17.499960577327908,-26.90665278090479,-35.59730248829718,-43.573733383246235,-53.52107717200291,-65.77891466550291,-77.75166872865563,-89.31151761424279,-104.73809212699865,-119.10001983747148,-111.77155593924755,-73.75526737213825,-26.74406212911488,2.9257262275497053,13.37659592913362,19.883928351958367,30.915205424378556,42.414591744125815,50.70501040636203,57.193421338976805,61.4393745041399,64.8062347170122,71.62844385875125,79.21868670674819,81.80514241822205,75.18318477626883,60.06857847739747,44.7151269580835,36.05871171153697,32.73215064027283,29.215663064549236,23.006878558507754,16.37314182842627,11.96375347171656,9.112495762277252,2.317701860485944,-11.001372040304004,-24.91249217537698,-33.329486414733566,-39.24642308352387,-53.40307825654587,-83.27017075025185,-120.683303831617,-140.98966143691774,-125.66122263554085,-86.81240024249178,-51.12075611264119,-28.880259697671615,-13.479909068590773,0.22048971016591812,10.989440809031814,19.70932778811651,27.344670076252335,32.7436922815159,38.85464388307033,49.22509522233821,59.85286353536903,63.64397639533436,58.398676642087146,49.94777267736699,44.25201626898937,39.36636629436272,32.4120463096842,25.54050270489338,19.03344918193096,10.587817342618226,2.3873483335432057,-4.01886743814647,-11.494447756377882,-20.89900152138249,-30.784706456364262,-40.58817014952241,-52.426663783468165,-69.00420770705915,-83.85179811050533,-78.47250658149036,-45.37876382352305,-5.217699792156852,19.972390187366692,29.49210817636017,32.31417219708113,34.79292202378295,38.62320088902035,40.450642139761634,39.34438265986585,39.72083794101772,44.625571387306124,49.49149956044331,48.23717479575335,42.892628371150074,37.94364786972573,32.36368677097651,24.17732158541826,15.407664351632977,7.903638980589529,-0.578214960104002,-12.091251091194144,-23.08586736041036,-29.965929184637147,-36.4263591389127,-45.97231434016222,-56.854291276357884,-67.99879560985813,-79.37421552124657,-92.51255157970029,-105.30995535618517,-102.79717563940373,-73.65464333002343,-33.4504628894856,-6.605239323439777,4.72697461923009,14.450189192674754,27.23592017571096,38.49095634335787,45.2512388652238,47.495271229510536,49.027643685650816,53.78004173905754,61.219905193868726,66.95996502514069,66.93087736553815,62.67551645333707,59.626129685759764,56.784014316774346,48.962239019624846,38.82302360143709,31.77346889070708,25.708289529163892,15.059631304297056,0.6040833401703749,-13.154099582386735,-25.759622907802548,-40.83515596701447,-57.756133532258175,-69.18175406097697,-76.49333578203493,-90.71662566997327,-109.29967813811153,-109.07835356593112,-77.65801020828417,-35.59695293556407,-9.608065301866484,-1.9517330314391523,3.847499966278895,17.56866987922502,32.14649671690528,39.55894812942637,41.45418786734686,42.410720373899224,46.33612067397275,54.68336507137293,63.15427229302584,66.2495142638218,61.67926421653864,52.539471243475624,43.14602180284424,34.310161679827424,25.22990599730291,17.302836204392698,10.653076988681722,2.2183264442646036,-8.357519882937758,-18.953388235517455,-28.756929583013488,-39.112158222124755,-51.46398937068366,-64.89084506938387,-79.62888344939225,-96.38025376430966,-105.5704004235401,-91.2505263448684,-55.87809163799937,-21.258537890578523,-0.7350588317934533,10.14519413431842,20.104494389135997,31.6346571396868,41.91868562026097,47.2326674813701,47.24559319544458,45.898579332457196,46.05395681885292,46.008718573340154,43.512889178934074,40.03596632121439,38.810568820830966,40.16508989149451,39.210649999274395,32.85919104223794,25.253081751046814,19.471532160531922,13.410202232811306,5.0129575502083465,54.0,121.0,79.0
