9.910433055379183,595.492149903299,757.4298021958612,640.6746585596297,545.953972575463,521.3951486880404,490.90294300046384,438.5005245576669,390.6013507808427,351.18588100288207,307.7311071323436,259.72761676382913,215.5136514734867,176.07589816450835,136.013281655914,94.2199948200105,55.54772325818854,23.016573442861617,-6.497025034610872,-36.995495179102726,-69.64023912641957,-102.90806768054192,-128.41193148951234,-132.88724678300287,-113.18856015683238,-87.19798982913137,-75.77097183615513,-79.5083316176694,-82.84244710401761,-76.78871663002195,-68.16125685494639,-64.9972786569906,-64.27814621023089,-61.04952190011646,-56.539415041186196,-52.21102429757188,-48.01792668194773,-44.85004962624409,-43.44322905539367,-41.273943536099,-36.788611699003646,-33.09945213215763,-31.94780776927518,-31.23077667581611,-29.72255839033185,-28.276178810836733,-27.572816080464182,-27.868750833823174,-27.982241384193376,-26.704916242870976,-26.86122973831749,-31.87021888755146,-38.44477699764114,-40.75805576695963,-39.903858262413316,-42.99201215857469,-52.11335238879239,-54.20006805639984,-33.069408442267765,5.610124276569103,35.85313343767301,44.35499825301012,43.60305328090784,49.0370433977358,60.93006815233707,72.21446905108756,77.94594490666923,77.06877171868115,72.66205907029807,69.14701687265551,69.34946286870013,71.8825607456326,71.7703107270643,65.6047040824801,54.193047615049885,42.33439090927286,32.518883111469705,22.89783860761128,12.325997907287022,2.238958800301618,-6.6612721905013785,-15.914292117220539,-25.293592187860227,-33.98958135258292,-44.21484021446305,-56.79648972275316,-68.4918497570811,-78.73511482473504,-89.4924929220376,-92.9392336768965,-75.42526933798365,-40.66087354747739,-10.517513286740636,1.6890531970696563,4.353367623964209,9.159344752112014,17.38339696778735,26.61945294229477,33.308761785148604,34.29652294167086,32.79894442615214,35.20532733908431,42.27035904057895,46.005250047491685,40.891574878002714,32.72214224045533,28.885751235611455,27.94271408490828,24.58383442220058,18.657880750917712,14.62085505232575,12.53830859980971,6.724409626274139,-3.8387697231550084,-13.2192126094208,-19.01006951709477,-24.881348091466325,-33.408825067455666,-42.55205870480994,-49.48604057894544,-54.803674301312434,-60.671139006721596,-68.99144156022811,-80.07793891507679,-86.70657877527846,-75.60703283663713,-43.83153973435333,-8.775927987974097,12.00867762022913,18.82036258553234,21.45735859319676,28.00239042920877,40.134808727820605,51.212812186546664,55.392339157389195,55.54068653658218,54.788808452164076,51.74196283239903,47.85797931221566,47.05047682105697,46.94777394841333,42.99774215694301,36.89983943172963,31.287076478002874,25.43988274918513,19.408751021577707,14.313841332141749,9.496109545055193,4.177992807025379,-2.328255769349182,-11.20068794476047,-22.075433914963455,-31.827364293644784,-38.15103243758101,-44.40847782802559,-54.94271454404172,-66.96265812857888,-75.99264475297633,-84.32272874799264,-91.3246896133196,-83.40982163502896,-52.749162719784565,-16.163617503054034,4.14986103743641,6.677326775236515,6.937198694524607,17.21994719171625,34.37614859093039,44.88712141288371,43.83450958558335,41.40573294955405,44.916857217054606,49.47000815289074,50.804399929752,50.18376882899248,47.51688307382852,42.866021339920145,38.89560640923618,36.46952526788787,33.50630810354273,29.393999406547167,25.572550384955342,20.798699934668576,13.636554705958623,5.833896420732598,-0.3061450977881714,-5.3957021167216235,-13.057224661963073,-24.291013090504748,-34.605558559143844,-39.79044402366692,-42.77309537285826,-49.84472901092991,-60.070643638985246,-67.96603524194862,-74.99684222557212,-87.0147012592627,-96.61102822356723,-83.2189234825544,-43.512381130611956,-3.316485332059943,13.490004904747156,12.453413113347109,14.767191254149564,27.6280991468358,40.488105102725434,44.64870893152264,43.938321904269706,43.7137915084686,45.30735904263195,48.19589548097929,50.68387803252069,51.877651395169366,50.960798315120094,46.484884011773104,39.55339547325087,33.14275792137054,27.804715005953838,22.115459735172916,15.909148668564693,11.01613186176578,7.499059172431562,2.3708311276934637,-5.387833471035431,-12.830705471208008,-17.6633775753134,-22.78227366543508,-30.203916199225404,-37.884643491094636,-44.84042678659352,-53.400358959889964,-62.37870434785601,-67.95423227858183,-74.50060776066334,-84.70544747413474,-83.0574583659595,-54.574587883423476,-11.847143691215935,17.75307016014941,23.669363847911324,18.121791280710696,17.98943206732231,27.32643009579241,37.82442045726455,41.356503774896424,40.46901567739636,42.69274266943815,47.68757712087564,51.04910170906673,51.86107836926868,48.0,112.0,79.0
44.23509530290617,52.10868554427891,64.53841730850084,74.57068499365835,78.29984866223413,75.95790793223408,71.37816461069187,68.78338890339465,70.03741470122532,72.33587577416762,70.67048217241984,62.67652402420216,50.59542505802761,39.32369320671864,29.827800756865074,19.908097091441025,9.280586635979104,-0.4070620484732027,-9.24193403500729,-18.69137677930849,-27.82678165141129,-36.662734697256305,-47.705448444793255,-60.415365358262505,-71.46396492881337,-81.86465629184542,-91.91505997687493,-90.37152229899112,-66.33706573543564,-30.486079323634538,-5.1691029748952975,2.75134072239518,5.297250788659019,11.286402249676367,20.06382665310422,29.021451057904038,34.17824091465222,33.822328712926094,32.879342529663724,36.99815120375141,44.12749678261578,45.37269977049813,38.4070663815075,31.05442978441198,28.569858288280685,27.375881863976844,22.95426220754015,17.13995664452164,14.027982209502367,11.468925423408177,3.9572294134696326,-6.932423246100074,-15.158415267397563,-20.50474392776246,-27.082567228292962,-36.15453761819744,-44.82485794828605,-51.09156562162323,-56.356583467976876,-62.73942584259225,-72.03863340155486,-83.01377125439501,-85.83339937968682,-68.09865887015394,-33.00709552507954,-0.9702855805217436,15.017945892641798,19.57813334671941,22.709206725583975,31.097689826049255,43.84571055778293,53.14384594890184,55.60923158079426,55.4342103352691,54.20105395429506,50.49281931932071,47.256297663804595,47.219252592414314,46.252701543690684,41.268521760028996,35.225471015028724,29.665799207943046,23.65422503739886,17.833833527081723,12.947099200228346,8.025952795413088,2.4730754928676015,-4.611594504333105,-14.231125671848927,-25.18211187182046,-33.978409336868765,-39.69289825847826,-46.98537618684351,-58.5407201631658,-69.90865069301056,-78.27568172464143,-86.87706006702035,-91.30516482263039,-76.59249961956469,-41.60183498201863,-8.06741555351197,6.172795227417699,6.2208675499193165,8.691524317559852,22.011904530673743,38.64314505710537,45.514099795771564,42.701993091165804,41.86278916663136,46.454391146723886,50.175124283725516,50.76792702917241,49.68128864900428,46.28057368325169,41.53797294877099,38.0983699144197,35.766507577325555,32.36739377278516,28.244714893999657,24.408358824348227,18.95068230242238,11.318823344020311,3.8427809193344427,-1.755694747106858,-7.186914668878979,-16.056357977344103,-27.631153231567946,-36.66437606626254,-40.56167876040315,-44.24611480437658,-52.73924583696107,-62.72866457877765,-69.77322261276406,-77.89372463365763,-90.88355092062454,-95.87415490459516,-73.70972761253468,-30.492354133121545,4.304623297178763,14.085465900208906,12.027034997833676,17.65321135179614,31.962413512762566,42.59909745372282,44.62596638444944,43.70791383294383,43.984074651134975,46.07443967671397,49.0223297207812,51.176959256345356,51.899296066075536,50.06176268646082,44.59285999896175,37.55833990550165,31.544514226585036,26.25135024242353,20.31463885565038,14.28145535333686,9.965709206473829,6.307621040212513,0.3326388397515619,-7.75699208513773,-14.448222470414352,-18.93199474225719,-24.733982480081725,-32.51223623600162,-39.89940177360008,-47.060486492401985,-56.180409057267894,-64.33798384791099,-69.37768530134126,-77.40931971136378,-86.44691391864946,-77.62450558055703,-42.45503196702272,-0.9726906437474525,21.68066873462961,22.38655794254862,17.030719831876034,19.936627310378007,30.728300034565578,39.683090750859286,41.173963563623126,40.61217902619929,44.076557303469684,48.93720923097825,51.52066340172499,51.678262745062874,49.21736001339423,43.25978216918181,36.15499544054305,31.842118221879794,30.115209024315387,27.34603678405159,21.215273559538936,13.052862948754274,5.909910731920722,1.3918622890274412,-2.8903543151006836,-8.915945602008662,-15.346546873568577,-21.515251648742503,-28.8598590896292,-37.91293663168398,-47.29993800764944,-55.40426243501914,-61.547566954986635,-66.66546360224355,-73.97283502571393,-87.50950859943704,-101.22786050824742,-96.35062004876613,-63.527670410598,-20.193728879411097,7.951130583898473,15.5082782527784,17.74112035359548,26.10427643064851,37.665114809515174,46.089559355047086,49.95087537590637,50.84012503352372,52.16670549974538,56.54060390357015,60.39856385498898,58.11539744245087,53.42842831949052,52.33640058854743,50.04604934421257,42.78171956119805,35.63960415979345,32.077373657985355,28.733433212744988,22.33207036772256,15.494572870917398,12.305760039977129,11.046740065324565,5.467858378718303,-4.720356390930888,-13.904698043419572,-21.21814563055489,-29.8017248869757,-39.182958416622576,-47.328473565881104,-54.90233207078295,-62.65488603037571,-70.53770266219809,-81.52681847846864,-95.92593402535985,-100.49205589261953,48.0,112.0,79.0
-83.13058107236415,-58.995971374563666,-22.505628998988513,5.357017144629561,17.050509273817045,20.239329584083748,24.4506997888975,34.61559009960109,47.23117403201961,54.43803261967117,55.63681949881163,55.26897568284512,53.36157324024783,49.28130345253882,46.98620238882912,47.29917151609562,45.16556733395923,39.4722568248259,33.61134835846204,27.990358428341708,21.882293455904367,16.355264630244697,11.568801493866603,6.508053629479862,0.6428735467931386,-7.123226331090508,-17.392668125887624,-28.092056759157735,-35.82280942794904,-41.38132722800413,-49.98074324596403,-62.109574460377104,-72.54026255181705,-80.63906820554226,-89.18515244101961,-89.5823515055481,-67.8932499031891,-30.61366782403927,-1.7613097665941346,6.932923326204001,6.0300671200882725,11.470056824203981,27.12716946399326,41.98968659428077,45.235500155115396,41.81068494301447,42.85386318760886,47.87212384244551,50.59038625777933,50.62024435555003,48.96744384480563,44.9166605535592,40.34315850787785,37.41142616780671,34.95026463671187,31.159924518557713,27.151400641754517,23.0933308058373,16.898832732567413,9.019274659452346,2.0323565387295917,-3.170441232523344,-9.301737782500032,-19.316171602217523,-30.74240592407533,-38.231541322324205,-41.31109808108668,-46.194440411850096,-55.76797129883015,-65.0667847859541,-71.66065940602684,-81.33035635027517,-94.15584296871295,-92.66808282316497,-62.256818391143966,-18.27920480475755,9.602411557589653,13.653389789757048,12.393396277516318,21.365333048487386,35.92197540870629,43.904949731302196,44.38432556866641,43.601398773423355,44.412287706005785,46.92176327464802,49.77007692474606,51.55631685415059,51.711909433225166,48.830541848493475,42.56723000126216,35.672776200438406,30.01387994491658,24.62944078527511,18.492127122678156,12.821342528720233,8.988362328354944,4.895943141424595,-1.9097400353391796,-9.988775538398984,-15.840452453352972,-20.340549058361237,-26.87471187761097,-34.766875496112185,-41.86975642623534,-49.49516136697278,-58.880882676744775,-65.95198780298173,-71.10782234487118,-80.55686601767533,-86.61957741974844,-69.76172565169182,-29.775078619651527,8.155517542437716,23.63998847682747,20.61482163606076,16.74387914951603,22.606647046111938,33.94696055104603,40.827793162355015,40.8159450841752,41.170650730609914,45.57540075553318,49.96561575583976,51.79380281273612,51.288128519059946,47.842742864217705,41.117199096374954,34.53007101338495,31.209966699565374,29.59058306467354,25.922873044519736,18.940975123534322,10.748306208050865,4.374810553868656,0.28458292156864845,-4.468011164477828,-10.81562085726061,-17.111533596229478,-23.448874176083525,-31.337504716574855,-40.670907190769924,-49.82874869312329,-57.37223346688413,-63.04506285706971,-68.33243219933193,-77.20113124676365,-92.15340502145023,-102.57997684002537,-89.45975926370305,-50.803888096182824,-9.730721039076773,11.793326994760955,15.906361274352397,19.442661614451445,29.451317127581408,40.58460416514857,47.6313724037908,50.400635550177306,50.9938585099552,53.13364373412231,58.026203688262704,60.43779701911485,56.597574160190064,52.76645324083122,52.14955428748496,48.34470751867457,40.413136701126305,34.29657659382679,31.314728279970062,27.19759792195658,20.171855642029406,14.122605699845064,12.015821001418999,10.081369765306066,2.7685956289328426,-7.671664877357107,-16.06166051553359,-23.494106411062948,-32.5505188024279,-41.685761984020274,-49.5038366576729,-57.146232990233045,-64.8575049486284,-73.21151550123255,-85.62561036888702,-99.16460065681935,-97.23299437688432,-68.38502417184614,-28.167417256084704,-1.071043424997881,8.105047054406501,11.018224246587222,15.903802779730114,23.87306822123734,31.57774831088796,35.235968304617586,35.56404077719298,35.4053183790318,37.609800602873435,44.00040487446183,50.20421497015542,49.52155944278585,43.49920446610167,38.40640494667329,36.68064468323403,34.448265216884536,28.51376991991894,22.484434601933202,20.449102694554433,18.952576036711882,12.55874013381464,2.4054884521988567,-7.710841809728178,-15.525351651776562,-21.149408445766998,-27.823226046667415,-38.140330301062825,-47.56806718917891,-52.960717217245374,-58.763713070140305,-68.80978288086064,-81.1511603904267,-83.85458499807844,-63.598399463129766,-27.043315093024844,4.4709830769665375,19.73089990872673,23.279036508341388,24.305252558593597,27.587648242745136,32.370230199084176,34.92398189892286,34.32974140067425,35.202295329499684,41.27738130918023,49.05202055640339,52.153795010445855,48.715683052718845,42.3592168955743,39.15190791806606,39.86471365697546,38.02789480104894,31.264026425541815,23.993343998727607,18.221463079040152,13.039418589923207,7.399309038453571,-0.8908277175570514,-11.667608696730456,48.0,112.0,79.0
-11.786659600951895,-22.716008615883343,-33.48989883487068,-39.37307385024907,-42.237579159286874,-48.6029272337891,-58.75328326463964,-67.10273737049476,-73.84174039052695,-85.17811253892322,-96.22836632206231,-86.80392159989013,-49.55952394241641,-7.584760719032293,12.705745966765878,12.814360152260132,13.772526991550393,25.600189036263426,39.23048867610974,44.53552586875483,44.073626991029336,43.642462615317285,44.99270835828431,47.797321140212674,50.4198320206257,51.80956075332225,51.26617792350761,47.28731304297804,40.49885980942569,33.91324937330076,28.505274360432672,22.92651129453046,16.704417145137718,11.545832248695003,7.991680245984469,3.2280799870300783,-4.2797450048374115,-11.99526996838762,-17.097548925151166,-21.958060326350047,-29.139292570344647,-36.92549396039086,-43.877035561719666,-52.13420310385257,-61.35045718185591,-67.33862665956475,-73.3101347557673,-83.535442421711,-84.7249356892269,-59.76430861139972,-17.314205385229336,15.224203753334368,23.95824429935949,18.831219769955496,17.38143105036309,25.77305375863072,36.73636099742524,41.3147700503356,40.52375848647641,42.13410858111879,47.04882444354161,50.7597537784769,51.88176930477772,50.656265080572574,46.158761762068906,38.98946116216545,33.21535655648377,30.735505793170592,28.87489088227186,24.198171584411945,16.560127587465928,8.61168002431867,3.0621376068623305,-0.898124066673637,-6.201532145253173,-12.692389195196396,-18.868660567474404,-25.5268533686443,-33.94627978808978,-43.411984007800164,-52.215177938541046,-59.172938998739326,-64.49307639782567,-70.29332118571,-81.03888325060255,-96.49861613570883,-101.8405139951272,-80.23612522866296,-37.89312702126775,-1.0857006646329468,14.068994304526509,16.348791297096607,21.775969415639892,32.88199028306139,43.12146038954832,48.80886342084027,50.651748688370404,51.29143313398387,54.384964034635246,59.30128063122614,59.85975793501271,55.10880132512746,52.46469894354654,51.63948103906724,46.241968464601435,38.24006744959333,33.25853942048309,30.43768027733112,25.369651252338933,18.102001299777378,13.132503447420277,11.759974875557324,8.598757353874833,-0.2162373384551956,-10.39241986006031,-18.130185055150374,-25.944738031712276,-35.301357021794374,-44.05442906143136,-51.67703774825034,-59.39796955653071,-67.07975838624795,-76.26422097225858,-89.93516628765403,-101.08890730856393,-91.50296183178455,-56.698113609144066,-18.283211545898908,3.023455473477285,9.0516749992657,12.082673922659218,17.961670184371144,26.351070748020962,33.10687779544299,35.55033204305638,35.446134844376004,35.665925141861976,39.06185980749292,46.183548167943044,50.83500870378958,48.05381998045965,41.69721482554042,37.63969134364745,36.333956337276696,33.0757660398473,26.510449748579966,21.478467831395218,20.279313147126473,17.687852603048725,9.83353617873792,-0.6598033482185,-10.253090729038002,-17.292343474758017,-22.76506283292092,-30.49420729655089,-41.25724467253151,-49.432442673579196,-54.34982407290305,-61.17222489496361,-72.45629876244382,-83.6808780733072,-80.5649312762353,-53.81455870539226,-16.577457536259576,10.575930915298668,21.529667690289,23.506004475682552,24.963230136331926,28.961746166007003,33.489360326590145,34.95015522188307,34.16887275212595,36.42807501934481,43.664444429810175,50.62350864668928,51.76593596928276,46.90683841909403,40.89912961802564,39.16904290885431,39.8879740794303,36.433835542978166,29.023475065011453,22.20519345945194,16.696624245075157,11.5363883937397,5.368465076695859,-3.9035765105030245,-14.615993843084967,-22.279219173508174,-26.884872674133387,-32.87084610538086,-41.075747851539354,-48.209896293738126,-55.139352290173015,-62.58199723237062,-67.94555475116435,-74.43857813879245,-88.28844153045604,-102.0393739264835,-95.13091407005456,-60.49875964282149,-20.62279837133149,0.9210399492756765,7.022385300702238,12.81030513873969,23.696739393430803,35.71473086188746,44.67873453941132,48.90379047852562,50.00676784740906,50.35870474383726,52.205334143907095,56.00542717238029,58.200308418140345,56.1184745403423,51.23459632956623,46.574498855178426,44.33654198633007,43.127408719403476,39.00723316918117,32.00967807153287,25.954023536780994,21.06276336772925,15.649374932520605,10.860535420915793,5.5261318667000445,-3.411692059226403,-13.918724448163877,-21.045503255813735,-26.382531214222947,-34.78102931219357,-45.41924240521974,-55.9239293815587,-65.34294266433933,-73.65413197544613,-82.47296531423176,-91.64978142750591,-93.7393943939402,-77.750026605765,-43.392224834907225,-8.580609771399285,9.60901362570689,12.043481308106545,12.147401189208175,19.435979718865248,31.817069387183313,41.67686123930381,45.612331719358686,45.25776045142214,43.993890248636696,48.0,112.0,79.0
51.78669603777289,49.742741544353144,44.21725974075124,36.998517810594315,32.21059063879688,30.318031268786044,27.897290084135207,22.207588123689114,14.150808377861317,6.703420890837252,1.901253057383573,-2.2221508557489913,-8.045051853636783,-14.520715179154564,-20.662404347002692,-27.769655958405025,-36.64806338305923,-46.09400428096062,-54.437973853919345,-60.82654321652279,-65.95897138022161,-72.68796688746583,-85.38981291589803,-100.02825515842365,-98.67390579485223,-69.12155478112088,-25.52886039342267,5.559267241862145,15.219457095658413,17.172468951128394,24.644838495384107,36.209280010804996,45.2471992927221,49.658359441922606,50.78823179366561,51.82421044014736,55.83890785389903,60.174894752733834,58.753639792508835,53.87235995793582,52.36962233061281,50.66651158184901,43.89473952203643,36.3778160992684,32.426329770298956,29.33705893371843,23.320683057949207,16.2480142112707,12.499703989665466,11.344085431705919,6.572498041414608,-3.307563415546816,-12.851314625007431,-20.220575757972167,-28.556434333328447,-37.983853252726526,-46.31296037280047,-53.87667983427734,-61.63340929047793,-69.40262529503588,-79.7630668413421,-94.13998942118204,-101.18329304360148,-83.45088816615505,-44.725872517954365,-10.009480439980768,5.77286558744115,9.813540887940272,13.417813677073585,20.260333353928342,28.680679242129518,34.23920890036197,35.649879165810795,35.35513037058679,36.19886429460428,40.886055901576384,48.15163252421066,50.76964113821627,46.279148212689485,40.12690988666138,37.14580482402242,35.79717956205604,31.373960512340737,24.654435763363562,20.858756316974667,19.979426917082474,15.927690739303095,6.889165072489067,-3.636651260496707,-12.566021061865166,-18.90440043027934,-24.585674969816747,-33.48445899624113,-44.10858317433219,-50.97835182689518,-55.92347836360775,-63.99287525675047,-76.18033410610239,-84.99192545440366,-75.11622018084398,-43.10374517186687,-7.0727706719094,15.234920890506363,22.577882080008596,23.731540465082826,25.86620995485726,30.394456271180935,34.31825065007036,34.751726876512876,34.28621575982838,38.129770833417304,46.02538554620999,51.67009799871756,50.84267542032332,44.99154054459872,39.853270398403055,39.436120539926634,39.49809761053324,34.47688339997377,26.872359304680835,20.531997233555906,15.201347348879963,9.961576671946991,3.048117237898946,-7.0634482585158604,-17.271686740795296,-23.759573239814618,-28.292375235358957,-35.1652275789392,-43.31434664583438,-50.10611305746409,-57.35023062970624,-64.38385305697415,-69.3494817596744,-77.63578900211216,-93.09047614086907,-103.0203420244661,-87.45460807862656,-48.108615818348774,-12.11895561911022,3.5753360901486784,8.217427188098233,15.525300426014052,27.278817134471975,38.7514567182813,46.36709874834554,49.42941725161423,50.08699180598502,50.65020276804856,53.195512801436,57.00381232942245,58.03513320023605,54.86821640505725,49.73011182979154,45.65189916145136,44.05671096018145,42.3598380487632,37.120144156342924,30.040346004188393,24.53699696065157,19.536864649475675,14.155874139926611,9.542764507320891,3.3573089202132977,-6.53524529703956,-16.431899573725428,-22.501784420407088,-28.41723436499236,-37.76149454016212,-48.52678076907238,-58.78062376002345,-67.81873825936952,-76.05784976044012,-85.26518900382877,-93.4855645061357,-91.34953145302714,-69.18834369264299,-32.376057123495734,-1.283217945766061,11.439689240455207,11.68870234513516,13.398601082660392,22.819518642253197,35.207111229530554,43.41108246452157,45.81043851095088,44.83751804638913,43.909760746578485,45.68894362819139,50.413029491319996,53.470681441452726,49.68427105605624,41.92861052966763,36.08077603797314,32.003946525601485,27.020272934843803,21.950487551018092,17.595095198368018,12.877222915913036,7.713449426710099,1.326577613122097,-7.389348134744332,-17.75918747223534,-27.43087231300557,-34.69419355685671,-41.29247860029639,-50.36866222552428,-61.192343174571185,-71.74843351501745,-83.7631165178625,-95.66771676372994,-95.00655333105587,-72.03353840732673,-38.00466756958574,-11.374863468250807,3.1200970666620944,10.569007923976487,16.81426652817313,26.752018739258126,40.48163928118587,50.49083247799922,53.1462728233248,52.68374169461904,52.72406604841054,53.735459192231275,54.159755086277315,53.58706118542561,52.7720820424596,50.126525428354945,44.274118498063885,37.89991674853139,32.80366159781458,27.982602353416393,22.47306732605622,16.98496117330407,12.874339080827532,8.621082386595681,1.7053645914378401,-6.38000016943168,-12.538475264506197,-18.151261833018225,-27.793450697280665,-41.55303586638183,-53.34304609573486,-60.19075639348291,-65.93227361258263,-73.51743943929314,-83.98798002633333,-97.6341683574305,-107.11521262338925,48.0,112.0,79.0
-99.04178081516801,-73.47420160252275,-33.17650671785081,-3.492284109402276,7.528770570832499,10.603648810745776,15.050182014784141,22.71748210960175,30.74257939721724,34.9979554988872,35.60975615728548,35.355470992639354,37.07539090195541,42.98464332487014,49.68896939538362,50.047145510650225,44.37444413979071,38.87040841439449,36.815826776532994,34.95682850529402,29.442837279852117,23.084367463536115,20.537130638113826,19.37305303954245,13.711762498533458,3.8290454866351427,-6.467500190257182,-14.643539966134616,-20.439544252511983,-26.717176467095264,-36.662132044115104,-46.57423137804952,-52.34622513405917,-57.786156217098096,-67.21023578721172,-79.69853315129743,-84.65890426074196,-67.64094835666117,-32.072469146252494,1.1574555912106772,18.57832105269801,23.128123581263868,24.079945843620077,26.99969645908964,31.778896830098123,34.81080661391629,34.45663886204614,34.80476131493852,40.220778495084595,48.176100720105744,52.13785899688458,49.46892077281784,43.142482933242086,39.27011060779594,39.75754809532472,38.60883077272871,32.30035704825148,24.865773121901853,18.937846034491013,13.722046570774554,8.252165108411074,0.41906258312656186,-10.238081640748272,-19.571332653560276,-25.052885389379455,-29.94491180053169,-37.58053797921951,-45.390262428993275,-52.0691443070337,-59.562637180134175,-65.94483878486321,-71.03100926467138,-81.56451182722094,-97.5001166119713,-101.71195166837254,-77.58001533195984,-36.09047614797008,-5.519728862552911,5.290467601697878,9.73520828926091,18.65208149944566,30.821099271188857,41.45071445983488,47.65050789604594,49.7597583653407,50.15627764515353,51.124989836829855,54.32371327685393,57.744710781814995,57.493425028198025,53.45010894211671,48.322514396736665,44.96765011888319,43.779248934204034,41.251490803759374,35.0639175651949,28.247806138804336,23.155806242301157,17.954354694645133,12.76384580368603,8.093530054688413,0.8289972266446202,-9.665299972213989,-18.55594596391728,-23.949690316069656,-30.79019066204833,-40.84906699043374,-51.58536575234568,-61.53055119894816,-70.21196440896743,-78.5667735714602,-88.03295938333488,-94.46966453526096,-87.17795760360829,-59.277547924052705,-21.905706384906754,4.343404038682537,12.171260323153641,11.519818945270723,15.374159384929728,26.4669920445881,38.19827490254203,44.63818954015362,45.7207901593101,44.42616381442043,44.06500764309186,46.854515737363265,51.778464454437525,53.13325780598043,47.5343461859515,39.91428455831699,34.872130998895265,30.69065008660438,25.474275962902265,20.661659336692615,16.295186578027465,11.429774112894435,6.06431379386972,-0.9434223539708034,-10.295808297077286,-20.74737618663145,-29.77172415261513,-36.50789025444549,-43.59369353520031,-53.45349473106124,-64.25705443675318,-74.96444035121601,-87.57111453167735,-97.47780615128025,-90.59172304680718,-62.391716773856444,-29.032794311860407,-6.08632653499791,5.714140806644652,12.266361472627661,19.136387891151863,30.573348187366797,44.11111904653849,51.904199813962116,53.10712390570953,52.56931694872576,52.96697717118471,53.986876110582,54.05076203877461,53.38815122903413,52.32165079550465,48.70792654044216,42.3339021548468,36.313625061820886,31.4445064902232,26.46985160195433,20.806414191666182,15.648819262599654,11.809444590270987,6.9219992431096395,-0.6775975248148629,-8.412793309886977,-14.013857058155224,-20.37185693756632,-31.547769097370896,-45.45161676798086,-55.73303654711945,-61.75973773100555,-67.89053451383458,-76.18598734327944,-87.70753692082036,-101.43512440565553,-106.74062034774953,-87.47645580183877,-46.10008211340224,-10.16600890189848,2.6442849652869906,3.497116190156852,10.361438519893337,24.78885081027053,38.177515870184514,45.840709412738725,48.28870217086267,48.590564675537905,49.026283750706284,50.669488455207265,53.506168837084665,55.36883829476938,53.66126229344857,50.45132309510794,48.7876854910495,46.568061763255095,41.86769600629736,35.87739664513164,29.415985444452822,24.420803802803643,20.512162383900225,13.86409486530012,4.783010759301381,-2.5256357683995776,-7.1452582473571615,-13.050467468971046,-21.827366624769848,-29.951151504429344,-35.32151747482456,-40.026489039598324,-48.064101945328304,-59.88552515750108,-69.939705733215,-77.40302864535167,-87.64862574755566,-94.693831651903,-80.32526632704382,-42.647379277997175,-5.3040478838235705,11.796502116781785,12.917294704857246,14.087636755699707,23.173100834715843,34.70139760367019,40.08518987724167,40.88518096447389,42.69722250569277,44.28379857518164,44.89124264876675,46.95889030413902,48.366503968906194,45.33449274851294,39.476797931911065,34.57724145008718,31.305848575534416,27.85117111098337,22.447872345189193,16.533478029151937,12.108273837935997,48.0,112.0,79.0
-13.287426159452206,-21.503142570171864,-26.29244899769805,-31.884656848050618,-39.99379523412594,-47.33642313992163,-54.144598762600396,-61.67168485882515,-67.32940342392807,-73.21306703675224,-86.08345979078412,-100.94255659419505,-97.81941713252222,-66.11275234121462,-25.151672771542287,-0.7404264422822359,6.512090311852347,11.72218787251016,22.065340675078108,34.22026058131161,43.757106840011524,48.5781631958626,49.95116242798003,50.27263244481648,51.814095262895776,55.48923083220667,58.14445413654454,56.6180142166303,51.94020404657508,47.07842704815943,44.497246715289414,43.38264643770977,39.790034514157504,32.96153766341935,26.64157467724555,21.73975889877321,16.36652385989506,11.453638562757854,6.407382329794504,-2.017337993861464,-12.63972082711763,-20.323238145081067,-25.554106086757837,-33.46547693326231,-43.977071403096225,-54.574292243436076,-64.16624930620051,-72.56608951227403,-81.21103642662501,-90.59825016695756,-94.29413910361322,-81.14372186314604,-48.49842209920819,-12.473107973544277,8.306279020932823,12.176624766102913,11.807625217257758,18.02189569214,30.158901928260157,40.699958202419566,45.40090381546519,45.43272699856921,44.097884855860244,44.50252390955952,48.23854520107919,52.8332430797549,52.14106330533736,45.22366163293034,38.1696550136409,33.73321320946806,29.257157749942152,23.980054044841875,19.41847686253321,14.93944020115084,9.95603510644639,4.2727906257788835,-3.4227659284120313,-13.304962634826293,-23.604940318629314,-31.8944612746946,-38.34819732351502,-46.16719490066964,-56.609301529129446,-67.27871870428821,-78.38622186456465,-91.24197946549008,-97.81926163813871,-84.2223924135549,-52.33735993379263,-21.049983278157008,-1.764565490302723,7.880094670731482,13.98917576997021,21.889450157916997,34.62215419068833,47.195554764397464,52.725721423562916,52.947144190737916,52.550797802071784,53.274049391578885,54.14030322874555,53.87880558487248,53.180858133153514,51.64372666055382,47.02580729012525,40.449033839379574,34.8365365711822,30.071516167176785,24.884785098535293,19.181868730944803,14.452023099218243,10.652142626797131,4.9602260480505995,-3.0708364562270285,-10.224156944612366,-15.54130725167588,-23.043133229385347,-35.5684165072642,-48.99684266643326,-57.72789143564431,-63.366329183851406,-70.03131687447983,-79.12753807750258,-91.68329378493902,-104.59322033817897,-104.18384257080633,-76.85086761656319,-33.83487266292915,-4.116563905249689,3.16483477970489,4.4201445204809575,14.10846279020701,29.095243074395064,41.03580999685487,46.96437998292335,48.46350342123187,48.63916157721039,49.35241841141579,51.40962528505649,54.302201945360714,55.25730411031115,52.6885700516111,49.80843412174354,48.37069432112331,45.43131325984953,40.225322545964474,34.00325215664571,27.73382356529616,23.34123356183687,18.99095277078267,11.316099759449578,2.3339007295474397,-4.015939054164378,-8.526752383764416,-15.394009583417246,-24.41936367229673,-31.75844666855768,-36.582153419291544,-41.84966114785796,-51.27825609565965,-63.207532405773655,-72.12689339138905,-79.96990785813512,-90.77127265429372,-93.40323083562976,-71.10796071277026,-30.56428611095208,1.9865608372928734,13.062831102358214,12.641877275821686,15.918690047166772,26.72609815533613,37.053810173321914,40.46576537693806,41.231288005775376,43.32563919713507,44.43890615812513,45.30993192150227,47.657471899454954,47.99105472357072,43.73858932383463,37.86266472105116,33.515677369243186,30.43630250348138,26.499432685667095,20.655794640864222,15.102932218877708,10.9380292064625,5.42097570885524,-4.237197576201934,-16.066369775324898,-24.381254642762986,-27.64206541567069,-31.228201011940403,-39.00059681629965,-48.05233019419567,-54.980722227498504,-62.74236795775065,-75.135819840828,-82.23441972558338,-68.09219385823206,-36.84640263937862,-9.326656592530286,2.792033213527723,3.233394226791314,2.2050719472844205,7.04667276522102,19.2496777155388,33.61851410684265,41.637030826617945,43.729173157783016,45.92178201662602,48.09930229181913,46.43894052765862,41.197524297466124,37.02364313622917,38.13547060826038,43.88148560791044,48.19278459246937,45.40036214635254,35.55327186929123,24.988709481278875,18.340396232857746,12.42516122597352,3.1406314715048884,-8.52886955847936,-19.591288064491202,-29.238501639992865,-37.68081671911899,-46.1837050828417,-57.335695373974616,-69.60104317074571,-79.36354678404568,-89.95424272023126,-99.53708583554342,-90.86196706809388,-56.83758717131366,-19.07037651782325,0.04650483158188322,4.254852041985771,8.113712037312244,17.042250463784335,29.38411220754399,41.176687542385416,47.536267153494634,48.146496027745705,47.456601173608284,48.7854943508601,51.8475496588627,53.59769007430713,48.0,112.0,79.0
43.921998407793566,45.24464774343764,49.730132248029605,53.40606421433702,50.56749573758008,42.934829973277274,36.68898117842088,32.569389629892875,27.735891312096573,22.570128918075817,18.177411390200735,13.53603455805672,8.437732605210753,2.302357146131704,-6.097550741723538,-16.356787773147182,-26.27419442058485,-33.83950115371362,-40.31679995158518,-48.99471305810311,-59.75786713194668,-70.31813551530308,-82.0265456240946,-94.45173772162133,-96.3530317108502,-76.18293158029712,-42.41021866925068,-14.170905081645587,1.7372591417868453,9.761223464447397,15.86351718392693,25.113896823493672,38.67758539643849,49.61278057458958,53.090636987447475,52.76001050930259,52.6438969522436,53.59643449209295,54.17915453998938,53.68005551759868,52.924394361148245,50.677574624261204,45.16440650289081,38.67430333927866,33.434937302283444,28.655843963068758,23.241839258507696,17.649269330674862,13.359933029338052,9.315860927588451,2.771838282947196,-5.37295842566524,-11.840248341454421,-17.258784486763812,-26.19043273082529,-39.68029980702122,-52.08438023749866,-59.45022218821305,-65.08739520248493,-72.36810729118801,-82.3789462312659,-95.7725618752201,-106.66101570742357,-99.18651623691514,-64.76213349168724,-22.84908361139843,-0.1356597582508772,3.2077429613241244,6.194002964013892,18.323235458686554,33.099853026899545,43.364709615205186,47.70708164329592,48.54074763704665,48.737378367246535,49.79731824593352,52.23902683319313,54.93185461196435,54.80692435584838,51.70190046904066,49.332220950705626,47.80139335446274,44.09052719878572,38.509080075998895,32.10549646336046,26.243628787601725,22.282102295369263,17.142710061524827,8.644944828759076,0.14224079706249992,-5.320944289392256,-10.145424838066141,-17.946983848360194,-26.84248574556198,-33.331183121060654,-37.869604535757986,-44.06064979222084,-54.741710258643735,-66.21110582466353,-74.19249399585706,-82.91169485922646,-93.27466628284607,-89.84213496898043,-60.21049207164692,-19.257424458408472,7.304698384288451,13.342757701121895,12.76124533137362,18.468860235386128,30.226884286884065,38.73396732106693,40.63411396854535,41.751870553136555,43.83276442098939,44.563926972909144,45.90180239786888,48.178719720483144,47.185377461172585,42.00936691992629,36.40398658077302,32.57126895521323,29.490574890759472,24.957571930386635,18.898515110936522,13.81929447840581,9.656268525738652,3.0835068494284554,-7.664715048417692,-19.0520993214096,-25.690272719801257,-28.354984584303626,-33.06107606845153,-41.71198503737403,-50.280685965546,-56.85397147120848,-65.94418640117226,-78.56226161314478,-80.68185739607526,-59.97919256931991,-27.66240177182407,-4.174127686395729,3.695919592204149,2.653049101103169,2.827331160887011,9.903081688555831,23.589311822430275,36.81768019548382,42.54760385132643,44.20843028166527,46.724945685933264,48.12753806083287,45.1260496257792,39.64923844395097,36.70520383375212,39.518431521167365,45.593786339824455,48.25002989013045,43.08667500219769,32.236993467340945,22.67503363345396,16.81272875455481,10.141316991415462,-0.13331854290670364,-11.871942663880263,-22.51296524163879,-31.790052327308945,-40.00709989641919,-49.078530924376516,-60.983995317881,-72.67533202479684,-82.10766007153104,-93.39351991227603,-99.7366556759804,-83.14463727455461,-44.953139549860346,-11.288838495339139,2.094659584605906,4.9445817087731125,10.18607047290861,20.39032015582307,33.08197101310965,43.7200208862105,48.14443665439882,47.87357959939032,47.573515511553545,49.599668489526394,52.62963560526626,53.52073139566324,51.61990994440137,48.53731050599642,43.465057019885904,35.31481692535748,28.495723240483535,25.839809561301347,22.833463166151475,15.766573957989264,7.917341606642952,1.4869357032172243,-6.8902924992095596,-16.885913584937924,-23.818853040692424,-28.22023976902362,-35.66297383932648,-47.59596824110869,-60.22275461287016,-70.37669751923848,-80.48074375445647,-93.58871231851012,-102.31854574408074,-90.4349973395436,-56.08017236767866,-19.4119475272452,0.48871271590879467,3.718762487139773,5.301792179283786,16.473139943146,33.772833011846046,46.2059811598355,48.70178235642417,46.4465298328492,46.95457504715994,51.050053547320346,54.86406632241519,55.43948104186956,52.02057320977653,45.868451946009465,41.64266722264365,41.57527547076938,39.98381058030239,31.730747124362818,20.975872899630705,14.755758847869991,12.735256168117056,9.45750708471671,2.825682795857977,-5.817020819999452,-15.6885939735683,-25.743632439398354,-34.20458458711558,-40.98184284368247,-48.35883254968098,-58.38833232151959,-71.40881139918696,-84.88089901152964,-87.85136225002124,-68.65526466141738,-35.57888956988494,-10.661243212448158,-3.0607790172820732,-2.6271038347025257,48.0,112.0,79.0
-107.16249758201998,-91.70818321054617,-51.986796660127766,-13.686045017788071,2.086684838771763,3.3070808014522663,8.858035153332802,22.74712942301838,36.68598689074911,45.172940528525245,48.15613286906537,48.57617273252267,48.91295183148961,50.366058985569225,53.109839902095985,55.303818525550696,54.07117593642718,50.80957219251482,48.95546174038843,47.01310688244423,42.595583354351746,36.723259018429616,30.242844453981668,24.95583067061368,21.11793427360454,14.96551927910597,5.977328512395582,-1.7519015736653554,-6.559364941499542,-12.062820002252675,-20.60196481032836,-29.030445678962497,-34.7220729061712,-39.29298502605593,-46.70346823596031,-58.280514123890605,-68.84348931042268,-76.33589037704004,-86.13410437762573,-94.61657420060584,-83.86921108210623,-48.286054803508975,-9.311869115841084,10.75954682666097,13.091606048069513,13.50065760541182,21.596353879096338,33.40584122508847,39.78126833303785,40.78245361435077,42.39031920657244,44.176951225251265,44.75674182590658,46.615558184364325,48.39571430027263,45.9923553702268,40.2616779531846,35.115742661218924,31.69887435906985,28.4087773166295,23.262853286108953,17.246501563553707,12.637957144498632,8.16243564198783,0.35673901322271473,-11.163854609674997,-21.591816144494757,-26.624272215586114,-29.27304545186166,-35.27281281170712,-44.398306424656674,-52.28800878200271,-58.95114870475247,-69.57206668253995,-81.11054366647285,-77.02794569949039,-50.831136601681024,-19.332234928188686,-0.4158786903985684,3.8350439928622024,2.211946850197744,4.059973928920414,13.361281471224238,27.902792706977902,39.29332474944399,43.11494737132732,44.81814675567232,47.4447667738073,47.74187123720733,43.58830235656099,38.32183684946287,36.90967906563872,41.20672881922274,47.00184150872576,47.61038460600292,40.255304455269766,29.065674337997695,20.72888405161824,15.19696703544436,7.518343086779401,-3.530515815367482,-15.101884400297747,-25.322798711306184,-34.24056263087413,-42.39691541794078,-52.25500288400485,-64.61477027911472,-75.48551717243656,-85.09730426522215,-96.53111149230924,-97.87014913855343,-73.41568399875915,-33.53889037427148,-5.408195054366035,3.260938654811642,5.921088409514609,12.696517586964273,23.958926903283096,36.61232350385045,45.69737086691984,48.33885718971784,47.61816317212014,47.9091673533042,50.51347807833706,53.21216301738824,53.19033035466457,50.81036609713629,47.39492949542263,41.33122859705319,32.945218804006785,27.390127511994045,25.2904793671813,21.175659623398968,13.351314195795643,6.016570214450914,-0.6019900661373921,-9.812870951597482,-19.349137005965627,-25.113389141417017,-29.865251696170304,-38.751996286121205,-51.39194206692806,-63.41284970537899,-73.08433255772559,-84.0039061059981,-97.25776689105577,-101.57852802262829,-82.21059083319156,-44.6186964199298,-11.534416605051602,2.6181963142633893,3.6066172865889277,7.422449887940204,21.30936964967864,38.293946649200464,47.88151609819282,48.14519162424473,46.116495088969316,47.91360420130887,52.356031097488845,55.43236853130553,54.85485838701487,50.37956301003768,44.21081286102797,41.31798322607511,41.63136941752721,38.28041969407696,28.50848997793707,18.54725447229077,13.97088630962261,12.114734267392807,7.850806805706072,0.47198139683227325,-8.555215317277392,-18.664804172588966,-28.40167014153956,-36.27236060729052,-42.922402042462295,-50.94862398890117,-61.8559604716759,-75.54726097758278,-87.51127993022035,-84.70658293580422,-59.57123120879716,-26.711859246362398,-6.865986889398809,-2.8873434551097343,-1.7994208301033785,6.840167979007073,22.672888265627105,37.59891226501112,43.63260716225501,42.49576581043443,41.54934099875094,43.705616149241635,45.610949696867685,44.52027699062124,41.49245635925188,37.358194305407146,32.36515309904007,27.23468239857269,23.912230229573805,21.223170057272423,16.38845599866844,9.499143093881925,1.580749657495136,-5.8903191338197995,-12.920111760781108,-21.1709779924914,-32.600422754605525,-45.69495190907496,-56.03848489384753,-64.61892214034224,-75.58645516886392,-89.29553602564887,-101.4576998305284,-102.28953941595827,-83.849090583672,-53.59261640737535,-30.336908996395017,-22.755092584130225,-16.177008556341274,11.736747627068034,58.9360580571881,96.44937548976924,103.76831158877181,91.08601627307958,80.68607289634122,78.03614923433409,75.6906344678866,71.14090411098509,65.75188856090149,59.86196687467919,53.29991401520303,44.82614837517695,36.81390607836483,31.993949814996665,26.522346442689866,17.926401256140764,8.612688925768209,-1.2010815608461993,-11.549267590709178,-19.725027003647277,-25.36000177317695,-31.298940964555033,-39.13010816222126,-47.89662281758119,-56.73980859457336,-65.10262149910572,-72.19291994682308,48.0,112.0,79.0
11.485235104664755,6.368131961438875,-2.7214313584317233,-14.571732537940795,-23.619961196498767,-27.338014842790745,-30.520815687032034,-37.77900922591195,-46.94631372634296,-54.14333798569349,-61.43527076296872,-73.40065739818195,-82.28001055293886,-71.33374206304104,-41.247040458322765,-12.175842060658491,2.046630358040804,3.4840558095524994,2.1023228406564427,5.949783039850039,17.30957716698786,31.927476654268833,41.046053840082045,43.53720177644205,45.554460355374346,47.961200822245786,46.93824454934551,41.95024775849736,37.335147005877275,37.636699301140915,43.03867978178767,47.94806387328633,46.25677109417772,37.07865126777045,26.18925459620116,19.05662242802393,13.366586158535037,4.583086021563078,-6.959481731867071,-18.20392792168566,-28.02693341713951,-36.60741257454122,-44.938437371088035,-55.687377686177776,-68.08556626925247,-78.14322031428081,-88.37295558548983,-98.87565039831956,-93.63681336423332,-62.25945832697391,-23.273424351105305,-1.3154060607347293,3.9736726094301966,7.314928513870637,15.593429825951096,27.661132434885634,39.83295586605178,47.08626511240396,48.24779092132154,47.4700443604327,48.46327341928558,51.44101031930299,53.54003614983774,52.65405694397547,49.9446641086896,46.01902478811259,38.953549103504855,30.852598227065137,26.62510234225038,24.540314266669956,19.154485286272887,11.015801048618593,4.210036783772917,-2.9601530242087484,-12.780482373588079,-21.43665662280937,-26.30532123761994,-31.901762702495287,-42.184268427602056,-55.11639495127951,-66.36103267863865,-75.90863678976916,-87.81856520130266,-100.22659972291449,-98.69793695902958,-72.33086967237493,-33.60523625712419,-5.3847167411014825,3.5716700714534264,3.803451442085645,10.489351861855289,26.428064201220636,42.130713688696034,48.7113194380972,47.40539485387638,46.16675815689391,49.10900011605282,53.53267045467268,55.68145926212546,53.93466208701755,48.564260051576476,42.867439503623274,41.319666553292436,41.348036465040245,35.966890317259136,25.277290535412696,16.636052691544315,13.429993641254411,11.253743962522499,5.969435110426739,-2.0053496436823544,-11.395904926115554,-21.6088902141262,-30.889966886707985,-38.22036317141863,-44.990531978344464,-53.78613065254599,-65.57821428525301,-79.6167425198507,-88.8837561644172,-79.51355843714931,-49.79774590780523,-19.073919016876946,-4.513861850949516,-2.9239801997417905,-0.2625829062474671,10.933839586004053,27.53286039773682,40.401069261973504,43.714506541518475,41.935817606973195,41.91610426563597,44.49357389500931,45.591473060587326,43.7860555838393,40.39591205993122,35.99796146131398,30.81422123949382,26.04341072160174,23.229716234110604,20.090216361817703,14.568567805780248,7.253792375561214,-0.6699052699694262,-7.911946758770444,-15.08191195159897,-24.10253234394072,-36.42572740533148,-49.07050034713329,-58.48945651845599,-67.43635196742937,-79.36057336400236,-93.30192174274445,-103.38024121381142,-98.97415653340632,-75.54677851596112,-45.38159580866823,-26.746676069025828,-21.879177314468006,-10.896440632654366,24.391681575272404,72.18238129353179,101.7831473075702,101.08893553419858,87.15953692155925,79.41104753746475,77.5981323033186,74.53731211829371,69.64204556108757,64.0885798946991,58.09075323974884,51.05113829990278,42.24807802297527,35.153052195477635,30.720916613783483,24.281758357898955,15.225787624777826,5.886200331259985,-4.22922242954528,-14.243489489682494,-21.5114814925401,-26.918513211515226,-33.37619939479651,-41.63105073607892,-50.451127401026376,-59.26155396541519,-67.25623294212568,-74.26434560933585,-83.70508856477865,-97.64410048028422,-108.97261106594252,-102.93032236730717,-74.03372986379624,-38.96024062383483,-17.75883693825908,-10.677860509465162,-4.552472261055513,9.22275946049027,27.594909331995357,41.053457736920414,46.10692024279209,48.866818367285696,51.75914240280931,52.05464777815696,50.717186792336555,51.14009997056453,51.77991134341022,49.08560428082384,46.09676622960414,44.756722114852195,40.05672428579019,31.427197002236905,25.846333822774138,24.741585857512625,21.20704314895143,12.140692930925384,0.42136209222482734,-11.399079015975648,-15.880468440941458,-4.13918397436156,16.537477351757627,28.028819098931404,22.191480062977373,3.691595202777525,-18.894872647305345,-38.79108660511505,-53.475165165105494,-63.91771735142876,-74.32053380540546,-88.43807174998587,-99.29710870767416,-90.48263196640967,-59.83069448135684,-28.26220633696937,-11.5279575334766,-4.932712870234953,0.9511928935694481,10.627426474327578,22.78684388358976,32.478992913042454,36.69478032374622,37.03790356236871,39.02509832370485,43.81276574784026,45.813829199621225,43.56241752702189,41.648543195953906,40.25923141731927,37.1173390651114,33.57787007548884,48.0,112.0,79.0
53.589829054621745,51.969878365966835,49.006981013409494,44.345439309751406,36.45938263350554,29.14234827394996,26.070196074743798,23.462143828631554,16.870390939649443,8.850052446407712,2.3765473449006342,-5.595418201965338,-15.642307532928372,-23.14344721067353,-27.568407197078418,-34.37521458441705,-45.85631991543211,-58.665337249023956,-69.13129136715419,-78.96765874385197,-91.78096544282951,-102.019114319066,-93.55232588842843,-61.3445662492867,-23.58070754086496,-0.9835832099809811,3.76261516970294,4.637949658589262,14.418815852793445,31.51918365185406,45.128484082385924,48.83257794382845,46.704000862806645,46.61922159150108,50.429928228871816,54.50304612571779,55.594431031429494,52.69297807039598,46.701445228591204,41.929341771986586,41.49254527154717,40.55375759048008,33.151370720316386,22.251349976056627,15.241946246249157,12.966734353962396,10.096293617673346,3.860546639278755,-4.590154750326423,-14.321226691609874,-24.46724176287812,-33.19893240983469,-40.10985741220373,-47.24525638568785,-56.876891933462275,-69.52827191783044,-83.35825864004067,-88.61392855227652,-72.44705057389916,-39.96408056068282,-12.944672603973933,-3.3206977380871585,-2.8120025427926967,2.0601553900057774,15.519553840917544,32.0636833993691,42.31850776338894,43.359789347201755,41.56866530102007,42.54034898017659,45.12949313438226,45.30937344007518,42.9296369665452,39.2168061635528,34.56767941109702,29.285330044343702,25.0547890002629,22.514244916559047,18.73504402504548,12.601176134850403,4.951174935606819,-2.845542795104428,-9.921396130690956,-17.395059692736126,-27.34795378297667,-40.28755973944966,-52.117926812541114,-60.90068554021949,-70.53658356516155,-83.33026730583654,-97.02955804096476,-104.05814944763003,-93.93790966201801,-66.63293891909733,-38.25010238839784,-24.477931113358416,-20.4903002085142,-3.3520482822086866,38.24057200931814,83.76002613722052,104.36292938007394,97.29371162877068,83.91863810229572,78.67090166735021,76.99076752915812,73.22720241971561,68.0970228049784,62.389309746728706,56.24511369012557,48.60988082824023,39.83270063504148,33.770701499161426,29.236970957195425,21.7984119835748,12.535109283374464,3.0800908222232275,-7.269152106815886,-16.67498395719303,-23.128085361153534,-28.58330865854857,-35.62019848656972,-44.16879857217811,-53.008445045415414,-61.71603204811353,-69.29405528204201,-76.54443822716419,-87.36875629536773,-101.77887102000561,-109.63133973501226,-96.58184606968926,-63.42147917438023,-30.965330647543503,-14.758873438037151,-9.39961416046166,-1.4326474167819776,14.442516269437863,32.37665033001993,43.19729908637406,46.857351324022474,49.80164704109408,52.179264285118286,51.66690068284077,50.586592951759854,51.53034897671512,51.338468856190346,48.020504035287715,45.683332912917926,43.97483212197341,37.71059924032951,29.220206943110604,25.301641614744415,24.278255331198174,19.066671129795722,8.90463559683203,-3.1439643880161996,-13.976586279881055,-14.231145714525566,1.710869352271698,21.473918405653517,28.07622584894347,17.781659159399403,-2.7872823654488723,-25.10827413238051,-43.585706588625925,-56.80371929296542,-66.67578192514922,-78.03894955464384,-92.59773438223314,-99.37851065565079,-83.2338570044062,-49.7085142029907,-21.806821239274637,-9.065171885196554,-3.457188398049738,3.294690722745167,14.091583872235237,26.041203510568987,34.2924825128623,36.979513374499305,37.218548894593965,40.31337389718187,44.913251121095136,45.43336163157829,42.81008300484907,41.35403674802906,39.5177200353039,36.05299174528959,32.654506867647044,29.15716972005235,23.656439014552717,18.102179502562667,17.22874838712388,18.95932443734425,16.63573306542163,8.366625554039766,-1.9295791791058463,-9.836194489406537,-16.003253571979375,-22.410271001710584,-28.93339019051403,-36.22417939512815,-43.59468654317489,-49.34736152012802,-54.44918869636302,-61.60033534816775,-71.0774903009662,-75.75703288282732,-62.43159993812315,-30.900621641249167,-1.5499444588659945,10.312556586610624,10.299491520548724,12.871212854936413,23.45344670057075,33.44078781739881,35.92524933770677,34.58195687241523,33.847435844610956,34.6185142850986,35.79170335880027,36.4377229186211,37.62064418045625,37.81106756828315,33.39593275515307,27.000653895823653,22.40678621035042,18.131470550659373,14.14323548744454,12.550722106299226,11.116954785172707,4.455913103084312,-5.3870755069339875,-11.615158588474946,-15.56599454258698,-20.60287732553382,-26.107654125911143,-32.09948210878673,-37.72614494649785,-43.228483313287825,-51.356195789235045,-62.787672228779385,-73.54370240923424,-72.91166315743439,-51.888835834225794,-20.0989154791486,1.9781001700001202,7.843790283411512,8.909604278923423,15.37710238649738,26.60597810533833,48.0,112.0,79.0
-2.2612472393751752,5.1643114222060476,20.39360470777585,36.02215292606962,43.390677691929085,42.78187759951815,41.48304102747096,43.32465470028066,45.523792832259865,44.81012556238869,41.96809406374737,37.961434455159,33.07220821011989,27.847673998186707,24.24386713971791,21.672899105310297,17.17194975545515,10.504113553940593,2.6379450293511013,-4.944338035590665,-11.958955279912097,-19.91963445722623,-30.887571189394333,-44.03905251415625,-54.85788606491307,-63.403445253146536,-73.92897788016077,-87.40995676660059,-100.23412875874963,-103.23119953028082,-87.33887666333011,-57.628693033037024,-32.48994385607704,-23.172539426512476,-17.922609974988077,6.487671183132139,52.48064493897135,93.05144999970257,104.44700798969188,93.0382316161881,81.5149282838361,78.21572865097826,76.1543149386593,71.81496794594014,66.50340524429932,60.665075860316485,54.269433151093786,46.03248696123808,37.690965740885865,32.54729273331988,27.453717870771104,19.165402988149847,9.853620023380909,0.17238897063551448,-10.23363162446427,-18.82442109832242,-24.658967104159657,-30.40162663664761,-37.99928018096656,-46.719490139328165,-55.56520024750925,-64.06399946427743,-71.27444332459197,-79.14859750479839,-91.40703749238841,-105.41058481209377,-108.43542475509982,-88.38860918746698,-52.91582487706394,-24.492287521100234,-12.715647047618807,-7.836772320458947,2.425209657598285,19.864294579470567,36.489507432546496,44.68700954881492,47.612877441586264,50.7060834716268,52.314514114645,51.2266134769383,50.67943917449762,51.81746772708053,50.573682190304645,47.08006155559964,45.37144529501064,42.74294012348094,35.13900907389297,27.468703705913192,25.043739073507684,23.405234835529072,16.487004283079276,5.5300412404135075,-6.6707427383201665,-15.655892696721708,-11.078841243665607,7.912254460737119,25.200427074323773,26.647090671563152,12.505414107099844,-9.390229855710444,-30.972682270859263,-47.92173882286408,-59.829097403215556,-69.57075402462853,-82.12248782293553,-96.15944441036693,-97.38194674736128,-74.3865563889408,-40.1797212626598,-16.75063945779072,-7.178443653499107,-1.853588990209162,6.0195251635710125,17.664151702551827,28.965564364216107,35.6073327715628,37.03511388959591,37.69426046428104,41.76512559512029,45.614536010970824,44.75814644214054,42.21916839911324,41.01424548137578,38.615146997591715,35.01101794657825,31.741955508308276,27.808582333983857,21.818557243668884,17.275061749903927,17.769206974086764,18.919732803625948,14.769870784464448,5.342998238812548,-4.532261600324995,-11.670205776088311,-17.813770642013193,-24.282219222639334,-30.927026035064767,-38.4496406600977,-45.437572147045465,-50.776967962704845,-56.20099117740858,-64.23484442758739,-73.48465122810542,-74.22753381832028,-54.539953851736485,-21.15696766724689,3.7942261244903572,10.882203742447986,10.244829183180606,15.288716608546778,26.92092347551606,34.90943472520493,35.65872194905794,34.2184056253261,33.93293541787313,34.99584305329491,36.00505013907325,36.69070143257398,37.97636680948776,37.04441982039149,31.48872360943331,25.487714608908572,21.229408465852618,16.840685652711013,13.409958676878206,12.378820713178627,9.857448426403206,1.5870121468024316,-7.690026980644568,-12.750253256506795,-16.91088976908455,-22.160000319490898,-27.79802558536713,-33.81453021935266,-39.226870432987795,-45.19591633720639,-54.39899717912444,-66.29589308659254,-75.13982987005018,-68.92898713370504,-42.889008703497176,-12.002405834086664,5.045354302180317,7.994761646012543,10.073719951194416,18.356086665313008,29.89623249765597,37.94023376375891,37.70825300508602,32.43170896330708,32.042788130074655,39.904868560347026,47.21037401602784,47.200469059583,42.83673269125861,38.40919341412622,34.42195859440038,30.971811040593217,27.95329034762217,24.00899710699415,18.679175842986318,13.304468037073608,9.022843029386188,4.927444661709699,-1.1730071951121548,-9.051405565332129,-15.944263956653812,-20.340023688113202,-23.674483265869604,-28.732321634127025,-37.38947045270203,-46.03745003608246,-51.038551942188036,-54.83329681185842,-61.53015590610642,-73.78129481494365,-87.2004664385174,-86.77802001148025,-60.58081827841764,-22.45419424817281,1.7645588823367593,6.758883774145854,6.904407683265088,13.91154486683059,26.657070007127345,38.905996355002046,46.33466194455357,47.01512533509007,44.076966911156774,43.57876135426189,46.07965992616081,48.16611889549643,48.81506831003263,48.622592853449184,46.96520659936803,42.3233154198291,35.938104123649794,30.115228409473687,24.627094287485583,19.938741341105608,17.430080896702663,16.084750034368664,12.571274328469544,5.674884010125078,-1.7484760023193124,-7.8266960752216335,-14.483614182085068,-22.01204648219019,-28.14587480576218,48.0,112.0,79.0
-73.29085199721219,-82.16390988011776,-95.66763371469736,-108.13688986514113,-105.16132028294749,-78.78272865887803,-43.11048094543113,-19.55453119864586,-11.258322596886192,-5.74286522714108,6.949877752671193,25.22216796746352,39.80399360808075,45.72243337937349,48.45084122970537,51.47585449423478,52.18603932637433,50.845236681737084,50.96622669637799,51.8654555006904,49.58120373485928,46.35310942482013,44.99928919478243,41.01257245286154,32.55828333312521,26.240892974277273,24.861831757855903,22.023616707372604,13.570481576007722,2.051792020509859,-9.997387663314068,-16.132508032169863,-6.582009017614415,13.948064703736463,27.489110384762427,23.874444663035963,6.580706567861057,-15.93704997238381,-36.42610325179795,-51.81742529497771,-62.651071458092034,-72.73917456237302,-86.43717985121265,-98.6460260211974,-93.1622945405943,-64.52971571956544,-31.718595399614674,-12.935894479160117,-5.609681443670396,-0.006690708210265378,9.103327892517319,21.20382005941272,31.47702621459842,36.44898607039298,37.02110088010515,38.52521732627744,43.20446247991184,45.855786261683775,43.942161461453125,41.799516755120194,40.53869623912177,37.60362041080212,34.01763207509547,30.783241909587115,26.244622588782605,20.093531695172917,16.94021068464296,18.37328270980804,18.390676697584937,12.427874756341632,2.293840850126053,-6.862477056031706,-13.430744434622031,-19.667654349460282,-26.150742394376962,-33.01935112813006,-40.62503928069801,-47.12143261492635,-52.20506479613649,-58.19664712451182,-67.02905091514931,-75.22153024712627,-70.84436231322587,-45.375407793209504,-12.227680925058799,7.500366578146545,10.789697397259705,10.756893319874704,18.3520102625196,30.01739737821908,35.70638305532654,35.235419588846504,33.969737843431055,34.14386292733278,35.359660807354864,36.175244781040654,37.0291804938213,38.15071447383332,35.82591837259144,29.568820969582987,24.158256717357233,20.00764110900127,15.62514045931257,12.921856628158167,12.094618855237206,8.035912604034564,-1.3713058567589596,-9.556782711512204,-13.836347646619101,-18.367575310729414,-23.735623062767903,-29.535853618071556,-35.45940832654743,-40.75890096770071,-47.46161897563412,-57.69256490130486,-69.60960595944069,-75.43445913259968,-63.131169204767666,-33.45388666069447,-5.210051461736793,6.8329817114886895,8.135308376064408,11.826046337197013,21.628991795814738,32.88440402583736,38.77117981666497,36.31118054924419,31.407056662804223,33.69802037443846,42.56243859753347,47.97064920423814,46.132103692858,41.484606459138064,37.23151715087104,33.344782826976314,30.104314560396233,26.96822285122468,22.57398742623001,17.058224764639643,11.945064781736983,7.922062533899711,3.43308148557002,-3.3678355454886875,-11.269577292786764,-17.45133891467642,-21.30514059858015,-24.8180699761985,-30.90228670951425,-40.15843125432218,-47.83919728408221,-52.072344183569555,-56.29934682707721,-64.49128588779504,-78.02727514063038,-89.31800805177431,-81.82378874388586,-49.532779231320866,-13.248496943982538,4.735682273388376,6.552987558304817,8.056468911163524,17.281123989518242,30.486995430081304,41.68451455531393,47.213358606300176,46.2449966333083,43.50967503681185,44.14311171450879,46.83497730923158,48.47686898535181,48.83212842825385,48.37442993596905,45.95076530925472,40.5197515134956,34.172128238624516,28.518741944326816,23.11789701179646,18.96544564249445,17.057951203605167,15.424130675127534,10.862831440771178,3.414987907824398,-3.5977211923392987,-9.593210993635703,-16.67358021543265,-23.96537422379181,-29.78178033139146,-36.71875593890544,-45.06153077273118,-51.8357080763454,-56.756996135974916,-62.393336533094,-71.527553582691,-84.24135717447655,-91.02475909061806,-76.68145821750656,-42.13992081623137,-9.32663216328122,5.17053950181595,6.948799766891294,9.61476599411793,17.383278518897118,28.12872921641715,38.09695580169627,42.88915980429877,43.438344078970545,43.33690026214553,43.21970064950677,41.602008356819915,38.95900243028217,37.44985812976885,36.803445823645724,36.3880378090317,37.37158572266582,36.60854306728551,30.741942239871488,24.833086448104996,23.188524122514718,21.380695112906746,15.38648835082246,8.001651769423347,2.6036477284377963,-2.1760324225744285,-9.138305703614803,-15.93402678912056,-19.551207696082304,-23.79820078767337,-32.354704527454686,-42.75220951422479,-51.26641769283267,-56.82314942515578,-61.553356914741,-69.66500154517101,-78.86417312182552,-73.88584557221432,-45.96402714896535,-11.307160697329994,10.128015496666197,16.483982324817607,17.763699799647977,22.84611153771005,31.17912816878723,35.348154110417624,33.56310273291068,31.056466964574177,30.78514115997216,33.2256024112639,36.986010278619204,37.58055108273763,48.0,112.0,79.0
33.07620252652995,29.709291547199417,24.49951674904227,18.640962783110194,17.055006393557257,18.840537657655688,17.317237920102176,9.710366934700904,-0.6432900799838509,-8.944150535199768,-15.184406707051078,-21.54424658751121,-28.04262537348502,-35.20002293019277,-42.69085986879803,-48.66880188814815,-53.7086690017987,-60.464343234109,-69.83671389503597,-75.90463725844566,-65.51734455582292,-35.50915803314788,-4.56810940804318,9.718068216821745,10.44006969907812,12.017420558181614,21.811352967136706,32.52120639543629,35.953014373259336,34.77893917212888,33.854043353818376,34.453476543762214,35.67124272638067,36.34562398080102,37.43148784102397,38.01138183278246,34.22642828264343,27.76793864393423,22.94735096387705,18.73114224358099,14.562854788536365,12.637592796283002,11.52257044629574,5.685212882263043,-4.1891672731593665,-11.033821306984896,-14.991478104531728,-19.8901647257976,-25.347359995341268,-31.293383277922068,-37.025555356858845,-42.40608495232768,-50.052973127713415,-61.15970997870353,-72.46768843515423,-74.1200497427256,-55.73555780568332,-24.171653108184532,0.06840904094542889,7.670651942495469,8.560030324901401,14.141162202024711,25.036993574715428,35.401001404062924,38.83907300108819,34.67276970218024,31.06591757111084,35.98139718618405,44.872024425661614,48.06204993437621,44.84731605695156,40.19332418567184,36.072823843067866,32.33098328479257,29.252614035742518,25.866025294781966,21.034018870031463,15.47647592851071,10.695096723412203,6.787192154579828,1.7192275981328604,-5.667046812409476,-13.325866256395857,-18.74551723998199,-22.23661911680685,-26.185228503140056,-33.39080747268692,-42.76586407669099,-49.31241806329981,-53.10763167100392,-58.10587609774322,-67.96121314299239,-82.16191236671796,-89.8087941816805,-74.57140310660951,-38.145814736091,-5.7689563952720135,6.262626817478976,6.390434649840115,9.94192407467468,20.989281866902484,34.12917328805344,43.978970902087575,47.5030345541455,45.32199451619029,43.28005583349019,44.889054139225856,47.475903643077515,48.67666846852729,48.79599128352435,47.964572004535036,44.65546965200495,38.645236150450074,32.48512771994528,26.926015169792976,21.712279774916926,18.203468763666727,16.71937094511112,14.49517137640098,8.882548968478067,1.2186520797147196,-5.3392143870391475,-11.478201924597846,-18.89331851500001,-25.748097894618123,-31.537379917766376,-39.12040058597024,-47.268839670362446,-53.3626352514551,-58.18053741563598,-64.56809529165133,-75.0173822968137,-87.52614676285256,-89.5080989536375,-68.05164916116607,-31.374736071791013,-3.1070213376032,6.323797738465147,7.219568729843034,11.393128624309528,20.306024954871642,31.31993620884415,40.100856413420274,43.30675293741317,43.37122193239783,43.369263882506154,42.94520963619689,40.848033591430486,38.34581739787876,37.25791201809403,36.597230947469804,36.54854526593502,37.58940394293688,35.371245009940296,28.691187045812338,23.98145453596198,22.983906353600883,20.061040080872903,13.181104634345537,6.202486851299331,1.3246085163847947,-3.945190153316781,-11.344063873849487,-17.262518415984243,-20.44306017381406,-25.838544388836613,-35.367299371823606,-45.510835759753554,-53.14628256903369,-58.093478938429335,-63.41258032438002,-72.685491617962,-79.68096346462673,-67.89080231897465,-35.528636871827395,-3.2995182661495672,13.165123716456662,16.872557740833255,18.645137565554176,25.21797766346634,33.09195980564461,35.2588674608336,32.69113306996311,30.718670215052033,31.203214255124678,34.349862885090886,37.65406142806467,36.88728794101612,33.20665132596735,29.32418246657376,23.526976031545612,15.715020897234783,10.779166487874493,13.818623642617299,21.510699941573623,23.059379737756068,16.082766850991373,8.543423982084827,3.1791349634115775,-5.178074958427132,-18.379262422428454,-30.29560182727733,-35.93534952019998,-39.877727062273664,-46.98864910836506,-55.10375556993324,-63.39439185807349,-74.6229165811245,-84.98864633391469,-80.48097261649852,-53.042319608524984,-17.426713306136964,5.417828523311571,12.402674055448168,14.817634408376508,21.208962338068176,30.07079491790811,38.997645131347184,46.78724138606209,51.75946374626941,53.71009902075861,54.57451005437949,56.68159661285994,59.00509949918957,57.665328205681696,50.572805948899024,40.293051653168554,30.839572686834032,23.909016664193597,19.82616024736821,17.55415336338032,13.26244833763229,6.888927495326066,1.1885864917144173,-5.569725383454077,-14.410640576982573,-21.801378950266,-26.274064486707662,-31.80346170008909,-41.43727802807176,-52.610166525594245,-60.455125893457435,-64.37228874097835,-69.04834834842941,-79.3834638203412,-91.84768424456499,-91.2117005830549,-66.32757651437792,-28.64958127998383,-1.2842282980300754,48.0,112.0,79.0
28.406024453190717,37.30175122326252,38.20329327962289,33.07416862963516,31.540782158701877,38.63767310771663,46.62506680855653,47.57914695242176,43.47346954934549,38.961755724210526,34.935280798636335,31.386381670416277,28.376805540227245,24.62721357744489,19.428858585666582,13.967869997953294,9.536435616270195,5.55009849182208,-0.21456030526188213,-7.99294011482302,-15.171407683951399,-19.8669517599418,-23.199807928569037,-27.850092851957307,-36.10294773844231,-45.0854282346312,-50.53340486624547,-54.24623476050705,-60.338336288456496,-71.87046637501463,-85.8065462209322,-88.26051181367696,-65.34869085979412,-27.179436792317436,-0.1814806410155963,6.755128226775122,6.608274740730268,12.519679827191252,24.861659279041568,37.481839807493806,45.72638514180308,47.26837617104286,44.43092960780044,43.40839535006174,45.7064469527683,47.980034567095814,48.78776980232003,48.69686958432109,47.339150724540886,43.1068892662532,36.77927317441782,30.85547707657416,25.344936717389977,20.456360639771894,17.637052568717717,16.317741878885222,13.253532049539526,6.711486579153969,-0.8474923121168412,-7.0376512273100635,-13.504913253324075,-21.056088833904454,-27.40256885073034,-33.48852396867617,-41.57568510110548,-49.27746690836199,-54.76867860658711,-59.73745030277654,-67.10395478434542,-78.76339566483296,-89.95258014206391,-85.86823752972619,-58.02556811492268,-21.42238105988918,1.379736850886936,6.7645898533053055,7.853710239425553,13.582114350371441,23.415162764476978,34.32659507302367,41.58573764591908,43.46253980865701,43.32699063052783,43.373144179695785,42.50913035873009,40.05244160317781,37.882022993286625,37.08632791919449,36.43192169914735,36.85027712514086,37.512994670210546,33.686897765943534,26.850414118251816,23.502402352500837,22.582698789802937,18.363399554187733,10.984514078301899,4.61655295126117,0.01009432095180891,-5.943945402876532,-13.406896532672759,-18.304029385565485,-21.551027497054825,-28.267537640283106,-38.422487010387194,-48.04020576463651,-54.780326667570215,-59.380826172427255,-65.67007915189457,-75.61682044168883,-78.81677192289571,-59.989076235177826,-25.160236323890796,3.2475361197245864,15.092828282098575,17.12689399451307,20.007598151764576,27.727758264125725,34.45774971705326,34.742288620179124,31.906228026380415,30.588316077204176,31.862565068571314,35.510174976736955,37.93126216538063,35.938032009636785,32.11350711467905,27.95448355794952,21.333575434501107,13.706265061869821,10.754060105250117,16.011948268328943,22.986450462287223,21.639242237210283,13.626498591939972,6.934662392540062,1.3080612715218098,-8.641837000267747,-22.32450913007669,-32.533930724512054,-36.90512106926547,-41.604873696750715,-49.38095519975925,-57.362515296071756,-66.2816579790059,-78.1938967601264,-85.90142085256088,-74.70510761201078,-42.48312925889341,-8.970636091996875,8.704615176746618,12.991548754320194,16.18295978920668,23.686505861050172,32.67673439347369,41.450260094523856,48.55910762624445,52.59091964222653,53.938166267428464,55.01838715330574,57.47998727683664,59.16545934219779,56.176607786565626,47.73307687168247,37.34727644759532,28.563033205648047,22.42343198928006,19.13000593545974,16.660754838000415,11.473889459157743,5.160288564380869,-0.5146946366583585,-8.010541445178687,-16.873868016219603,-23.289489733659806,-27.54123286111583,-34.169462315356334,-44.74207927922345,-55.3662375548593,-61.85586333755937,-65.37068088327112,-71.36491303786858,-83.27463819893832,-93.79479035723496,-86.49444536222003,-55.687847662763325,-18.90699744515403,3.1011618956478526,9.596998710930833,12.212303271628544,18.642911716249014,30.03279149409056,43.138597393555,51.55972559136742,51.54231963695589,47.6828977565098,47.185336626660686,50.42974663643541,53.501590474696954,53.423829398613684,48.56052039151379,41.60003357012751,36.54135994056205,32.44109483294425,27.74645921909958,23.43539854119984,18.65037458690124,11.672311534810454,5.568462942636983,2.6031628398913833,-2.0655822914791644,-11.508504833680625,-22.322026774658095,-31.227636121157104,-39.17809106076409,-48.92138845619298,-59.29298461174353,-66.11834539820188,-71.40086423305202,-81.03832352297349,-92.26464650592007,-89.18637546958598,-59.509050088764106,-19.55664817977163,1.9690447466190075,3.298101281529501,6.124725751021824,22.3180842664376,42.41827015836432,53.39434516449088,53.375125002658436,49.43246725259757,48.0991927057928,50.11206906524495,51.82389066486142,51.13477955027451,48.79323846907027,43.496451187790626,35.80276672006252,30.144804129474757,28.085940977527336,27.408324949374197,23.983320110650574,16.268246821963718,7.9726404832178,2.6769558610541377,-1.6347480904439429,-9.204473352735658,-19.04196702227722,-27.02016728243211,48.0,112.0,79.0
-29.018841248014258,-35.655597465854285,-43.98774888139199,-51.0746797530588,-56.12619554763323,-61.495920253475944,-70.03919683885624,-82.55756391885218,-91.06903360844765,-80.05545096375886,-47.20813214680371,-12.777164926287202,4.285729383161607,6.89486526709872,8.948537818467887,16.116562256372838,26.634238717412188,37.005999633223546,42.577936759614964,43.46373963374479,43.32543797701913,43.29596421854916,41.918502277057534,39.28473294294341,37.56052975512275,36.89798444045225,36.368580443384104,37.21584197567448,37.008523724617966,31.702479747977065,25.370903792407795,23.264598305353772,21.851083810946058,16.371792638753828,8.902106784880822,3.2100743736641566,-1.4398418052567945,-8.111545973265592,-15.210271486650862,-19.169419772223016,-22.997190579890386,-31.01171138107125,-41.41661387584311,-50.31043260086786,-56.21253234191839,-60.810664218872645,-68.32860154512935,-78.04650227133219,-75.93740988352941,-50.61906709862815,-15.439865365051693,8.289277237425235,16.183181411615337,17.49653281338298,21.85355140260884,30.152169978083123,35.207385157588526,33.96380557334329,31.28064063219909,30.67158066995186,32.750771982139504,36.57030594490248,37.784436373606276,34.84927289817526,31.029830663442578,26.344699506556857,19.02595878922401,12.095582333880902,11.49432239520509,18.385099204519292,23.665847136737455,19.612826249479504,11.35518650919312,5.454180594256356,-0.9720412421160634,-12.474354953828701,-25.94138972694872,-34.20872474461856,-37.937755576436345,-43.64033244628746,-51.75095126224035,-59.682034497757584,-69.49007848302266,-81.48281304039293,-85.14973247130796,-66.98801959660196,-31.850049491762892,-1.9873517661858213,10.804231594917816,13.550042398766756,17.97533639887895,26.26108918157832,35.270635197496446,43.76328076225557,50.061984855343084,53.181812091225616,54.148625458441614,55.607265118878544,58.227658870198596,58.9124385969059,54.19773202323853,44.73358085453495,34.55702735952564,26.5074676230369,21.189954029365573,18.525187066327135,15.488914501445866,9.591374635456853,3.5290524863806247,-2.399192952246535,-10.596485996999263,-19.097159837621156,-24.56101602563538,-29.032332153653833,-36.9074166991843,-48.0534467959622,-57.73534263088951,-62.97732777696024,-66.58496250103325,-74.25191783437292,-87.12996372612362,-94.1812015893571,-79.62784888303591,-44.52520491936995,-10.56343773957509,6.107693230988557,10.263099627821084,13.530325116561393,21.493250868416904,33.88496899270832,46.35208370487365,52.37413377745284,50.45047331142323,47.01377987958228,47.90328031598617,51.48897633741365,53.91753162353828,52.493095996692524,46.53562441316546,39.883674934931705,35.38814642925676,31.120237847449445,26.431409310446163,22.220357087649827,16.82992237545767,9.591805668192688,4.502266975632993,1.7001446694755926,-4.365051498369601,-14.71007464169017,-25.122604490323745,-33.49627497657244,-41.7354445030781,-52.0630834603759,-61.71209045413144,-67.51173751618364,-73.5985568517143,-84.61428935213483,-93.72326132739926,-83.25714001154806,-47.59072725846545,-10.65427653597999,3.6289339787635866,3.0003878638426604,9.534579048850038,28.42778718373701,46.8594402936091,54.29491458363562,52.265017717135706,48.62815350801156,48.45327422680195,50.818312792820045,51.84164743604293,50.63547040488859,47.648172706992554,41.34282128407963,33.79406589922616,29.226640044993314,27.913316032131664,26.87475991665991,22.105965022262758,13.705442008178577,6.100140893654428,1.55735345764285,-3.404412850045474,-12.002595952293252,-21.666129137240418,-28.806943679043233,-35.117877850508506,-44.35489460829033,-54.58062001695066,-61.95584310499485,-67.95085165986299,-78.23922185522969,-93.29564235706458,-97.47909877000555,-73.77827135727497,-33.85485708236296,-6.216812426152339,1.8565190583589952,4.131699349919116,13.245467771752425,27.588202291252415,38.0786713599384,41.7152731845593,43.64378012787734,47.00038734770486,49.94731652857274,52.32879648182848,53.485386653197715,52.44701236043654,50.88330995787147,49.188411010003136,45.57391447347343,40.150734865143804,32.9889322338167,25.460156265945965,21.32791769562958,17.881851143605434,10.933484083741899,4.211296945746117,-0.682197026129483,-8.142085855867554,-19.27888890935442,-28.786397009598037,-35.105816164872934,-43.52881785824419,-53.97373740789238,-61.307434897645365,-68.16099724783543,-79.27148919688219,-90.13600834425971,-85.29400817744856,-55.29390727928745,-17.17783585101195,3.1687937801113826,4.096844742631245,4.3773727951182515,15.062113028164688,29.09322371886147,37.445872862791674,40.150185488974834,41.11689414262547,43.843823336414665,48.282794131738605,51.196370909198315,49.06020413662238,41.6845806172909,33.9171041309095,29.31610378063956,48.0,112.0,79.0
37.24558264705372,33.7214260051097,29.89109871241002,24.47271481631976,16.729553988784073,11.040824476735958,12.94731484182038,20.61742043778152,23.45302766425112,17.230002467789838,9.363959678517178,3.9380961254244387,-3.7360135511861867,-16.508722701393513,-29.057558588699848,-35.45393351544754,-39.19447611462738,-45.90100602906151,-54.058564798858036,-62.16608954404356,-72.96707632249274,-84.1133140010943,-82.43768248806477,-57.70381057612851,-21.756004624760003,3.432899686175618,12.032592856524325,14.333352789208433,20.126174645461557,28.867544285506693,37.83470383549851,45.88524469856626,51.287312958633564,53.57685782162545,54.41578008255871,56.32248333692543,58.817391553096826,58.17738305634004,51.79625123160934,41.68619721099374,31.963281459072814,24.675689263484006,20.20487597564468,17.891207293158498,14.024486154474431,7.72304616269851,1.935325689947567,-4.514460243741858,-13.221238842000833,-21.019994276691452,-25.731226395572932,-30.84355645392001,-39.95524418918703,-51.22841111128229,-59.68958963230498,-63.9413342512851,-68.16305397831589,-77.66732211665158,-90.54631803285744,-92.64060450356904,-70.87653869018506,-33.507570269299755,-3.8321702193130225,8.033262534563404,10.90836483646481,15.275414819023283,24.738502633543686,37.76576609997835,48.98996657031495,52.46343785417877,49.23497647692162,46.7711579601603,48.855127991670884,52.43974284206574,54.00579701003898,51.14325810313143,44.459824111721716,38.393476771933244,34.23487116419639,29.74946879504229,25.18194906869555,20.90386408654763,14.807079477060446,7.724122114742778,3.680078539897283,0.48096449016081366,-7.063738698551265,-17.895082903930426,-27.724959985684762,-35.74613654083328,-44.51186637944241,-55.15525172871928,-63.74504125376975,-68.92179767303871,-76.29177964793499,-88.12296419781366,-93.47575757028369,-74.97522250638117,-35.56375741495403,-3.9054789713664264,3.9437658518316865,3.440821517817205,14.113936720443874,34.46958054269676,50.290566160434295,54.362767183944634,51.045366628707285,48.15538351794789,49.04365278584594,51.383586105836464,51.66132137476694,50.01538414137811,46.191933809161725,39.06549821552788,32.07101922259389,28.597150514099102,27.776886140007488,25.997404547121565,19.891039082432847,11.224561190756422,4.5314489512246885,0.4009298582278118,-5.526933657329013,-14.897472254059878,-24.035947922422626,-30.503553925994503,-37.439511595748726,-47.42871151411203,-57.063528484491854,-63.613397151705186,-70.23460608570274,-82.46624726560864,-96.64379200430129,-93.67343195880493,-62.582480561471634,-23.69574160521524,-2.278721358442625,2.355306162003497,5.838704637012268,17.256183288796606,31.33592467831337,39.70648484227159,42.16576177699796,44.52384093816095,47.95264433927847,50.66871175352512,52.876085050601034,53.37360380035828,51.961083687291925,50.48583975200101,48.383501204068274,44.15702616565059,38.280652334712876,30.66829772311556,23.854121175673093,20.571624465244394,16.185985989031312,8.741664601946367,2.7535133562336362,-2.378065251961531,-11.145495925741427,-22.44429786307101,-30.751697406496667,-37.123696814591504,-46.60216587406507,-56.483081876741124,-63.04232579956957,-70.89372296861426,-82.96844374224789,-91.12796988067757,-79.00183453723642,-43.77968976525546,-8.795350075252903,4.758170476489316,3.3878578664040266,6.44141993606442,19.316890826853978,32.24352187292543,38.64900795320488,40.42604400923112,41.632549859172855,45.06607879668817,49.44784669562162,51.218126313274496,47.312195896495226,39.235728987532625,32.24172887649812,28.444506448333268,25.18938429202063,19.52185291251493,11.67698952967507,4.140773706498777,-2.7963416759024176,-9.2368519010718,-13.770455135317603,-19.726385694365355,-28.887873600750734,-37.07313450246636,-44.1971590839494,-53.22539132137079,-64.13652640293328,-74.79396805307624,-77.25003336520251,-61.32018048154942,-30.706754992495185,-4.170572358207051,6.9851689601055815,8.869218522969469,13.04274094216834,23.96777341640489,36.33026825866666,43.20429100278361,44.10593620736878,44.0217259845071,46.38836381693691,49.77028651446251,50.09563751694671,45.93043049346657,40.78213068936838,37.685066936541695,35.40357557396948,31.01563295450468,24.89465612290845,19.03220627065448,13.657451332287476,9.005251621911178,3.0880250726077816,-7.1742420490738725,-17.964392617084183,-23.938289850022894,-28.811962617212384,-37.386770468530024,-48.56718709881022,-59.301785344779084,-66.93004559218025,-72.11703267019877,-80.85861984080786,-94.27962036362048,-96.97695349828834,-73.67506946247046,-35.425085911872316,-6.411720531415328,4.023049282685067,5.522857701160055,11.984442731859879,26.59251659844188,42.58851807546223,51.49167181606649,52.21405557360498,51.81723615267818,48.0,112.0,79.0
1.265882143541626,9.212948351017836,11.73212793798329,17.475335413366736,28.305976869677018,41.509316277222666,50.92472199715023,51.94232333612115,48.114639000242036,46.96341447958718,49.925906203352504,53.2176956993121,53.70547900789444,49.43818761443547,42.464235351148346,37.09482369801632,33.02511189970043,28.371724795536714,23.982895873706067,19.41194808910668,12.6654803105308,6.168806466059821,2.954228380570288,-1.1566685763451048,-10.061030324418109,-20.964414766600708,-30.153665190684002,-38.0636033323268,-47.49447830748052,-58.05518744250666,-65.43015239451464,-70.5387136120794,-79.45471748623267,-91.15748270716662,-91.08935877745063,-64.72696082849778,-24.289214603202264,0.600778079033053,3.543250657380464,4.98563530141765,19.590938044926425,40.07085187795125,52.65544023536052,53.7928192775024,49.897221097206675,48.03779756473648,49.766541963542664,51.73902815442136,51.32871265902509,49.22931778360411,44.414275111165175,36.80310340114006,30.675593610848104,28.204915812044074,27.564568542446175,24.715529670751813,17.441901758323393,8.937903530384606,3.2200511193333563,-0.9303215330948599,-7.9801966175699315,-17.763211361945746,-26.134991597411158,-32.24167139144086,-40.071660127234516,-50.46436317911124,-59.24284196712779,-65.25520724794089,-73.04368535260882,-86.98947586324164,-98.51630174493621,-87.25672754619424,-50.70145793730125,-15.214285882830644,0.16272103118078252,2.8093689256573087,8.323085485481801,21.50433446659,34.54425504050374,40.78835212160208,42.6571342922123,45.51434623074513,48.81782717982407,51.37017034835087,53.27003165759035,53.08176441046666,51.493890242022786,50.044954802047144,47.37664727081794,42.61891017024943,36.241438338398545,28.40064492162083,22.618792697228393,19.695766873749026,14.17200802921836,6.724318078636708,1.3990289588930978,-4.424171182196147,-14.402577196976422,-25.30048847919961,-32.517665485413985,-39.47353148145252,-49.72258209631726,-58.632400425442945,-64.9033974742365,-74.05664529094639,-86.41326901658479,-90.33730049841353,-70.5621389624369,-32.30471526297824,-2.4246615548142008,5.009174085787171,3.16624036674611,9.444183093955155,23.535845302700565,34.784637160965275,39.459947015671055,40.65719776888463,42.3692690813857,46.37927695377328,50.395570819278674,50.73154594769011,45.1846673009107,36.90325297937628,30.87078262916925,27.617761770833283,23.86194886436208,17.375987714150142,9.384256907854786,2.136077142707888,-4.799061440181494,-10.70229467113402,-15.119912384882792,-22.186715339383614,-31.505980787115654,-39.076015534983426,-46.56071329750042,-56.22870498796425,-67.44328331309521,-76.87360621561177,-74.77003040927532,-53.28932996162729,-21.774637642821997,0.6319764671710505,7.939388071915585,9.43743654853402,15.592329634309218,27.76806582701897,39.05070125524245,43.90942844117776,43.943156829853564,44.43055154127949,47.42663608832725,50.34448691434202,49.265583279504746,44.340978929188516,39.65122061043046,37.08765455325552,34.42230362601663,29.3143615497833,23.138994010851782,17.42611124287361,12.24628638630717,7.614766876459562,0.5693780330019906,-10.584850570647435,-20.195250933895675,-25.142199901763586,-30.866906413133815,-40.48423732001279,-51.84630341916789,-61.904025226479256,-68.4856979562147,-73.98496685366979,-84.6166697520188,-97.1451676784215,-92.99677056356595,-63.04014037706301,-25.257410186103666,-1.6370289014847215,4.6684501917252135,6.478286507185307,15.549260491749557,31.486662044410675,46.1538485295488,52.295954727967796,51.904765791885694,52.179087197216994,54.417703211484195,56.22671284025017,56.0244907841279,53.77549546061024,50.822950052273114,47.444666321221106,43.15136101336267,38.52149007785319,34.56912017919373,30.032453822238427,23.121828514609316,14.307177539739051,4.735335968088789,-3.95020855243364,-10.368611345541902,-16.63252924317045,-25.33523729665915,-33.74560287258714,-39.91950222451498,-47.46383738954634,-56.71318440651673,-64.90363493181222,-73.43878396513313,-86.23534504009343,-97.60986896744583,-88.35553928726827,-54.48480673337861,-19.653910546264758,-1.7333087884501894,4.673970051239874,9.597883449341644,16.676198713117902,28.826873745605916,45.89572462895715,56.39510248685932,52.032502937698254,43.25328769299116,41.572954826350504,44.35272308911576,46.765347620846576,47.69893004769622,45.365560637175214,39.656621993777954,33.876222829955225,29.845438041586867,25.477170888014903,19.576644868159516,14.76656796525698,12.07997360722198,7.300421725311688,-1.587371370751247,-10.26564398409345,-15.716349851331323,-21.164405404941796,-29.96817209222249,-39.62883116981732,-46.799097966126006,-53.37878023270721,-62.57853435478293,-75.5803272689306,-86.72000056308627,-83.77370395665677,48.0,112.0,79.0
-28.001686944788027,-34.15094032791366,-42.96235091812846,-53.33767870455896,-61.14908683021446,-67.03648876113392,-76.46047530624294,-91.42177292397197,-98.35783962759079,-78.48012034228384,-38.98497206321519,-8.620568725691518,1.495511064496257,3.5854650436206263,11.547782269127879,25.722625212750135,37.11590712809601,41.47816293661922,43.291918359042434,46.53780660669616,49.60394000822419,52.04054369732328,53.466816979122875,52.664044272785304,51.067974010835485,49.49512007460451,46.18068806991943,40.9605738923847,34.04297491659939,26.321176289239354,21.690484203096894,18.53779745888084,11.9685783441286,4.948344981220882,0.010235925830708755,-6.8758163798907965,-17.752913003552603,-27.774116646190173,-34.26021078407357,-42.17839899374023,-52.69678390908426,-60.50100244107033,-67.0460225094169,-77.57422611699744,-89.19966269809876,-87.41573531863291,-60.39472086494133,-21.638370752803333,1.8590215610187966,4.46122236485487,3.7686415156707476,13.176040591886109,27.44832941845666,36.73169955479024,39.98035579796116,40.942227886757685,43.33208096417799,47.69779237721777,51.0327718522637,49.70817053285801,42.815854930554885,34.79411294705096,29.76039095118041,26.738942782787106,22.281044329078522,15.09379001741183,7.18275365642851,0.14329817208111265,-6.722139747717402,-11.991338422948878,-16.73502953873143,-24.87062259948751,-33.9186648925696,-41.075081747016014,-49.130092754624,-59.36794167310101,-70.6575098697701,-77.98941710135622,-70.53657974939034,-44.33796577003373,-13.714943689242466,4.062577073574269,8.406210172720519,10.462857170463861,18.707571325925144,31.478467310167083,41.18208347081204,44.18298163246802,43.84652730939726,45.08129797249139,48.47050863080251,50.55309998518755,48.0820198788706,42.7914456268321,38.728372265378546,36.484696558562455,33.202086526068015,27.526940240005274,21.437469391197933,15.85476371638951,10.909674880801347,6.020101464088391,-2.360872254136843,-13.84665402691174,-21.957821247940956,-26.4415950691038,-33.28584337792348,-43.72731241845074,-55.016220660043516,-64.18390861810559,-69.91146159406578,-76.34407740177552,-88.67007737328001,-98.55351348565821,-86.63595499205479,-51.73423860386548,-16.419223659639943,1.5785361678132348,4.9505832590072005,8.136338559013499,19.735287477818726,36.27336008022715,48.93474519914597,52.51050027467949,51.709573936771214,52.72609692489276,55.076967980288735,56.414758991797555,55.531816537782,52.94902207134269,49.91403910240392,46.30669677181953,41.78243779374996,37.31442795278319,33.425396261738726,28.30200256687757,20.712602187292177,11.57069283187853,2.0358614023026544,-6.023258928356487,-12.01715223037922,-18.911668559029984,-28.000282276557805,-35.65642080913264,-41.803686898874716,-50.1093911844531,-59.23100576342321,-67.14600581499411,-76.62192901082514,-90.39888741387298,-97.84189388501797,-80.39388076745185,-43.27630017173992,-12.628286623612059,0.7458132878223624,5.997520897317194,11.32928155989704,19.508198797252476,33.55574540410491,50.26763476751326,56.52754793791422,49.2033013531865,41.92806795932595,42.22726984225474,45.15986462318023,47.24326320723409,47.44138106544467,43.95709256763718,37.830793803290184,32.57347025311209,28.741931490544236,23.871085393943787,17.922714419158673,13.893351688528462,11.128542126084284,5.0543177457644255,-4.369089692547386,-12.12138018319595,-17.071114852880307,-23.348660279429232,-32.904222902366186,-41.95358839460774,-48.609128233093344,-55.64433538989083,-66.02187590620886,-79.47286171255729,-87.8477720473639,-78.99910902144497,-50.688538327807606,-16.94392422990924,3.8512375491305395,9.162886343991053,11.310140717544733,18.339272580231405,28.524824488324636,37.179505055557556,39.11081438837852,34.56657857339613,31.382286511739924,35.481278080399974,44.045835974842504,48.136183736436415,44.44120135477341,37.96896831465223,32.78419967769493,28.060890956284904,22.968460437207444,17.397065411068453,12.511609194204096,8.836203062593588,4.574752894276632,-1.7237774741014154,-9.630251582123751,-16.359663530398592,-21.970239172977326,-28.308894300293314,-36.06219005930844,-44.77232624376818,-53.40189218359013,-62.35494536323159,-70.89154977632643,-69.60540778562776,-47.912598491631655,-14.26518288753344,9.31796848597202,16.376613169708886,17.071991020558862,19.364009212944165,24.47505462128301,29.74310089094266,32.12726670992514,32.82164450460905,34.06514025841614,34.83474728578327,35.484302898232436,36.73737665685811,36.14093943619902,33.06724277920494,28.478709119116566,22.171398994197627,15.795863750724052,10.953165186191427,6.171039688306699,-0.2077573526509432,-7.191417183024424,-12.283852424713139,-16.353903244927583,-22.516214901254575,-31.06406750118771,-39.92813968885147,48.0,112.0,79.0
28.83473208755851,25.72294829426151,20.446294441810053,12.753795750449129,5.081518337704819,-1.8657177471227742,-8.489797667884183,-13.201307048865246,-18.698918967520544,-27.63109229267584,-36.11749104796873,-43.17421784071036,-51.89286645172139,-62.615178978740495,-73.5972576527234,-77.82993590462618,-64.58835669101444,-34.99333158419052,-6.865200390074467,6.292451766071293,8.705173362580492,12.08044146524149,22.24613471590621,34.89794416150396,42.70185840023418,44.16760370650618,43.915739707345885,45.93961707796644,49.40696524705848,50.34007835738469,46.6451754481793,41.37384998852017,37.98375853434817,35.78317269065161,31.751064055879617,25.720036236288628,19.782861555532318,14.334963869161433,9.610949305317034,4.104422977398129,-5.611042114153513,-16.768903493212992,-23.363635478438145,-27.988021074116173,-36.02974811756456,-47.03825214377831,-58.00462698318893,-66.13333771367908,-71.37570079093422,-79.29592083411566,-92.62739846111099,-97.99770937577895,-78.16364108086344,-40.44619041185273,-9.178644932065069,3.4885045097454035,5.267742493208138,10.587267574840668,24.36554428787329,40.71665339699344,50.874027495437325,52.35079477731965,51.72735538457,53.38876514469162,55.64360281989519,56.405591160403596,54.8896821741549,52.098810875339574,48.958701446179205,45.07934676767028,40.420434904344695,36.17746847860646,32.17338467390754,26.3457730260888,18.17872829257919,8.791826746760044,-0.5332238646898838,-7.892109456545084,-13.751461851840908,-21.423669233953472,-30.511407228489126,-37.40283404810572,-43.92295901015437,-52.82365528085333,-61.60916224302245,-69.50714179159823,-80.26479725352668,-94.12463313624208,-95.801306602481,-70.61453332157838,-32.74980200161178,-7.198540497364989,2.5778677215436767,7.371422143800843,13.281172800138204,22.867559813009308,38.60500921804883,53.68850899067464,55.3778417375126,46.442892941101164,41.339195015282385,43.069410540176676,45.87918219100531,47.57879285634127,46.852134837141094,42.306049261567836,36.10335008917476,31.415216768907722,27.53077542037068,22.146394288361602,16.459579109306862,13.161731594163768,9.862482569581902,2.4842615269412214,-6.975528307253093,-13.701321377280937,-18.552768888099333,-25.859825054141318,-35.777215316661845,-44.04058922841168,-50.45439988974666,-58.20487125798407,-69.7799509929899,-82.98033652871683,-87.4651801497294,-72.48071754213697,-40.57347107767311,-9.075734190355659,6.556797820982844,9.528733947035535,12.793647340652086,21.144078003924644,31.423652012095317,38.59644343093626,38.19888686240964,33.12305148608899,31.749270863324053,37.866290295470876,46.03333838621635,47.743754411757884,42.57211529333892,36.31657814624688,31.440993301209772,26.636850960556192,21.390523118692446,15.837298743620734,11.38588866647478,7.745004964329807,3.0086480668431044,-3.961920119789429,-11.776444663269688,-18.00277790838749,-23.673540544020423,-30.40163170623746,-38.530255973150425,-47.2973399984403,-55.89613525580777,-65.08101721859087,-72.15543463684658,-65.54916308710098,-38.44383112113236,-5.654718171342681,12.738891723072735,16.730082020152462,17.41623829709023,20.615411510777356,26.155573475630643,30.771976602083246,32.34957926327028,33.12786880164676,34.38868158387843,34.94845016356579,35.85204243103493,36.86705221424237,35.43994391223979,31.90710493273162,26.808598896126302,20.218754985560686,14.252398561974317,9.672364000180224,4.509250577694813,-2.2856449465798794,-8.912292939281908,-13.416722256166896,-17.83100098404155,-24.816265691769456,-33.69000650170172,-42.30199078518893,-50.06431519618075,-58.232053327370544,-67.65026588765127,-77.60590055020431,-80.64235694099472,-64.1642608405656,-29.565180375674558,1.488723515066038,11.903727572151986,10.384724161379737,14.742229131425033,27.626023352897928,40.830006058897645,47.30660634429902,45.11254735350776,40.69012894102676,42.9594368020442,51.23025825118107,55.79584167286964,51.753886959194034,43.580273673824315,37.18203725361981,33.71820172843768,30.56975802129063,25.78740058555439,20.33698361782724,14.924398925756961,8.902479748876269,2.849163811711529,-2.480431277957669,-8.206945410520735,-16.05902616530397,-26.791161513545298,-38.223821758740804,-46.03642014789797,-50.39048606061086,-55.43058263610689,-64.41407940653794,-77.10343882948706,-89.29794474853693,-91.11030159931137,-71.66388175456646,-36.74954240191575,-6.061420116070908,8.069767562594217,10.41652777853893,13.518379985941715,23.609521452821625,34.813479324884945,39.27338197886128,39.08042336939662,39.7065637674308,41.269756751858395,43.41543226546484,46.284030109514774,46.62019060289516,43.8387733060454,41.929780279737535,40.72977396260164,36.24799780138632,30.01878114793566,26.046166441362043,48.0,112.0,79.0
51.98559214458962,54.09523356004341,56.07914410281552,56.190842284665436,54.14291762346454,51.2307751802127,47.94009080902944,43.77314495586285,39.10461054629132,35.07772422497835,30.75489500827853,24.18123215876649,15.547350275779621,6.00743402984746,-2.920509976598128,-9.607324373935896,-15.668440353274194,-24.088189444480406,-32.7853058775812,-39.10866836591041,-46.29560824575389,-55.50768001227477,-63.87712661250885,-72.11688202964966,-84.29860221779467,-96.8522457056057,-91.27344142535571,-59.69266943538066,-23.440062195867124,-3.1846689978336165,4.051670913518301,8.86068679177269,15.52136635615602,26.812945863804796,43.664952287275185,55.86136916352876,53.23987500143496,44.11286630537272,41.38480876486868,43.95560967255519,46.50762063003948,47.718035741277994,45.91294039191212,40.50677279313042,34.53661208235575,30.337186498216656,26.164436750053188,20.379221564637547,15.242385255514115,12.445086430292122,8.204370878171787,-0.28547636043259617,-9.302025201857017,-15.099671033786557,-20.270502593147384,-28.63270125418235,-38.469311496264126,-45.953119100758784,-52.41487299371099,-61.113050612518656,-73.73754210183668,-85.77081364666687,-85.35856423632744,-64.43835200004577,-30.500526803644004,-2.6813818162287335,8.13371548415345,9.994925832939975,14.755752038317455,24.11410422958071,34.0699097663369,39.32357814941112,36.851546431500765,32.025017991992605,32.81011484231999,40.45010404564117,47.41356316439461,46.72897216876873,40.64498739518708,34.810544758766945,30.087635948539106,25.17913418754215,19.770452935719405,14.385592665245053,10.340465526606605,6.555559115194051,1.2391931021500795,-6.2838193361697785,-13.755950110309065,-19.600913935202104,-25.47353097813346,-32.61874487374352,-41.0543783490525,-49.79119759113996,-58.455990664996534,-67.71133971961564,-72.25469145519949,-59.6032240321214,-28.45444395706431,1.5802908231956683,14.884484855295817,16.86131090118112,18.007216001280685,22.083031912172096,27.754094208546025,31.50695421240251,32.51590601945959,33.50075927284728,34.62485668988984,35.103278676803626,36.255347789024746,36.75891323572977,34.56733157414924,30.624136238457467,24.992276552062354,18.32918363012209,12.849035903829769,8.333054170102574,2.6903014280146924,-4.354754665802587,-10.42004236065575,-14.537721609163404,-19.551915660478723,-27.282378549954824,-36.28275869745761,-44.588911356441855,-52.32747321538263,-60.80967641559685,-70.60482978761507,-79.78067431826055,-78.26687103829721,-55.34343591172502,-19.08441393230515,6.729061575776232,11.78113519105608,10.564383491149094,17.88489367478101,31.793765044293263,43.60196318331975,47.448966014749615,43.59675552461706,40.43714261480371,45.08987970459514,53.355901883899904,55.43863893757116,49.506103556604735,41.38814530827739,35.962105131724805,32.91058783971628,29.36238304292999,24.203028556076507,18.8010378908964,13.250588125375248,7.104379617986233,1.2426905291807415,-4.004786678032649,-10.201537899321828,-18.87547623975733,-30.229460788567298,-40.97175777791173,-47.48895246165843,-51.59167389013057,-57.54580287758162,-67.81876980132725,-80.97073850972075,-91.49817599994745,-87.84719307659178,-62.3818267816991,-26.59712037650037,-0.18862812390776817,9.418700677237645,10.737444169171578,15.770375213721602,27.195033670809,36.909201620885646,39.39214128003596,39.0702947231062,40.13801379441608,41.772246197245465,44.26643587068369,46.79376625383997,45.98580385897462,43.05720419183847,41.70144905142637,39.85613691023012,34.395896084153875,28.586641561806893,25.216800942421816,20.818388889256333,10.900344685204969,-0.8380985690500737,-5.824926416599823,-5.604784802408484,-8.909840082091902,-18.135427621053903,-29.15662695861007,-38.20804668192913,-44.68961767727346,-51.152999510602264,-59.65229810840056,-71.12636337522379,-83.53498068801375,-85.79849428943545,-65.136880132121,-29.07843100468558,-0.3348179960726862,11.767059919580182,13.528950803274684,15.330674135444628,23.296180193728134,34.49694961065917,40.356896146109605,38.283320832335896,36.0902808161543,39.038863510989046,42.49775178235243,43.653121482619014,43.879812272698054,41.63953440455457,37.402803344411296,33.99558628213925,31.34526955508227,27.422657909673802,21.330274570558597,14.641942806296294,8.890775551555144,2.8648889972958878,-5.52628353556384,-14.118980425202157,-19.061087205070056,-22.072561504594645,-27.58042376977997,-36.043485078206245,-45.91802676160317,-55.814227245512306,-63.7815727026079,-72.50431392244232,-83.46688521621749,-84.52569121176127,-62.66351006581897,-26.890426913123108,0.37473622304444393,10.0661383113324,11.202372559608126,14.98176718075637,23.839263799005856,33.610463333230726,40.042420242281224,41.246270193066664,38.48105897639283,48.0,112.0,79.0
-81.42544047541162,-55.21636076072011,-20.999887967296036,2.1419123131917917,8.942496911545637,10.79202044214749,17.130913804553117,27.14141301736564,36.31746501177949,39.33468576592615,35.29123046694237,31.44240953204139,34.513259638305755,42.973995265506744,48.0789622508899,45.23970314507948,38.78332274123343,33.40972819611175,28.707329470583396,23.67798422234713,18.13973738909388,13.070767929029211,9.31687928848076,5.2356837176679765,-0.7432953721143851,-8.593870806040814,-15.570072767169705,-21.211069745954816,-27.38624443763267,-34.95195279706173,-43.60017699070417,-52.262667467701306,-61.106006197973706,-70.01928748659643,-70.8427816658047,-51.93330963021267,-18.595123065160653,7.24268130510323,16.065648327904448,16.97954983584695,18.872645540939537,23.701244742792863,29.172256002095235,31.97946685413662,32.70878990967026,33.89334300320238,34.78030188792647,35.341834338076936,36.61330003353904,36.39257754706771,33.56571568637297,29.19337134306018,23.07357719060882,16.560498955003528,11.540897583050343,6.885099883846972,0.731425458128496,-6.331730631675275,-11.73131118538498,-15.744420585084272,-21.525780085235027,-29.857064306383744,-38.80002325118486,-46.82027576330643,-54.65941123606281,-63.50378684219597,-73.57506450271755,-81.08377486186228,-73.96028844069873,-45.27709934643725,-9.58168596172949,10.035523241073477,11.145370794080172,11.596125522436001,21.613442084804074,35.759890999812924,45.676254968726745,46.8800878207776,42.147074439816876,40.92435591177189,47.56870570312933,54.89517477933039,54.35838610492196,47.08574091140904,39.46165076834286,34.95726150334619,32.04821773314215,27.996344806429097,22.6149923798878,17.2564602750165,11.51383991415909,5.332901427910049,-0.2941642748889952,-5.612617138691816,-12.40711451814866,-21.94476339983405,-33.62301101049571,-43.32025248241432,-48.7261126926375,-52.958438113706585,-60.05241012299228,-71.48156488426184,-84.67105965600612,-92.50264266749737,-82.60592549158953,-52.17949421547875,-17.322885788048804,4.162822688207891,10.055624589101363,11.4371055220224,18.64190953053634,30.615881883919037,38.314721064235016,39.28678930972398,39.224361161829464,40.59339340845958,42.35598143853692,45.14958442630892,46.9832216000741,45.14947072070097,42.46115839615269,41.44390773061817,38.618891542774485,32.52230428069751,27.408850480166763,24.31326766456028,18.572494411399656,7.267304743901109,-3.1724077365339296,-5.912238687437301,-5.89927052723117,-11.099035975116648,-21.342451834285434,-32.078883324727755,-40.26217311851878,-46.43657457068042,-53.3454394643864,-62.64356769736348,-74.90270629772454,-85.9446196646484,-82.38838104481249,-55.308128574350356,-19.2043528667888,4.779012091889519,12.873101230862822,13.635361609537576,16.9439680409826,26.553452089295455,37.07657335440392,40.36370389392313,37.23126203505551,36.48856205134565,40.26249126254792,42.99491024197664,43.82988209684173,43.564590912933404,40.47891965337528,36.26755578225014,33.230412331493575,30.431780332291467,25.8508564516238,19.360333810949452,12.874379298359194,7.3029905842032345,0.6945275442597073,-8.204161057896526,-15.979382401183138,-19.905668646219198,-23.293624780961963,-29.799711364956593,-38.79773636408807,-48.875808632243725,-58.324321416074675,-65.9842002049731,-75.69852553379417,-85.60271627185358,-80.66736647111567,-52.77324337121534,-17.31104936542389,4.811923767209329,10.671963479340185,11.724273045472852,17.14232513302695,26.795531346535334,35.94119773947173,40.946050695166726,40.69064188550804,37.617983629159326,37.28541599836488,41.28994207665288,42.71047937424821,37.2835403954333,31.588920675659267,30.567526238633732,29.492846393349446,23.609699314623636,15.521234690990196,10.970908990988345,9.876859605798176,6.49359696777175,-0.9489976730678349,-7.689462522607859,-10.115111011840414,-11.005877531514383,-16.350828810866858,-27.2987644798116,-38.801104612036326,-45.579810199684346,-48.235028968653765,-51.905668880248164,-60.2540387010726,-68.62271731533643,-60.869650096741346,-28.7880857662712,7.430704181742993,25.51358854876286,28.15416664772666,27.728006119507,30.58499808917729,37.68481093044657,44.149666863460865,45.72850595631281,45.21919001605271,45.81161656237274,47.64856337563582,49.97527150714803,50.53285618941788,46.813714171988885,39.84647165860997,32.99995193345093,25.744756419519398,12.851731571405479,-1.447385899964503,-7.290748916546416,-8.065281519182632,-15.128305293307564,-28.70040906106594,-40.9835239133471,-50.49210377723355,-61.18663454100954,-74.52712252260643,-87.56486915107048,-99.33136746934056,-113.6075087246758,-125.9896174398888,-119.21784061250841,-92.03711344039363,-70.79293900506818,-65.91116406293504,-44.4032032700544,48.0,112.0,79.0
-41.219648321321756,-49.03651071574543,-57.08108366507992,-66.31616861866087,-76.40902867938699,-81.13734285686826,-67.68526954898762,-34.549346806522514,-1.586786416951768,11.63372143565503,10.532198330533822,13.547638927724755,25.693263784529996,39.34639237882886,46.97696496194448,45.75689303946679,41.02970204692125,42.16022237043573,50.11512480337625,55.695271975285095,52.68270770920069,44.660216738415826,37.833529192119045,34.092471313339836,31.07079405495375,26.504119156741087,21.049750587701666,15.673614707157402,9.731922587396623,3.6162675923746344,-1.7912182874477212,-7.350850034116221,-14.848420711194985,-25.226972145398957,-36.83668062490541,-45.264584814785046,-49.86572355494014,-54.577854467429994,-62.9526791873663,-75.31111691652688,-87.98128938557296,-91.96135413488507,-75.4971506725432,-41.60059901925769,-9.284298835862572,7.117433086077932,10.323720639849208,12.708789320302234,21.977328408011186,33.62157092139291,39.091138909270185,39.13094841762239,39.52877105605273,41.05305029934201,43.05381461442669,45.963767788464146,46.81455600557113,44.24316980164519,42.061191746591746,41.01766222021888,37.054021360923024,30.762693900873714,26.443359337218013,23.181038633005954,15.783263947584363,3.6971779771276823,-4.761347555389062,-5.7492334260781615,-6.700221507610062,-13.735670341438322,-24.577447802939528,-34.76296662778149,-42.130838500337035,-48.25761333297107,-55.74031766335969,-65.90610317696883,-78.65692731307783,-87.12177605705745,-76.81713067818485,-44.676899022593474,-10.49266632439939,8.490949835067935,13.361455805277332,13.99536272318637,19.151048040468226,29.912156713853005,38.98147675180733,39.766060140630614,36.4373597949679,37.332492080611395,41.34432326932762,43.32368287189964,43.947750055079126,42.976248024476924,39.22170894485764,35.25839186410163,32.49187136988992,29.354456447448623,24.103631485287977,17.39769305789176,11.20756697345705,5.626115399915626,-1.7086564296325875,-10.784460911306804,-17.4654763400712,-20.70530667530527,-24.813844883123338,-32.22537592195815,-41.6423298474355,-51.79038576942902,-60.62886947386147,-68.39737365863871,-79.02637803682947,-86.4536372799739,-74.70073446282301,-42.211288726344144,-8.993431387800516,7.7901950736542,10.902037661464314,12.681653300773874,19.68526993521288,29.696913337194154,37.91138483347675,41.3877162692096,39.87187154338972,37.00866840481113,38.17525992119745,42.35566777012743,41.71550638727199,35.26198430395904,30.883429127339795,30.578805684611876,28.321277970926488,21.21652109465162,13.68420827050433,10.515157851080959,9.370068831550784,4.621561382152893,-3.220128577496139,-8.844847380321328,-10.250688732567403,-11.900509681165918,-19.076878494688508,-30.86254809653092,-41.35571106776259,-46.57780306305965,-48.95027350520741,-53.81767093974221,-63.209867788557766,-68.85180746556385,-53.71189926145747,-17.40303105264024,14.867131489863105,27.26538768627995,27.93950591541599,28.07641323662623,32.31126191387875,39.92312759352703,45.09535662829431,45.58729748512361,45.232542387409865,46.24148091611785,48.32524903647236,50.46758326621635,49.93081871148781,44.99410544286234,37.73515879095158,31.17894211619973,22.702836093976572,8.339879241303102,-4.190261131867554,-7.49357726016606,-9.145051121039943,-18.728667726832594,-32.628702462782066,-43.86749209353389,-53.29645500335662,-64.84682443424477,-78.47869224543143,-90.96783945007016,-103.07524438341919,-118.03740264924932,-126.6862754998779,-112.60677752185492,-84.02874303390418,-68.47273138094627,-63.41420025165974,-29.871942785849676,43.425767013772635,110.40598048388935,130.7330196688865,117.459622559109,102.53733409428072,94.73543594974956,84.33910557267048,66.61486954159163,48.77222214153432,38.710610392623195,31.468236788909476,16.357048448788262,-1.881180610727316,-3.660090916688298,20.915709599248032,53.74592395777838,66.64861841268988,55.27855642517408,37.9736195431001,26.55458092475074,15.69108198708688,-2.2415569537897224,-25.907505223192135,-51.29065655776099,-78.0918062348158,-100.60010926352845,-104.89065203088528,-84.03569613519142,-52.55573487776018,-31.422899108082127,-25.02719697799646,-22.537862774409493,-14.630052428371556,-0.9475069520734063,11.81785819718837,16.301792969807522,15.312364777691966,17.44219083439176,22.63763559781965,25.02618342863908,22.455495656395765,16.414679986361506,9.217071968876274,6.210627338034142,17.375874988000465,40.347660865865876,56.75086688818728,56.08295903549172,41.82649165475023,23.150015737456904,8.569167458479859,-1.66351977274826,-12.620343783239838,-25.74275801573744,-38.81876354654786,-48.13187758203328,-52.868185497918475,-59.47798175826725,-73.06629256163326,-84.70614820438311,-78.24678671076208,-51.10996586842909,48.0,112.0,79.0
25.59933871857021,21.673345289163443,12.52114622335777,0.4681620998934826,-5.631737023500003,-5.59991470890695,-8.079169407943006,-16.696682156500717,-27.74346350778201,-37.18166543739092,-43.89152580118601,-50.20328111734822,-58.36138489780824,-69.42868418556829,-82.12544106028538,-86.65950115009875,-69.22410417177102,-33.911074225655256,-3.194168132593534,10.974526396455596,13.505314131583415,14.785957685749452,21.889349903798315,33.129466114371404,40.10624168632162,38.7886241105706,36.080836838916845,38.4688634934564,42.19238406322599,43.55998335186955,43.94393926185981,42.11595599072262,37.96223208084133,34.370955338143865,31.724761733579363,28.0800826466372,22.225382258415642,15.491508774325077,9.614455314228515,3.7852507661077035,-4.295978455114041,-13.138644791736645,-18.617807717371292,-21.59737395213221,-26.64127720077745,-34.80931145652701,-44.557824503296196,-54.58547640168896,-62.79553035465927,-71.12871787735136,-82.18215011807712,-85.59055533711096,-66.82943057988042,-31.615906422683622,-2.2072803460433437,9.565190269618858,11.07122133400476,14.140180056688745,22.492373030345068,32.43189093566934,39.47143192480774,41.385079749704616,38.92146267709473,36.78297540617307,39.38011648533575,42.960982819819854,40.15681973932824,33.468730737866885,30.583967116558714,30.397108391381806,26.687150209867163,18.78517463666893,12.268147584951457,10.257501253330798,8.509651525635949,2.4542775194742923,-5.279851089505684,-9.597443304846456,-10.399928014716023,-13.305145904514763,-22.225000261441334,-34.30430284933304,-43.41923952193889,-47.31970689175223,-49.89279311895467,-56.1759246944259,-65.94106040706654,-67.22677221256772,-44.56301082384,-6.446607419890714,20.449837054118262,28.042040927068694,27.730536732617683,28.79339037305124,34.36697656882753,41.92752430493139,45.59679140196786,45.39857939210134,45.376690113069806,46.75977616613599,49.02465289789422,50.72898593033373,48.93207406562082,42.96898188665195,35.727021100922,29.22687662693293,19.05679729002188,3.981953308305762,-6.034585224310804,-7.541871462786146,-11.004372903358032,-22.70882209973037,-36.26511915891704,-46.58140664950612,-56.309838782547835,-68.70981364297091,-82.3020103433887,-94.30266421672228,-107.15655356930662,-122.0261751539383,-125.28526931308396,-104.6068443877365,-77.34496472152037,-67.34642427344806,-58.32851744274739,-11.54142634942105,66.05495793728292,121.47013766665769,128.7658016153585,112.36227188617755,99.84772266681308,92.45869974426823,79.8275688661653,60.989603855053105,44.98620017760122,36.88641869990165,28.126586124551373,10.657896000752485,-4.953602201436279,0.9856157966300461,30.949592259895713,60.347913093729154,65.24238758612971,50.011536495855246,34.05905737696461,23.81369641284173,11.356802835127844,-8.734714320403624,-33.109464801070914,-58.941197782247315,-85.56228537404732,-104.34846302346457,-101.21192303724553,-74.97125012397288,-44.77609921384203,-28.39150908831093,-24.473765548996056,-20.9900164067773,-11.081302807890793,3.245104692002722,14.095197005726178,16.15597674527152,15.384274882993862,18.889385999161867,23.814875548015802,24.76586839587155,20.964791800389378,14.337629869690245,7.489301903278088,7.659671010269232,23.487045390908634,46.55649407216685,58.339607245512596,53.0138789649943,36.423450450331515,18.30981739163082,5.387183456508795,-4.587926233391396,-16.244450375816708,-29.676689238196488,-42.05088822170009,-49.813883577385496,-54.19056629774147,-62.77072866252809,-77.38564375217167,-85.2184727717245,-72.09053525415884,-41.44829670866753,-12.188727739246243,1.7805810558454351,5.467976283988103,11.177256889252744,22.451824275132484,34.52488422641674,40.51557345307574,38.41426525709175,35.082089147773075,37.282939177357164,43.406081015225055,45.65979653427202,41.50846319285029,36.10119008261492,33.27372538399944,32.33164242341013,30.029681060646773,24.50393584910822,17.69603243029692,12.244347161743894,7.473413004769181,1.2229939640953336,-5.389660170705559,-10.62317610446468,-18.42044346657616,-31.038057225381444,-41.689028061547,-45.994480769421195,-50.86560310626043,-61.49539207928236,-71.71832825488497,-70.81567377910497,-52.21649859100235,-22.278911968405716,1.8542365374099845,9.554712483425897,7.7867057931633825,11.62364883756272,23.561256721151672,33.69989885021319,36.67014381834367,36.130996844467916,36.46403026827344,38.62713086875811,40.98043498511159,40.234825872932404,36.09915702330531,31.3729870310605,27.09190471978384,23.06100791220678,20.36903317019104,18.349801927545343,13.517910481372095,6.46318669366383,1.1490620582431001,-3.320399345002982,-11.057226703622714,-21.26506261126656,-28.455701477601192,-32.33871478939182,-38.230895046708355,-47.84331416247664,48.0,112.0,79.0
37.993526310275435,37.017974149700564,40.70465918407583,42.94647654661927,38.2291896865597,32.07336294783342,30.54679765126666,29.87593549718815,24.651804840990543,16.490269521062096,11.288062169543347,10.025037271834304,7.228079060419779,0.13130513324161214,-7.017707122561824,-10.009467282917683,-10.739773627520172,-15.263389846937477,-25.66139917653383,-37.46997553139865,-44.9989523325443,-47.945494501231046,-51.17573219889929,-58.90918412691737,-68.02008751096808,-63.410070849515776,-33.965408258480046,3.4035328919532297,24.274659838355596,28.201719111280177,27.672960307107,29.92246527326506,36.623187167005135,43.553235919811144,45.74501960081617,45.25401499648468,45.64767846308595,47.353196248488906,49.69534414950211,50.6784084086081,47.55927896639349,40.83715401921753,33.84013659273591,26.95254800701658,14.891720450182847,0.10362781879067573,-7.049629446658042,-7.7923983843054465,-13.660913605221104,-26.822035098725564,-39.567461025925546,-49.24631189071331,-59.58458814132891,-72.68543487314314,-85.94654627371948,-97.70195675420558,-111.53496185707203,-125.06127185471453,-121.63328004172052,-95.98524879848341,-72.42885138010007,-66.51059129619401,-49.7198569520439,9.74265817834928,86.59605207361837,128.11505257022102,124.83290746919336,107.80264442890159,97.66320519015075,89.66027208091602,74.7228372344371,55.62572944117665,41.976388480807415,35.00946048744935,23.90558674330522,5.042216237899081,-6.105848441481782,7.854121254035594,40.932158263930816,64.67657705528188,62.046241324785576,44.79875630039811,30.729829403792678,20.859702881212588,6.3110732534433005,-15.572421201344127,-40.40253596241957,-66.72511683358036,-92.4301812438563,-106.17689870689385,-95.43760242592549,-65.59324758947332,-38.30006018229979,-26.47524765007195,-23.90737071141469,-18.8462388297331,-7.121955281161636,7.13745543896719,15.54145609462213,15.765775111371438,15.901058724692218,20.467210106114997,24.620155544202674,24.09279953848442,19.241079493517784,12.210051132518693,6.310945191560632,10.5581233995395,30.28811342017574,51.7057478735144,58.42739437762505,48.98043259462347,30.908961504117215,13.976589490326848,2.466035311429605,-7.69354423905043,-20.031130948436434,-33.532740883485765,-44.86557643258395,-51.1554028864084,-55.903014533345704,-66.68547572857165,-81.15503001687529,-83.84418233680681,-64.35668552581443,-31.93780388098161,-6.449432023064172,3.3037174327996945,6.5324030588203295,13.976951662327846,26.16710113961483,37.13963152403361,40.56973606165053,37.169651959778484,35.03514784428424,38.95636672258781,44.76610001918197,44.96187660300683,39.81787678334158,34.97358118784503,32.92794525872619,31.957585053250007,28.739657362813585,22.524041270949645,15.929396052506869,10.916938616561868,5.849449678173293,-0.7869351606519495,-6.9872444851087225,-12.3484790511983,-21.733744766740575,-34.71385084909063,-43.44991946305959,-46.91865282180773,-53.4234125467352,-64.96382709689196,-73.04038215037777,-67.28896471014816,-44.05419308434978,-13.958322029395395,5.8014620169383875,9.314643560919647,7.84433195326418,14.588677898982905,27.1190964678595,35.24698291866973,36.622198560503016,36.03558921515309,36.928217331936395,39.42545087919903,41.19792680322724,39.273752279394884,34.69154549729827,30.111118158711555,25.873573326041242,22.09763713291552,19.859289151662068,17.35338089752409,11.514154387294921,4.658191535453469,-0.037566459555369455,-5.104967424160674,-13.982662515739058,-23.83902832524981,-29.70718514507083,-33.63397145521086,-40.70883094993219,-50.92703753729821,-61.106932932218804,-71.13258201605797,-82.43744035115294,-85.22199381467574,-64.8184332542236,-28.845075849952792,-3.7110238373825366,1.8041916001924876,3.5385542477998237,14.800145836780677,32.083963961403434,43.934576036488956,45.62979387896528,42.83707803416129,42.42139249689403,45.46729236544209,47.959707015722934,47.96645741286503,47.0334756488527,43.152944609947184,34.33586080439186,26.411634656670483,24.336548563087483,23.40400197367785,20.246647152857207,16.924024325607007,11.288753895174793,2.0928423059860157,-5.473432363643583,-10.808926067670454,-18.644554091887255,-27.310245326599706,-31.95257905295907,-35.3969245346286,-43.205838866499775,-53.79668928354154,-62.30903784777543,-69.67063351093404,-76.05035058903692,-69.70633627019052,-43.10859485492459,-11.662908738859237,4.89605582117107,6.130970977215654,6.480374347289899,15.945491336606556,29.63593525329911,38.08595823247677,40.13143018660378,38.46048146895649,35.842373482054754,37.46952787765887,42.48130338594943,43.46543934938628,38.920824934206216,33.13363696805659,27.674372943717383,21.545849397704632,14.945199294447503,11.169993565924676,10.379183557210956,6.895644654960423,48.0,112.0,79.0
