9.584726317657491,112.28289652973028,143.73365104511282,123.79423784395236,103.75787744470382,94.68787027875706,85.20619326793235,72.89625145958024,59.921738450840415,45.317292453415796,29.750961718134896,15.016953091428785,2.1069733950651925,-5.40635073984602,-2.5013866532584945,8.831474957039715,19.597491382379438,24.546871382528636,24.929544546589874,21.407954606341097,14.449533142085144,7.290859091656451,2.809892203025785,-0.6797552367975412,-5.477597014328369,-8.546746213389628,-8.339140390422433,-8.953840381061777,-13.833358369308343,-21.600978755216573,-27.14504440954214,-28.437664104432624,-31.632619908223962,-41.490001914527,-51.61774068672779,-51.44392275697061,-37.303427091471306,-17.170463461815338,-3.1733148196544523,3.2582810735326064,7.897092208192773,9.506316820211703,6.237896509320238,5.205964174775761,9.12344766016322,12.889809125557072,14.626573063518547,14.420428882556536,10.926842517615134,6.407752736700698,3.7657844196734347,0.47632672537234094,-4.559237207517407,-9.4825533575613,-15.117388571238788,-22.540841805649663,-29.730960219598995,-32.26580356538658,-24.865891584076085,-7.8616818231755135,9.890760310799102,18.564913151378722,20.13552276471381,23.28444969439279,27.424189894974152,26.9431606549393,20.932366212830253,15.286585161975664,15.673542378075446,18.78816002417033,19.361252254376947,17.482215537521284,14.171311934173776,8.526210954212127,0.9548939390921013,-9.550885699727788,-21.629630906246998,-28.60129616345298,-28.849296217803264,-29.083742955866285,-34.76309055646455,-37.97781689805528,-25.996346831912906,-4.17763233370185,10.685262300128072,16.298496955759347,20.46883863207263,24.78603249872913,24.793439528125703,19.389115502791114,15.83369572418982,17.90159666700067,19.67396844479573,16.622633894142723,10.793827452309454,5.423939289286945,2.8390972793035676,2.969186519571405,0.7160540915936219,-7.560382049314926,-16.330144330503888,-19.12947123239726,-20.843623512773704,-28.818509492006253,-38.786011000921455,-41.878698497197746,-34.206303616221575,-17.983277352662185,-0.6382744668989473,11.524149596241744,17.70232905501275,19.788408366549884,18.083054525109944,13.51102085322813,9.861945948766225,11.560957435722017,17.457657263083057,21.92872734511227,22.215186193683273,18.930017488973544,12.806944134750404,7.301127518752835,5.262129667536357,2.5716638833327266,-4.927940642371784,-13.547138745083718,-18.22981401320866,-20.60647162920727,-25.960980497710686,-34.80427650979579,-37.78187332502599,-25.852928223674954,-5.165804038485107,9.759825823152847,15.285920967500255,18.047782676153755,21.549538774585436,23.660811851025993,21.31178620023905,14.508885499137328,8.199515100531757,8.975405418625998,16.11282753469588,21.697398900724934,17.9998038249629,6.040290273211346,-4.760006503013081,-9.751625521833482,-12.27921239772624,-14.494755325494246,-15.920822173050706,-19.191910694912227,-27.49662988153757,-36.867113181934435,-37.93965843634605,-25.99177610187088,-6.883431334639609,10.445186253981076,19.979813237400116,20.858996709073608,19.078254545567024,19.709834075020613,20.211794099749024,17.518976475056565,14.523885031644262,13.730873537609396,12.314166976350794,8.819280183500222,7.471374417130174,9.209839554244837,7.513800122796314,-2.6731939315547355,-16.786953757324422,-23.67181516599901,-23.423379251429647,-27.952980055231166,-39.97951434917683,-47.70608485944269,-39.67792903171374,-17.899893462735747,4.027689502896518,15.126847388676172,15.770286650711194,14.034507336737715,15.04213494919656,18.203273955188173,21.619312281535276,22.598418239307584,19.925755531121194,18.54877323011172,20.900839087146117,19.801156267134004,12.999644603932966,7.637458851110373,5.186906539773364,0.7332753405723125,-6.254948814298446,-11.799554279242829,-15.884001484344827,-21.83700244618176,-26.034630751764535,-18.69319803229807,-1.688744369630168,10.441284467968249,11.668468366202426,7.226162358154294,2.6168870437220426,1.507262440766838,4.357635499748023,7.950537217290237,9.463899393507656,9.686354875007266,8.721952160981473,5.023439323185167,-0.24985539433193835,-3.379478392252636,-4.32776985752081,-6.234678031874974,-9.367948531219369,-14.310386749039242,-23.729954269937682,-34.1030972091493,-36.30954844130929,-25.720565637519464,-7.453942911443657,7.957476163242353,15.632336961036346,17.699245310882095,19.16315228002879,20.606459290016147,17.513226178393033,13.085768797890736,13.376182292568892,14.25027583510494,10.847927669335528,6.816760700526146,4.856157537157275,2.205684560637262,-2.584237732053813,-9.053699661520884,-14.990454566110326,-19.685804217824916,-26.53729219491206,-34.960429146545444,-38.81554881664872,-31.74480749495751,-15.0865422673818,2.0312963178910657,14.889992831133688,24.314202594562605,75.0,123.0,84.0
20.67820847514904,24.65207562621029,27.927667831819722,25.632308610855247,18.8911239244508,14.754334517327353,16.60001098088939,19.310542632736635,18.974690720957057,16.708843733521075,12.788004969975454,6.526228079320202,-1.7035614695489985,-13.139980775014385,-24.426372416294683,-29.181536255297445,-28.525937600169875,-30.2086077698593,-36.64105540903672,-36.300456406245644,-19.918706297220737,1.33051738336366,12.905787644169768,17.408568425566415,21.84442105134354,25.442179979479704,23.581929230943953,17.79582140143506,15.994168420085483,18.779262789065992,19.289774450459962,15.054468006303546,9.086773654044663,4.305633279540271,2.7408879178937826,2.8532099756898672,-1.1241706103937825,-10.459336063326289,-17.77945609093612,-19.274205757200136,-22.45335392370993,-31.93189226252486,-40.66734548450664,-40.79819899258323,-30.125564708203566,-12.727586523037356,3.5549165183211846,13.834069046139584,18.678109865380815,19.692436520811903,16.94477887162337,12.127670231910251,9.708935555030228,13.061800938841522,19.12175321251158,22.431614674341464,21.608968140817183,17.375475758498748,10.928997643472425,6.406790196994121,4.85069849052991,0.8796473189035044,-7.602524964819229,-15.379867175040857,-18.916127477915147,-21.66136736732166,-28.394426801958403,-36.84132143892303,-35.93722406539556,-20.103786380103195,0.20912732657171912,12.097746881134396,16.073274993978753,19.00900832948454,22.461681905386456,23.522948881074043,19.684284057015105,12.2986236468567,7.5337694879611945,10.655446215326172,18.303268077308758,21.76924667761284,15.041143709041345,2.3948443279475797,-6.731342489745641,-10.549417445378833,-12.974226116224472,-14.961041835465661,-16.46634526674052,-21.07737684851217,-30.479595692540254,-38.42342574133026,-35.74255073848424,-20.781881953291848,-1.3590355318375424,14.167527639718664,20.9662356796734,20.2680877527745,18.99656598725893,20.09394456324497,19.737435712072937,16.47491524920624,14.116077196076175,13.56257495931837,11.402082337126041,8.002462598290904,7.853031298313578,9.416934281501854,5.46579558597325,-6.840537385153981,-19.877379871284624,-23.859771350566525,-23.790369006713416,-30.990522634380635,-43.324027077605365,-47.22443200120217,-34.313325190682846,-10.920166380582112,8.559852004217413,16.088301343238413,15.151733170970829,14.000189375782014,15.819513930108991,19.256421014800004,22.29277852794478,22.096299864237128,19.09628626983078,19.04226751025757,21.293805124223784,18.16676154383919,11.023311337862449,6.829454373906407,4.275039616630994,-1.1850631396584035,-8.141875445932868,-12.961934071362718,-17.36267052753518,-23.666172216683655,-25.392134940712207,-14.197361123300096,2.892233801962424,11.784402902050111,10.679927679467266,5.715363161257303,1.8377637245417846,2.0099307350870266,5.510148214004516,8.61513238152333,9.600866526851087,9.598065365847456,7.970102924688107,3.4978606654249913,-1.492619629154606,-3.7339944183462306,-4.69618905796349,-7.06038381924034,-10.476691567262144,-16.543844812449354,-27.011436515312177,-35.94709316018608,-34.52852888441886,-20.77395400128912,-2.313454172580774,10.963711003025368,16.603452134931,17.993358560417413,19.782165349435637,20.268684124286477,15.980478357201346,12.6705485416552,13.927058281682639,13.675280377364835,9.497979511209946,6.108304316745999,4.292263370651931,1.0362943734738896,-4.334469993656095,-10.954653923449227,-16.349563378597118,-21.330917211021088,-29.01200396737228,-36.88030095294051,-38.049606527718105,-27.57052915235656,-9.80398883917647,6.17385427858219,17.939730927992326,26.402290974557527,31.190123351648793,31.564226251416443,27.158341946522444,21.72312237564142,18.47207072037816,14.791899098790633,11.36527698840139,12.205524771845269,12.14591111033615,6.202975092923699,0.3146483838734271,-0.16904455105105223,-1.2966571458031362,-8.548855660238155,-18.402019678933613,-25.758626631219485,-28.595576165435677,-30.983712213567166,-36.71618876751849,-38.48924254285228,-26.47586072965669,-5.750242012987612,9.963177812649134,16.90803997666156,21.200955730795155,26.223430483682655,27.755516844496817,21.809683136378407,13.884580327241746,12.453426871461788,16.206143387826828,17.54475825311,13.926124161111193,9.353900635171685,6.29687624628324,1.349397495231179,-7.987507772930477,-15.51974801568641,-15.371366228734427,-13.102621927808123,-16.156707103489644,-23.697943886629115,-31.526430644191564,-37.56933227928968,-38.59553082174279,-27.592199018439057,-6.014736726625946,12.635004464947368,19.453812308347043,18.645715654828177,18.308401966054173,19.517692962336668,19.748108735461287,19.42826771571989,19.269745395000868,19.091386998760335,18.97124051421193,18.127651957563412,16.762743994590583,14.984438228880965,10.652369368740127,2.9735778173774357,75.0,123.0,84.0
-10.20213307302889,-16.800610123001704,-19.52931931221603,-23.095018186121628,-31.048454077022058,-38.05923035508689,-32.71636843812767,-13.961648893559708,4.767006250621163,13.731439662251217,16.824550417991592,20.042096241952734,23.170674499607856,22.949422847590956,17.724429309605263,10.306531936406525,7.598306577254812,12.747032205456874,20.13052561749644,20.91078929707213,11.544532716052743,-0.8884219852884887,-8.216234314885366,-11.26349113981085,-13.642783822836478,-15.350098852292804,-17.283115759648528,-23.426353658753303,-33.3628206673409,-39.0400476117897,-32.44292083423111,-15.20676820273908,3.8175466037392765,17.123550339634704,21.276124408278594,19.66362496092099,19.170382573697164,20.334239304740567,18.97180970997582,15.53492566193447,13.897153397522521,13.228346816320197,10.34456928397195,7.510309684386911,8.424257456200145,9.129901764234829,2.642844151044258,-11.100015340925513,-22.083545960996993,-23.658242826845566,-24.87595763887705,-34.543610194251755,-45.92210354079904,-45.23122828686888,-28.01244703653365,-4.319380263578533,12.010875250002588,16.306807631449864,14.56211946570198,14.245253447641652,16.728134584904485,20.28850931527869,22.677154955856654,21.30435075858257,18.566746477124333,19.797966437792265,21.151520296013114,16.149315115249777,9.372980112068307,6.180216777073667,3.0674686775678586,-3.2475506727558905,-9.80055248307865,-14.080520012933436,-19.07220438019492,-25.142919483394643,-23.539632110329332,-9.150895140451908,6.677825273316714,12.241694567886102,9.389112170965355,4.30217771801984,1.4236733906328352,2.8152656063023596,6.612392497959325,9.076443053871884,9.67506391880264,9.381507170665023,6.950045041665421,1.9181180444365589,-2.4633157740086675,-3.972237948101303,-5.216159970233798,-7.9516070711821465,-11.79559535459843,-19.212440956698718,-30.18546308998554,-36.87559918324603,-31.6487111837373,-15.413140791820377,2.3278617467423963,13.301658190252212,17.200078787043662,18.376225706882977,20.318266414509164,19.438050312923156,14.551744301875425,12.72484543341521,14.314535336193305,12.707806817997994,8.255961159272035,5.562769759166967,3.5789341991010146,-0.3106856827448489,-6.210113676650358,-12.725108149847,-17.64834562151102,-23.252062898730525,-31.530790206900424,-38.233427199321184,-36.23894746184807,-22.746121590735672,-4.735886530941676,9.945598996941587,20.73040203427102,28.17961458592969,31.81227014847395,30.70255516151205,25.451736488350257,20.59407435034936,17.591760973585338,13.529224449351611,11.192636877076708,12.684613597658931,10.949227713557104,4.084563265253506,-0.31178436078355043,-0.0035253834258482898,-2.8001089103621406,-11.380534081228125,-20.96406279555151,-26.982172912958024,-29.03579367717444,-32.378115769006094,-38.210922320840346,-36.5618985395825,-20.751403871911823,-0.24404775783231275,12.680411774944828,18.124242291761796,22.644452254212894,27.317782392631333,26.763893634518137,19.26523241786834,12.62637053046625,13.337091806882393,17.112152308186506,16.90637377603671,12.484827308711015,8.372607195104143,5.288216213028714,-0.9975867287968454,-10.77967592838716,-16.22798189521396,-14.491725115524316,-13.317230763461865,-18.07438000269935,-26.069189208699797,-33.5093362370895,-38.67188553314626,-36.88729713582487,-21.967004476410082,0.3086315796311522,15.857242038588769,19.587006035499886,18.287534312017204,18.63327765648949,19.72536245755894,19.646009734060677,19.37989528096094,19.210866466634073,19.07097920369489,18.832009520428095,17.739862281311318,16.358919256857533,14.09357162602314,8.727770648671354,0.3844727887688475,-8.267404377397611,-14.763041212621728,-18.916431070730166,-21.695045637010445,-25.237911133472043,-31.597992867036343,-38.341407315265144,-36.776745884413856,-22.51094226184683,-3.605578355211284,10.811779619457942,17.71774300007929,17.438864684659457,14.566226014834887,13.060889085740392,13.086467708116457,13.373134796192973,15.582480228587501,20.272686289999744,21.383804154923727,17.13431848808124,13.830011355461945,11.33897954533984,4.957169471859526,-1.6004469318217154,-3.7795575067029334,-6.573179452430112,-14.79366122137856,-23.807610897843425,-28.03965039967042,-31.016926857189763,-37.737049923619644,-41.072434698250014,-30.450744570090368,-9.620774987234618,7.955073489402489,15.491761150212263,16.36266570702154,18.086029628284162,22.427343347185015,23.6126163681498,20.52555473670791,17.747270447090223,17.82072670883259,19.36584566977429,18.592514529285452,14.381551218462759,8.753442145796484,3.040103687844592,-2.001767865115693,-6.593811171588439,-11.164998761450741,-14.577850703666149,-16.081634894567316,-19.464804475050183,-27.242718956888275,-31.289324774455093,-22.708793170492015,-6.255053859241945,6.887970277261818,12.722236460758817,14.702451115926959,75.0,123.0,84.0
22.709707404921097,20.36132851249186,18.45250776997949,20.59269266040631,20.37277180528597,13.982758346063097,8.102930195524351,5.529755375974068,1.5384950633677426,-5.3262408166916995,-11.21701659581094,-15.27684973850075,-20.951897250144754,-25.961106124035112,-20.474797138947032,-3.987947887523397,9.489668855827468,11.980474427422687,7.926517371061123,3.086415771551114,1.393717321628526,3.8399568373944484,7.572625874181775,9.370851679221234,9.697101465708082,8.982075173400252,5.679427568870508,0.3992607968906144,-3.1496293728499283,-4.19990888220435,-5.884689118377969,-8.9020997036448,-13.427263608487108,-22.246593293585704,-32.99785317094211,-36.74726793045793,-27.78436618750013,-9.936849712225774,6.338591488385957,15.024645230668284,17.566109456112073,18.889517240043286,20.60345976948704,18.186568479572728,13.445159439379637,13.126228055549094,14.367438310749442,11.467722382707922,7.2168863181111185,5.083752695255594,2.682668635339839,-1.8287066839436574,-8.15504651598813,-14.317140534838677,-19.006496651378082,-25.447395564680132,-33.937243017044565,-38.83587016634744,-33.3870802207817,-17.539327025323477,-0.012907109577775563,13.395432539521163,23.24967176568869,29.641322746124594,32.03258946009527,29.4566591214418,23.801964773311518,19.6680851468282,16.562393428044842,12.408522276794162,11.434491230029213,12.843578551911634,9.242961673653962,2.2162419745982898,-0.45206968310741874,-0.15327829835733497,-4.841250733791127,-14.287261615288823,-23.204793810720165,-27.824148272282244,-29.609378025173296,-34.07869984500365,-39.05930012349149,-33.3173238185063,-14.61640376444969,4.524596959343204,14.728160549394026,19.309825411401977,24.15302886461813,27.949900540012006,25.111395629748447,16.802023387212895,12.072104057021814,14.493019434362873,17.63171211091382,15.877039231131272,11.102663690609049,7.519763171736879,3.9850928632989664,-3.7131252624952698,-13.166917390355497,-16.246656861604244,-13.685614876904527,-14.092503415804,-20.26279432951958,-28.372250017698683,-35.32521674332506,-39.22478808669709,-33.982590512519174,-15.65928694533047,5.994436870316776,18.002290050524245,19.306148319877284,18.132366298431766,19.021538987296868,19.806869017473645,19.540985492717112,19.339742794819063,19.152454902777695,19.053269014913734,18.604456849313053,17.33873132793422,15.898194168049601,12.921541013198143,6.538136637327608,-2.2299422075117046,-10.41149903418738,-16.176053629903294,-19.790829427341983,-22.520604426190605,-26.76108936544161,-33.80857001276069,-39.16098282519998,-33.80131890940922,-17.002439721567903,1.2386102660762544,13.631582992210681,18.242795747127346,16.627527207740805,13.91935695462012,12.980626961498817,13.14293400367636,13.676861938983027,16.853840879116518,21.263794207259753,20.46996236091579,15.867309372903618,13.291002391349636,9.929301665237436,2.7312852293118395,-2.622776312948752,-4.164965030063228,-8.427496509984513,-17.675430277257885,-25.557371129455476,-28.676313717616786,-32.62292696482778,-39.644305453092976,-39.61433338945564,-24.91231334252306,-3.683443973787378,11.165641117906684,16.107410402774725,16.490688431572554,19.274802496015788,23.322131025681273,22.98493870745902,19.503550552416478,17.46173770103159,18.273995135440714,19.52208542137197,17.658877207559037,12.81674476720276,7.072819146801108,1.4982408297348377,-3.338074033129978,-7.934201615271017,-12.35185691184499,-15.14050556514623,-16.61106539111972,-21.410040173117487,-29.35262873098374,-30.188199101467045,-18.235795860335315,-1.745241752028988,9.24756995810122,13.497994245108055,15.02036597291158,15.23010617103258,13.817403692448195,12.156912124978575,10.911556958904765,9.279850861649596,7.913251995277665,7.304319330581848,6.792776741036704,5.0117508029486135,-0.017356663531056107,-6.757815979029586,-9.87683364668632,-9.480189556189067,-12.332454624432426,-20.23130698393469,-28.699588080710917,-32.36137982113814,-25.516785475818764,-7.012752790703589,12.271988248046123,19.544263681268447,17.455917233246886,15.871257956003506,16.3763976852537,14.945925086535366,11.63383136455306,9.6913654045032,10.065177296265649,10.988402419295268,11.96822900384168,12.491907359912783,9.367433210550928,0.7909021201761485,-9.547365361979587,-16.287554974947653,-20.922517625047437,-27.600822144058707,-34.26397519195394,-36.58506002614494,-32.531111289084535,-18.463530517831266,3.052536142039104,17.826493194984057,18.01383332591153,14.39012600159682,16.71383580214676,18.843858639579043,15.292489146724535,10.745881278514613,9.41783509579799,9.895623438440765,10.713687517258244,11.465296817444942,10.943831880699303,8.222530784032442,3.6375196892246926,-1.8015505053621734,-9.052830295890436,-18.38218576767847,-27.820571924691713,-33.07629248269188,-28.503600213259627,75.0,123.0,84.0
25.477732504155533,30.779599829288646,31.815577495363826,27.924975783797667,22.325516131746014,18.84816585716027,15.374823082285854,11.598582924271625,11.942795255810713,12.500543559595144,7.197558023182258,0.790489821478164,-0.2833445060104173,-0.8020346743869722,-7.307390803587332,-17.13893638002186,-25.051305886731967,-28.38828739261004,-30.466636735613868,-35.90535022874376,-38.94025340885765,-28.867655074157383,-8.477491170357046,8.44433008900208,16.29325050202612,20.575494864749942,25.610935498182663,27.974834007781315,22.933637499402998,14.683818388325466,12.196945516274678,15.69526369583489,17.6843350612378,14.577370586296377,9.864621374654423,6.6992554446130805,2.283721321933843,-6.634301310842044,-14.942657919850937,-15.7292612712482,-13.183406728395367,-15.398215521365827,-22.600197629612968,-30.562187699487335,-36.92699112733685,-39.01229174945812,-29.867930695650212,-9.050298742304378,10.779398165145206,19.18310830451577,18.85401722551995,18.206181349860316,19.38130984973625,19.783354131569407,19.457547318994262,19.294244237792615,19.106348736523422,19.00951454023537,18.29324554110794,16.943382372464963,15.31484564158823,11.440210803017843,4.135147463923649,-4.7854847706182255,-12.33727031262763,-17.406609058301513,-20.58094276907942,-23.476107086396585,-28.55957536559223,-35.92296062014543,-39.02182209947561,-29.78053897181469,-11.410141371126798,5.5581529647572365,15.786885214562018,18.211666273647865,15.749685150037912,13.443481231822899,12.99683661941021,13.19670249231964,14.228914014670272,18.2836106833281,21.747238731904208,19.19569865123305,14.855087616137196,12.689545672208823,8.11159127216287,0.6971226829702717,-3.2524015134632687,-4.815718637795533,-10.771886787381039,-20.41745760001625,-26.830485364002133,-29.405673025136622,-34.59400724397075,-40.94538481422121,-36.80080167432246,-18.79742932029059,1.6422798732003638,13.491998502418758,16.32426046317459,16.88710502569229,20.609180545033745,23.785085537822383,22.073716399201988,18.62891622544362,17.43987805490054,18.775836305523754,19.385953813067623,16.462795837186732,11.189486789087331,5.405067070811586,0.02887700749556761,-4.657484653504301,-9.273799734290606,-13.39478086567472,-15.548483838905126,-17.451761245154966,-23.70845557300103,-30.8334380631645,-27.90323880832858,-13.379517759772236,2.2366393620583462,11.004357171455219,14.075404087595059,15.241269313292797,14.963152942919066,13.282258126655352,11.794680706484307,10.48268329281493,8.80748044075852,7.676716110940349,7.18688432802345,6.503283784685564,3.935601600898575,-2.008251070360558,-8.218531231883274,-9.860709354447224,-9.712250750316548,-14.240805437836377,-22.85508118902579,-30.50106334734264,-31.68641866360573,-21.13103926403402,-0.7884618948916923,15.82643912701738,19.42129629819126,16.66270757194492,15.981066362639483,16.276262236516782,14.044666960511456,10.814249631210847,9.6190288628886,10.34812374165558,11.237577639088475,12.275257105952551,12.116512140038292,7.404878822375883,-2.3092176311939268,-11.960973945283776,-17.603434932728604,-22.59243208203717,-29.764068269535105,-35.482142151299435,-36.19416883588046,-29.631542282765402,-12.527398259324887,8.6976526163628,19.198876524281225,16.643279547392847,14.482148252520501,17.79952544252678,18.32966023273475,13.77604415366275,10.024746962436904,9.47819258775586,10.108581039448927,10.979032191225768,11.500269038019685,10.40481549716416,7.025597227858385,2.161182700461701,-3.6522828957826254,-11.585378776327993,-21.23614368448102,-30.022891603844926,-32.97254301724035,-24.928975046772212,-6.910004239331332,11.68867343297841,21.28735821130227,21.233024376216957,17.711715475176902,14.375256005784317,11.013366753463215,8.929704614480158,9.732743770504916,11.405054119574077,10.36043725821393,6.572829299540957,2.1150946734705327,-1.4565822468634932,-4.3160529896275515,-8.381959902107683,-13.66048903657063,-20.1613732613088,-29.81120921110722,-40.284241164502546,-39.69067544460238,-21.540613631846412,2.261654597194603,16.46496002554418,19.06104461590308,17.87057617955976,18.700707551787506,19.76047327661358,19.206307600582534,18.095575865315624,16.224460273437224,13.57532778597515,9.480453968789055,3.6846286644976085,-0.8928173608504862,-3.78286689649983,-8.398665507791435,-14.981633328181012,-19.9857042140455,-24.492546516612087,-32.514928280548396,-40.77576025878551,-38.20157550120939,-20.54913391221985,0.9729098955695761,14.43157680964287,19.849578754392432,22.140090504860925,22.296675999008713,18.70154532195138,13.23754706689282,11.156474540585876,14.826082544711428,20.588687373096818,22.516546828879893,18.756789628155982,12.015039707810608,6.031919447284582,0.565295809663643,-5.829881294013576,-11.655247241592676,-15.1908668998545,75.0,123.0,84.0
1.586528475112647,-7.20950941082752,-14.045604438822293,-18.473328595889974,-21.33921394543805,-24.62658623950457,-30.59926809196504,-37.704962142733145,-37.75837774407271,-24.939713787054362,-5.990788937450817,9.295636093027042,17.263061934078983,17.75278907482759,14.914793409285139,13.143796575327134,13.05660999883319,13.29335074349423,15.084262456304,19.690746459462677,21.634601911862937,17.77722588353321,14.106978546109623,11.84765771297793,5.989333409062358,-0.9770273670362266,-3.6333182814102356,-5.899283857951926,-13.476468184146617,-22.83727074894459,-27.71701211405383,-30.418564666157106,-36.753190279680304,-41.302151970381914,-32.711038517221276,-12.489793545877854,6.167629169362371,15.02027669836602,16.35331011538576,17.629009166780143,21.900402142430522,23.77201228379743,21.020525233534897,17.968198931385906,17.655660853252144,19.21511264291426,18.919468485319072,15.070844817937974,9.526701928555678,3.7737733869871866,-1.3734885132477372,-5.979880865305736,-10.582978841865241,-14.251825142753825,-15.900331017831787,-18.720310832199303,-26.148686759942347,-31.39745387408357,-24.55236529884221,-8.461898962579948,5.576736384506449,12.269152098801847,14.526446976206856,15.342700003137876,14.560261054785464,12.78114031565833,11.451845734236938,10.00718514213913,8.390469502681706,7.498826283184147,7.057856213836345,6.062494276977505,2.5402692294691716,-4.043244851068641,-9.23232580754549,-9.662320934395172,-10.40057959686971,-16.51523970421557,-25.395682131344373,-31.771035694596403,-29.986077490954777,-15.828658808841706,5.095567788234111,18.157979846070734,18.76412403447458,16.124982917239542,16.185950930995812,15.919708797482183,13.050689169622801,10.191258343886043,9.721899819020699,10.62234863364726,11.512160075945854,12.50097360010418,11.342140791473511,4.978032853884344,-5.399263578446097,-13.973440491734074,-18.871093404112266,-24.502894671208555,-31.796763944936252,-36.265285636506825,-35.22583705460517,-25.775494191708315,-6.1680493376609125,13.349087885726354,19.34394015863113,15.384947282750268,15.146729819730146,18.587917984124044,17.326082106625528,12.363307452933213,9.60588002771739,9.620259435993479,10.340298831526589,11.223230200882444,11.395088555817908,9.663497097153343,5.70455922146269,0.6256197223681869,-5.696483306996621,-14.272948511870451,-24.036276250475755,-31.7440125407342,-31.908053881341907,-20.45647121509532,-1.0718567225305988,15.621779503099772,22.03780364706756,20.297465035136298,16.71514832688822,13.40454042300539,10.169044185968437,8.870974942585244,10.311033032703156,11.469819407681356,9.454053034723378,5.275932558309503,0.9416114947317843,-2.2659725115005553,-5.323015954030202,-9.816125999501356,-15.355055816084127,-22.547799256736262,-33.14074316485778,-41.84608296645972,-36.040297650804284,-14.419100745664307,7.732537115083045,18.145793273508207,18.716650064448576,17.85862918447526,19.157514114992225,19.721982772089262,18.926152115380624,17.651767078890575,15.532464236925941,12.608609656537245,7.890828627871012,2.106731037782255,-1.7745995155305359,-4.807413941122817,-10.250034728592992,-16.68572897982107,-21.12394198689652,-26.388306853512432,-35.297581366906655,-41.624034737834165,-34.39786183928522,-14.02236034909562,5.909493108893679,16.591581196131752,20.681949407581843,22.485675410333016,21.662721855567884,17.09956625852527,12.078302978056774,11.675810898737218,16.563390584326875,21.724255483910163,21.966683640227817,16.915508226722075,10.129721733921096,4.496071835217777,-1.1867833045701377,-7.708729080249882,-12.865922036824017,-16.152531359363284,-21.784777864570454,-31.905958901890127,-39.90403466965218,-35.52887764469293,-18.170105923189244,1.330390927004134,14.043613108445674,19.54463789291875,20.522329572871943,18.44998479511233,15.095110627923699,14.433867074167525,18.20376230335382,22.18428643096737,21.632489671342213,17.183175852124783,11.323286087071907,5.060438156594873,-0.6123124110533867,-5.555658548731368,-10.395639637295803,-14.48965932580489,-17.69236676404531,-23.649402090749714,-34.487166760715,-43.60982303981817,-40.00972020838984,-20.68378983842966,2.845694063616313,16.330447104684758,19.480978579855147,20.620041592357317,22.28498239947174,20.919956071737637,16.867667342822063,16.56409700540113,19.94150411100348,19.42520393158863,13.491610423858218,7.438326471907519,3.7787918270405862,0.02487707376040525,-5.015670919222325,-10.820170557906021,-17.80369409284422,-26.136343743094372,-35.37773049858076,-44.37023145107313,-47.73366578741324,-37.091906288435794,-13.66047882648903,9.142162712353379,19.801303100324034,20.12079572282463,19.361569568484793,20.8252886236446,20.855497159869042,19.027810258184775,18.85748741112317,20.03476290068772,19.988061772677547,18.174402894813063,75.0,123.0,84.0
14.884851060254864,15.301349226945996,14.06313094306469,12.339620797984306,11.091656196307335,9.508454976660204,8.046190566441174,7.360464280272702,6.891481101534428,5.405055142550928,0.846583823958073,-5.959721925155937,-9.773027155132839,-9.491345377103995,-11.605468739864087,-19.028834134839276,-27.728548576595784,-32.36083894697497,-27.1835971731157,-9.87705099799286,10.23898067420229,19.337354474618408,17.87254402641697,15.887930760238152,16.349259804606255,15.305175615228135,12.061840829405872,9.795999925085836,9.94173030357119,10.87577401264387,11.819932165445822,12.553357356530267,10.104646017510815,2.174347609665335,-8.307555470600974,-15.622790889579894,-20.232453367817847,-26.599900671087454,-33.565927670214975,-36.59328065846742,-33.5657480972758,-20.969667202016,0.21919032050455722,16.732445529194365,18.569275654610834,14.565115012905855,16.184408156814296,18.892481646834348,15.978934679886496,11.186689028073515,9.433785355312533,9.803387221827457,10.592171264044104,11.409555494489451,11.127395546663083,8.720483080940822,4.302463748730287,-1.00500757868563,-7.947152924118508,-17.070416215555774,-26.683897321466524,-32.83071948603008,-29.816788735031906,-15.266769567636453,4.518539993423803,18.621410497352805,22.0772256266894,19.24825429152162,15.758644325515695,12.415358124826387,9.495211319540832,9.072798729888497,10.865246988243365,11.235019688919364,8.365839162975128,3.967868189909649,-0.11946255029314631,-3.056082027430416,-6.471263043036008,-11.328219217274361,-17.168699480418894,-25.26933213248056,-36.38536815937592,-42.10941949448203,-30.93286553583917,-7.28606006659548,12.113851661873019,18.962021533582313,18.2907846931855,18.085623070586074,19.52030235736097,19.56117343766984,18.621170754680655,17.126853201040667,14.787950687274938,11.479055225299506,6.186436701277404,0.7255473946783603,-2.5656570022003553,-6.074645323939435,-12.202000942195188,-18.167342769170023,-22.329335066258956,-28.658447760953877,-37.91124003755523,-41.252365273436745,-29.38751880835857,-7.579337882390691,9.983103231939024,18.196698022668386,21.364350199237613,22.617383516725866,20.68034097652298,15.443507012157282,11.338422275812933,12.679806430497704,18.3248180666574,22.411541011247664,20.947647977846334,14.93155020968997,8.379780346812778,2.9483412078574065,-3.035319169196894,-9.462498858838064,-13.878318829012917,-17.322448577612665,-24.35850235936791,-34.93198664161321,-40.217930085828726,-31.497719375468687,-12.199913089225548,5.854165502658639,16.25526673451583,20.194522903147966,20.19970655860167,17.4650427289872,14.448007851984594,15.151660115159347,19.614478642667393,22.565617016048787,20.615885892745222,15.570751709733162,9.519469382160906,3.318995557300909,-2.0771999069081453,-6.966163832717282,-11.708084230235224,-15.421934929013476,-18.90975499407646,-26.398427630626223,-37.790315036578264,-44.276658038010524,-35.78224854620975,-13.553008326051549,8.112185421303082,17.940306857277076,19.729349959875798,21.156687770885373,22.35445286271414,19.775463383143734,16.16217072173961,17.47189104230417,20.459981751308835,18.0825177593036,11.518902167813605,6.197429706751975,2.8252426248087885,-1.3271807379876892,-6.613090902012811,-12.69049074028464,-20.08756900638561,-28.736594574028906,-38.11647119214116,-46.31963978535553,-46.33445627375059,-31.19035254720118,-6.312032926343535,13.664009631730154,20.559230918522527,19.670219754518595,19.667096655204386,21.13507167748409,20.365101949857724,18.71074068861814,19.192062044420876,20.214911565881035,19.61288715153441,17.49821180115747,15.513566417959764,13.486151005544867,8.922051873975708,1.7896175282134894,-6.33676435609181,-14.701131394457143,-22.98611612073537,-33.232439712046826,-45.39596817230493,-51.13830403945517,-40.575751949813316,-16.080523650314028,5.640366684569721,13.87985203437398,15.848577360940274,21.77705796370169,30.391827204682116,32.397612454759035,25.132305276136986,16.385776905838053,13.855096520889287,15.031281123735194,15.474106706989478,14.868506147097847,12.506966816098414,7.497270343648648,0.11694691871506538,-8.967612137907558,-16.437773646457334,-19.944965457214465,-23.0339279496189,-29.91228638186257,-38.41989609911072,-40.57563015990011,-28.805162289651733,-7.443949156970265,9.139562496876186,15.640163124782934,17.41177185309377,18.253356004672895,17.665750283310476,14.618859568702343,11.755268929128167,12.53183888679379,14.998794031120553,14.529867587597703,10.849925813309644,6.403451039452572,2.0024478139718767,-1.7637767754644815,-3.9220803281274326,-7.698104459525933,-16.045206831075845,-26.95499454749036,-37.03248945800175,-39.5183954280864,-28.059600269906632,-8.410702691098766,7.595836084375679,15.739669296886715,19.971626649933867,22.467300800677055,75.0,123.0,84.0
-26.696831488315148,-9.602976853530928,9.589341363729915,20.65938535253484,21.586110277306084,18.188165621593956,14.814464589856463,11.44167997391515,9.048375697632403,9.489438942687707,11.28406141109957,10.69992818572501,7.156539465983172,2.686241693105916,-1.0593855929190417,-3.895721416685196,-7.7525216770480805,-12.908305407398245,-19.16168273473407,-28.317849399672706,-39.21897928533073,-40.83139583383805,-24.68742367623499,-0.582384316353962,15.348599028216558,19.133420692125494,17.958313854741775,18.48657301657262,19.72489118592466,19.32750925536009,18.2751079439635,16.524648870764633,13.978666990974297,10.156258490853775,4.459608085671319,-0.43091395820992345,-3.373810143886838,-7.608477678949419,-14.1318230243055,-19.444956368182808,-23.740451242644568,-31.248546439914,-40.04499652354472,-39.49397687977301,-23.47428835853142,-1.5734863767398204,13.207860737417016,19.396027394874793,21.92532649465887,22.471932849844546,19.384479645001793,13.883170173482185,11.092888032447284,14.081034747319462,19.937929779929,22.601248271767762,19.52441659972832,12.922252246973423,6.752749485505649,1.3382487230079803,-4.945369374436145,-11.017532254210009,-14.77991521158579,-18.82400593211682,-27.29796117190309,-37.52076645063195,-39.26718729336025,-26.517724660344385,-6.384283882526884,9.683365421971867,17.923238012221457,20.530767109852327,19.637887969078445,16.43893625724836,14.141326287603379,16.227810774506455,20.8824499721064,22.49416549297618,19.344845358498002,13.885514817388868,7.697044632813029,1.6577236612030475,-3.4999032047937635,-8.376179110357892,-12.925852108316633,-16.299374737099637,-20.494593668978425,-29.538842565284018,-40.69998827311819,-43.608920011403995,-30.30586139613009,-6.490488776525539,12.264388102156868,18.858158566203915,20.011186993590062,21.70547695899609,22.05352181671013,18.510110097615005,15.95058735086975,18.55107873559415,20.457267553974418,16.35954994118259,9.691670920413557,5.1478871852779235,1.7794261898106856,-2.7762710578277434,-8.266924258134292,-14.678402620553006,-22.477805607393602,-31.400931570863534,-40.79882524472462,-47.59741862042301,-43.57072776602293,-24.405147152133704,0.5770853105926048,16.98869832479465,20.644922786317537,19.362469132336447,20.130018824523994,21.20904392661217,19.786062671141973,18.61780160014733,19.56902201064069,20.24390113545253,19.09783444502936,16.846608264615792,15.038614524412793,12.503655541366022,7.044480363523251,-0.49612172522860654,-8.766369680454863,-17.060736242628032,-25.62540615794676,-36.75855273687063,-48.24328244614479,-49.99442590641524,-34.356947751896136,-8.708335815815923,9.364922804802625,14.52117964328445,16.93745259454419,24.379123956415174,31.992841542523024,31.060060002652683,22.27540921928765,14.936159479841486,14.09886111601807,15.288484945107715,15.407804805304359,14.425884776059679,11.334096190291238,5.59417225015021,-2.4137939454511628,-11.491426414968297,-17.80371233122826,-20.62629727779315,-24.582426746015482,-32.475900478476056,-40.12762244992663,-38.72851601816303,-23.021809636080125,-1.618370007620836,11.896850054281124,16.373983865377475,17.711828569243586,18.311530179969672,17.006747528229237,13.565934639194966,11.565914944625863,13.302554070869496,15.2835236429585,13.689110403917136,9.562249962076432,5.13511954207228,0.7712314386247218,-2.5041456607134385,-4.623581464123102,-9.659934898798278,-19.075068057833104,-30.146647493895784,-38.94314369448537,-37.65434396250613,-22.671677560481495,-3.0121747021880787,10.668830546434759,17.14030103027145,20.95579178797767,22.499728260314917,19.775581253132803,15.091249004811626,12.146366401176445,12.134983690287116,13.001358175461355,11.992454380001345,9.15218969631259,5.867661354762693,2.777619417710583,-1.2113641232670473,-7.039475155669619,-15.041247618922004,-24.366689918868126,-31.441459373887636,-35.10966738352619,-34.87720801092201,-25.61874785125234,-5.997920620874809,14.570450802613662,26.792141985524736,29.893538024194456,27.507003987632885,23.68980697567077,20.066742351234563,14.54596505395136,6.2509266394506975,0.09769757363045928,-1.6040551377513046,-1.3650328204227915,-2.4295248466084742,-6.611714331561932,-10.356122772937438,-9.517656669323962,-8.521981789650155,-12.668585721930468,-20.6109579754197,-30.005334255312643,-35.30721829807461,-26.18911883616843,-1.8934522100578774,23.04423809409872,34.80375186798953,33.853906178480074,29.675261009185125,27.55522976663817,24.458815088151987,16.583942654007355,9.501440873418096,10.209110089019305,12.460081380276476,7.539718312424731,-1.1599440044419467,-7.187319448158345,-10.977856433418806,-16.54613606860263,-24.07290380732061,-29.695281832318095,-33.488275267787586,-37.688204114022525,-35.52068380036372,-20.490333896511544,-0.3049699959265585,75.0,123.0,84.0
-15.69147902306322,-20.74578261188325,-30.445603254328468,-39.373680269584085,-37.00161155119989,-20.89009596571173,-0.975220701097466,12.819731115541082,19.12619717098378,20.585942682125868,18.864800919765905,15.48102777765984,14.242398585320501,17.55086023499906,21.861399353275164,21.992874109921775,17.894957991461556,12.142829286213555,5.884094762685839,0.08500885247712849,-4.907019743683498,-9.767765541046124,-14.024704837803787,-17.219076533278187,-22.540296087053317,-32.91232540378856,-42.90978554398221,-41.48535358030056,-23.870471699779237,0.08084558981669972,15.288393785164681,19.339770398301493,20.40069452773812,22.150316494940057,21.359599888196783,17.327492014996334,16.26213840881293,19.562349342384998,19.879588337534845,14.415806164954752,8.09103574741114,4.204344390345341,0.6084881318093075,-4.296229326720376,-9.993691494432849,-16.7895030985961,-24.962463976478688,-34.11531093378273,-43.31256805717015,-47.94914671486816,-39.43405688170172,-17.096011310064327,6.671783486925575,19.155562097674604,20.32903644780043,19.299943693453766,20.624057356056838,21.02198839991484,19.238573277232923,18.74129140056433,19.908626569180207,20.107387783829648,18.480215598138358,16.25637047034919,14.51365548271028,11.247092660988288,4.993700186750997,-2.8369187681482138,-11.196687998768029,-19.41832783398607,-28.510301803617427,-40.38089173567402,-50.26389335257499,-47.288076455700576,-27.21229921989516,-2.0711207020163678,11.888920627421475,14.959901828794756,18.546724973960355,27.02458175706345,32.80413729298767,29.000273166367972,19.571407161579,14.11424641842462,14.485803320503518,15.432885197933922,15.263503906376453,13.802556824304835,9.93017317462663,3.504906915233416,-5.064797513896132,-13.758312602283583,-18.83460419088951,-21.415317182940385,-26.513663606190804,-35.05122555652742,-41.06504174782631,-35.57639672039311,-16.71717579429482,3.4363799866631175,13.855065753033301,16.87942998046528,17.97569599575255,18.205255411595207,16.13458457450682,12.642558703124045,11.736559787612165,14.095811206423697,15.227541440313448,12.630973077524727,8.269451026957194,3.8620356717504722,-0.3683688088902903,-3.1048507491087785,-5.594733000945078,-12.020621127119744,-22.237538290124874,-33.1894955151844,-39.98820901715634,-34.540561615819094,-16.885295430893102,1.8111935994696953,13.095861266617117,18.360806538720887,21.770823238191827,22.1354065515186,18.435432210056355,13.95052276080325,11.871140209058062,12.45133382346633,12.953785543614819,11.303803417999736,8.187888044552619,4.980040194034645,1.77841010901183,-2.688859331393344,-9.115846807940846,-17.727969082383996,-26.78631139238753,-32.80311437064548,-35.597125491959524,-33.3870526261304,-20.76203715609776,0.3937948959230709,19.146939854967854,28.49497427250065,29.577912583261874,26.405955516078972,22.656521771193013,18.807769976533123,12.294717645531085,4.013175929360624,-0.7792865430433041,-1.5942304234443638,-1.395006606123139,-3.355627431849599,-8.022170168641896,-10.561140960115864,-8.895647582024623,-9.154027362012116,-14.703821721028918,-23.277222497801564,-32.41033964705372,-34.51004265947272,-20.300782738461933,6.056737377199328,28.06780109066753,35.467273078350516,32.57497080898649,28.854836438210004,27.02478171815576,22.641087845553503,13.990933127412317,8.909129743587682,11.242872040806468,11.85883503863526,5.0416501935708,-3.296977602624617,-8.333325146941178,-12.27717631371065,-18.665508379231067,-26.03696698401158,-30.79715530136884,-34.76117931597579,-38.1982615323085,-32.432284248144164,-14.57953249619969,4.691116310188207,16.751204219342263,21.96306675205652,21.603709573905203,16.733706298383034,10.867795123778372,7.170489107115056,7.711365752437939,11.43934523643389,11.837361349180338,7.054079170757924,3.2305276709153525,1.9214995824699346,-2.7246937583515316,-11.166798404037966,-17.986296109021804,-24.429065504236377,-35.232109285504286,-43.467025606144645,-36.32306559613832,-14.603748883333324,9.923582165630322,26.566569122125625,31.909566656197356,32.087197548376935,31.49533217500807,26.987726640455968,20.259267973438,16.655506449521248,16.04531419109238,15.10368426842689,13.104877513859215,10.329998194129123,6.447084098545775,1.0437226150276724,-6.200734494129536,-14.310692825523335,-21.566043971367538,-27.85178709070753,-32.89119769361207,-32.69611481791603,-22.36555765387411,-5.040317801126245,8.07828626331117,12.98128191691133,15.071805936274545,16.945631344014423,15.428569483684567,10.033991353150997,5.878129605681172,6.552142845876629,9.079527817063367,7.022495354428364,-0.2050263112663855,-6.354476541789256,-9.474519316501231,-13.950707442224177,-23.283834183974484,-33.9430582359705,-36.91308077452682,-27.754433739543533,-11.872623925068805,4.039818590725038,75.0,123.0,84.0
17.8098767441278,15.735959638582782,13.855894095436248,9.714458420792212,2.8210215838416093,-5.223857212127917,-13.603361654080569,-21.83259674669463,-31.678942789780255,-43.88959938370439,-51.16752964682165,-43.0273223615254,-19.60371436475077,3.492502918472278,13.42405939862086,15.497982918325516,20.66233033120193,29.434888808982503,32.731912167362594,26.423742280749693,17.264926097154223,13.838327936540702,14.876023618699595,15.479899947943514,15.021434759896168,12.968415971261352,8.311017172674632,1.2283768540902613,-7.749655848653181,-15.680399582492386,-19.625750971131662,-22.447302947519137,-28.78036552069585,-37.441696400645974,-40.99861132354271,-31.190569161483886,-10.313662452568696,7.56170894120317,15.186943310897737,17.25974358926905,18.185134170039422,17.889807356587113,15.113348399919644,11.962543508723044,12.224429267421417,14.766089137437746,14.824411855196896,11.431234201717134,6.989400793879834,2.5860344340766597,-1.3635050750719981,-3.653143679080621,-6.937590677088814,-14.714168279899706,-25.46426989328444,-35.92806562969402,-39.94750380570117,-30.316693929308414,-11.039233481980403,5.939200260833763,14.99862893402257,19.481759586946644,22.324161346641123,21.395392168191595,17.034086772538434,13.029718814244188,11.842524315015693,12.755054855617145,12.704032361145053,10.489957814193733,7.224450447687113,4.105379686802717,0.6660267942160644,-4.331434691714582,-11.385006137162154,-20.47541642777281,-28.913505641891547,-33.91081818822565,-35.70672730764366,-30.970280820958376,-15.116574741286126,6.54687463524868,22.875951890806,29.49622289728218,28.905936474929327,25.28035898674339,21.64152007882199,17.30172594356762,9.84942601564696,2.1178443869876795,-1.3065110617756202,-1.4984724960148283,-1.618853249163356,-4.555427937744316,-9.237929249210259,-10.338077057762483,-8.465451097883687,-10.275266145894259,-16.973355979092204,-26.035088491243002,-34.25361327720273,-32.24803322442785,-13.29833989718391,13.590202606028546,31.761489138942224,35.2357799744745,31.28378849173448,28.246116275713867,26.26527072429453,20.37933863240359,11.725268403346366,9.05243726033782,12.09967325157602,10.535535274981402,2.4375060684145873,-5.104204205026501,-9.377927364026059,-13.822928599186811,-20.88879978640118,-27.728478518163946,-31.83997845714863,-36.077215785757964,-37.894496744279,-28.218408494969903,-8.577016117677207,9.009838774993282,18.861382415271752,22.42508388187766,20.537840714461428,14.970316051898587,9.47401224656729,6.825441808749725,8.687310821127799,12.18135998873111,10.787757314879325,5.577568129246423,2.805860298116376,1.1443784192956286,-5.011634625251061,-13.451130070396953,-19.59700106321229,-27.109368592217354,-38.52728200559912,-43.29432517685474,-31.10094101065697,-7.250209696203699,15.881742523739469,29.14216547850031,32.11883194722911,32.074933983024245,30.701963672947404,24.992378330001735,18.774520975836868,16.32353962179952,15.908033184335906,14.600773980165165,12.399707196937872,9.332116756169679,5.070148808679955,-0.8728918519671653,-8.536709829211386,-16.5421643406644,-23.447732895905567,-29.53197231070416,-33.63827288991278,-30.843244629074743,-17.630229605133373,-0.37902877111869304,10.176609078961734,13.615770503128358,15.719906563178462,17.008126590679556,14.10481100285431,8.447525148100953,5.576253479838513,7.37837116984533,9.176797620090149,5.228537913473309,-2.336828088110177,-7.446647731708191,-10.383350733853046,-16.14596283537983,-26.58595662105129,-35.975258366681075,-35.42763150466565,-23.479182488782435,-7.12039959744412,8.259706542897318,19.799088876994798,22.575060826727128,18.760593720694942,16.524024636640117,15.468043803641853,12.166556420242042,8.58025989867578,7.3942382254672365,5.684392650236246,0.7933588890327891,-4.007717197654923,-6.216294856599372,-9.295716134154167,-16.588466185068373,-24.102373030551334,-22.144180480181326,-9.119781378441774,5.914447525088968,17.051154953221403,24.46728353097505,26.11375149156414,22.233928975079053,16.85750322313245,10.916262415270378,4.450923557025215,-1.1414714703983089,-4.578775251941467,-5.798628497456238,-5.464003742178727,-5.5862021793755865,-8.29951236748206,-15.14771720114367,-25.778965863814687,-33.86663927038669,-30.315279152763683,-13.633654997600605,5.829157766163933,17.534790916452252,23.880084364278588,29.294940175049135,26.9586244378416,16.118165762828912,7.998616189919501,7.870099903361674,10.057942205551003,8.655271069036793,3.8011270511804183,-1.4005428365741683,-4.54924492425636,-6.08810548742863,-11.71819167497274,-24.159122715177908,-35.491628688151586,-35.213539894666255,-21.986387149358542,-3.7094149736738755,10.46263005607215,17.050157573957268,20.454225065324838,23.26991906156444,20.680613819911557,12.092554079708693,75.0,123.0,84.0
22.53360655311496,20.342018861939973,15.67692638571887,12.363197763924992,12.010961961355946,12.959425435186798,12.25816904771729,9.587630349533562,6.287476462228205,3.20917982580874,-0.5840421337520469,-6.1443418093488695,-13.847037591971182,-23.17271601972659,-30.716810945919633,-34.78712877973313,-35.292266181228705,-27.541415166465093,-8.939862186799171,12.194432549412939,25.74714688296508,29.88968818496388,27.98581495609352,24.18099234227358,20.5875143454463,15.489044551285655,7.3628441885265845,0.6368424359715542,-1.5587664766868805,-1.393882533939544,-2.1049923207114705,-5.94394216308439,-10.104230031834982,-9.811727731530683,-8.398547193695375,-11.82923330350432,-19.42674417738642,-28.78517811998564,-35.23062814703429,-28.446958704056645,-5.5729217168957685,20.308347892072728,34.12999127942293,34.38108505509806,30.133365661047616,27.76691858491128,25.133802150577402,17.811149450848305,10.036796499614649,9.76302859300252,12.493078780235672,8.59366906225042,-0.0747969521449669,-6.592764555612602,-10.445416240065333,-15.631426772069723,-23.095877739999207,-29.131899774666795,-32.94093397989097,-37.25826690369422,-36.54018607048348,-23.084802134318327,-2.810777585074126,12.630979929730437,20.46368153570392,22.423439681856784,19.146329273749675,13.225142076364751,8.319771738626486,6.887406281905229,9.840919001862247,12.447334736926132,9.373864330933921,4.373410197433144,2.5125574568804137,-0.08079300820969403,-7.511524548243861,-15.465827959207939,-21.324170759968,-30.230655313571884,-41.26985162744959,-41.57262079616485,-24.866680675551752,0.018556354686644294,20.958742608940806,30.790215920379186,32.12914927620746,31.999169537658425,29.473917766148258,22.957403056161535,17.654142895847947,16.16859161052508,15.666244552468928,14.031335715105547,11.621549499706225,8.23746297989183,3.549973274032126,-2.943951976956373,-10.904344720504437,-18.66298177124497,-25.27178357656889,-31.07810319961528,-33.80603969426656,-28.043489476814056,-12.514227544981447,3.629943576485677,11.636648177306538,14.187045552514245,16.3331434113097,16.67774406029511,12.518157581103775,7.122702629598355,5.71427896076321,8.21690903160974,8.72855457509074,3.099644971089576,-4.207358113464151,-8.322398742639757,-11.552522288241533,-18.78731040024714,-29.82889553548847,-37.12040084346763,-32.92268937133812,-18.857604123724656,-2.4766117442466284,12.195596825799557,21.645987060356354,21.749142169520237,17.76085818773202,16.320445574565685,14.761204688537305,10.9703019162264,8.01397767420579,7.170388239011415,4.550669519936914,-0.8223485907113167,-4.848290753442498,-6.7937022290762705,-10.96021059300313,-19.15491009082769,-24.851157693640086,-19.221741877874837,-4.546118574100862,9.557423419140116,19.59642285079403,25.661148203981533,25.371244821097974,20.72337065772577,15.21912091795559,9.063552936741923,2.664983044154494,-2.374890783836678,-5.147964597090759,-5.796865038008513,-5.346052949590151,-6.026619585646783,-9.799462614119758,-17.97500860857548,-28.810196623236614,-34.3334691028599,-26.573007932646245,-7.672301171336242,10.174068876108974,19.543093970161937,25.678978409186662,29.775968367991087,24.289007806863367,13.011292661415775,7.252677891150642,8.620734261232105,10.129808384562207,7.47544610922049,2.2058396476537014,-2.590949160868333,-4.991802272894731,-6.996229554885242,-14.77426732761799,-28.08854827337501,-36.89357394561428,-32.48553809307696,-16.7752377533359,1.118010313631544,13.069655626586858,18.079210957719248,21.471476190052524,23.285695046153613,18.597028603740437,9.39710178540834,2.8264743759420345,2.643184051685717,6.52468499785544,7.8726814550700865,4.206447537862857,-2.4824743206734934,-11.100322338032516,-16.83992650526023,-18.43943742469344,-24.214211877295813,-35.15308661070188,-37.76918425785351,-23.558207013718455,-2.1452897746061637,12.360651351973901,17.233872314810952,18.029521309436458,18.557177851357586,17.33654941438132,14.586848095953805,14.05114832849793,15.721273592794827,16.096912542235707,13.979491868760395,9.324857669931733,2.8602280463228533,-2.4377263111453185,-5.455627732434055,-9.986605412527114,-19.076171629825886,-29.184848799732602,-34.38257438066272,-28.946202288849285,-12.130498043249107,6.811824179239154,18.35203627493322,22.089042995743966,21.749744220975785,18.770903354325924,14.66897904703896,12.771948410464905,14.838132404832807,16.56951195161016,13.768300411227171,9.23575078518288,5.545432684924106,0.7600444672419938,-5.258291124908292,-10.514035468790734,-13.61681067139105,-15.99551480500296,-22.62873436009088,-32.73177206416185,-34.7111290531982,-21.621968199547503,-1.7930275298420815,13.191023033505466,19.509253024921726,19.12733150051848,15.811967581523326,13.40253134627937,12.254319364407126,75.0,123.0,84.0
2.467711562153353,15.591557313456061,21.59547301828315,21.963087031519706,17.527480696678047,11.576847684339954,7.456173542075048,7.363355814036792,10.97867945847692,12.157532604625473,7.786763376519727,3.5138056564225293,2.1590456274418837,-1.7879046049728542,-10.039607976236601,-17.230221396846414,-23.352661051295573,-33.63812428129946,-43.05949180872334,-38.31013913968631,-17.939797269528675,6.927704028696855,25.03673280928528,31.687246935643604,32.09599907097671,31.72638382277201,27.844862751289046,21.053705315716606,16.895830707246606,16.085765714645134,15.3061873779072,13.409347233654707,10.758487059223363,7.0385218246408865,1.8723674947744866,-5.148302633858259,-13.25024312488088,-20.672536150326064,-27.04982112365953,-32.39520529209327,-33.240656643021815,-24.340726443928162,-7.347135659678537,6.859196350794781,12.62974697359118,14.781638872953309,16.806851085614227,15.918456334946983,10.814421028373404,6.17101385928741,6.223597849842705,8.881869934186483,7.690473367975998,0.8323918892676277,-5.7529324703152,-9.105161909125682,-13.093795773357758,-21.802751509341658,-32.764320700155224,-37.23101053750342,-29.548356540508106,-14.083131945218799,2.022785516794397,15.720243825892894,22.62639103542018,20.567916220377903,17.064367573056263,16.089918547291898,13.825165148713863,9.856750149621387,7.673743750429437,6.77121063052515,3.141056817883693,-2.2947052609987,-5.472991341389853,-7.574788235462483,-13.025382362974575,-21.53919614835737,-24.562283290390155,-15.485251710880604,-0.0809430054892907,12.832869317954962,21.84891245863813,26.276571864694553,24.256838814789173,19.17354558284898,13.519747913618597,7.179851661639191,0.9993158308916014,-3.4115652677170947,-5.5367367618151935,-5.691198404577688,-5.326971853350999,-6.7282438092913965,-11.681668686500384,-21.076821032385926,-31.400888286883184,-33.6190494035602,-21.818619932659374,-1.8334217438813405,13.696425293020624,21.321589552923534,27.401369380480514,29.345302521072494,21.078291354425097,10.448226801087344,7.1671673622700975,9.354762234977091,9.808943953416328,6.072517875372725,0.6562788951161113,-3.558149177338327,-5.3567547935182525,-8.437929372816269,-18.370606380429496,-31.630631321774587,-37.1105303419441,-28.76481642796309,-11.390503040706093,5.400246025299554,15.040162277250552,19.02219730809141,22.403897661016902,22.69524283696928,16.09771288995907,6.952394398877191,2.1005970463182564,3.6079967330209657,7.442959052793447,7.23442323550128,2.5505732045978804,-4.901953380171408,-13.313916800549414,-17.464071859913805,-19.309411828631827,-27.266806776013627,-37.448986668669484,-35.282849513868115,-17.372891393773674,3.136235134091481,14.570268198002761,17.616511293158922,18.194276111087376,18.49412619316438,16.532975283729538,14.089728539024081,14.455496784404687,16.07860937146074,15.73509764999606,12.90488995636252,7.538669044480155,1.0761127242916366,-3.462826034130313,-6.367748941211982,-12.189467799325614,-22.155215976287277,-31.451846092778485,-34.11508496023626,-25.011705761600364,-6.325668661059434,11.10230033873597,20.058502667572526,22.297381588739828,21.13202825432789,17.577782200012244,13.734930646681631,13.031170225204024,15.671040412516298,16.21713721662098,12.421084942753351,8.127624745632714,4.357923923513772,-0.9331760822955232,-6.939386955367911,-11.652655621011052,-14.189967639283715,-17.280448296826258,-25.566496783338135,-34.71800956139048,-32.359802467726404,-15.98156434812083,3.3693785342344778,15.878221810716818,19.94324556846431,18.276826445475336,14.912582722985157,13.047071182210038,11.75159007762118,8.638137516240278,5.488047609087536,4.530756890681619,2.3064733914967506,-3.7354272337127994,-9.399072419332864,-10.795715085055754,-10.783024945886938,-14.65911994187321,-22.514762713701778,-30.748638794401284,-34.50750244147212,-27.77740829214481,-10.08270722986375,10.286093691877712,22.281764439171745,23.113737214473485,20.949297129921526,21.078937774201606,20.152941836637403,16.206739818273032,11.304849891273017,9.144319189623483,10.367584656204071,11.275929436953872,7.598229012602853,1.8267248065905093,-1.3999372692265328,-2.355114354257273,-3.654958501996127,-8.609890197136854,-19.025999363567415,-30.03305617188215,-31.30747084248826,-17.167284759604197,3.2220451441745896,15.052223177868482,15.651937209873484,14.42834412037464,16.136148711235016,15.430471659976384,10.875392208625417,8.565913993936498,10.643984502635403,10.82750099017859,4.1746018628126516,-4.261636284048114,-6.974844896494685,-5.074680084155141,-5.626932744897522,-10.793893458062264,-17.812628952218606,-25.024190440463464,-31.51407664614218,-32.63550807649752,-22.376883718771843,-3.75609640294706,12.779916904172731,20.74055112223896,20.372883106854836,15.661778209145336,9.767852794297617,75.0,123.0,84.0
6.343454310137395,18.67422932423445,22.76291535006443,19.304768825666674,16.648066613254553,15.713188775323607,12.713762318002622,8.927603751292027,7.473284316852718,6.10015968582256,1.5514739209646016,-3.530392552487325,-5.98392778900633,-8.666144301885693,-15.416416187536527,-23.454799393906452,-23.159017100083027,-11.200202777371477,4.105433174136022,15.786011953712867,23.741969994961792,26.29452913926531,22.905057104518608,17.596385926071296,11.752724674709027,5.302141273267011,-0.5076947426854115,-4.254127186357656,-5.752943234678591,-5.535613511469796,-5.460096289570513,-7.728136339214698,-13.963429895223296,-24.30379016963254,-33.29450119954952,-31.646499389603434,-16.32433152020619,3.5617442154285714,16.46537486351805,23.06209494607902,28.820023018312636,27.92745982546239,17.664624278986523,8.59458304745421,7.573704515748775,9.903251541691601,9.100434464588997,4.533732534812988,-0.7866847979017219,-4.287755185783693,-5.802784359806314,-10.526342782989428,-22.30457290949599,-34.48256566638717,-36.091522023236884,-24.260753309152154,-6.074808993583457,9.02670719471979,16.501411389701722,19.9899324017064,23.08740629826117,21.4592901836708,13.37030389406118,4.9043117021487515,1.9454918429042214,4.792229362292957,7.967302085022901,6.213451055504128,0.6742485466701037,-7.446543043409396,-15.113177154863877,-17.827889794700603,-20.795114257531107,-30.596707919393864,-38.62331154769593,-31.34889345844825,-10.991311108988517,7.561578692208008,16.048318727243352,17.82175416680909,18.378456569153453,18.199554642923065,15.678538437873744,13.86770308789609,14.978310226668084,16.243392348376222,15.169744687314122,11.608556908515418,5.643267267473147,-0.5221973590653455,-4.312786771684573,-7.5516759717066835,-14.786427888029836,-25.17675119815586,-33.16951539333856,-32.81428231705808,-20.20333412516874,-0.6590778792861531,14.614039698237379,21.199473247222887,22.246121306201506,20.30201992691297,16.348415998725766,13.081832858694922,13.623169651769638,16.30015699499449,15.448339716789942,11.062420894701146,7.091316677668808,3.012447679901647,-2.6911754347882706,-8.506639619655548,-12.584434186181973,-14.78315763139621,-19.06930546994944,-28.649765490369916,-35.66304242964856,-28.72943782370895,-10.113898078307264,7.8976135152937355,17.83646357007306,19.891286200016598,17.286577991278982,14.171663730334478,12.753149392445806,11.059372964403355,7.553418173163606,5.037596490419094,4.2503803835886504,0.8718739711089718,-5.678454844191362,-10.249978601958416,-10.662887088500735,-11.373749797359762,-16.65868194944788,-25.02916447199772,-32.574930548269414,-33.83271917437119,-23.570681508563894,-3.948859591392687,14.984665594417915,23.44301785173186,22.357913482439137,20.81551087521057,21.096601849237597,19.297464497406565,14.715030105326925,10.28661643077535,9.231127658082865,10.92054848274311,10.720237026357168,5.887952671447722,0.5429342782520491,-1.7967836195006843,-2.5709666056668703,-4.550316475464043,-11.122341833612914,-22.551045830282728,-31.866190799791397,-28.698185984281118,-11.19085832060171,7.9669410953587425,16.071755143633347,15.037486715796943,14.754998787540183,16.440672367939584,14.305266869134407,9.703763121974518,8.878047779772258,11.25657791624483,9.573543815302568,1.50964112537001,-5.795525266077642,-6.594328978529549,-4.7369237412802025,-6.734030799769689,-12.756980036514632,-19.892366439819856,-27.076354105438092,-32.71717945940583,-30.94680462186593,-17.42465269469253,1.6590873654999359,16.066816732522536,21.337002013872347,19.28238192064186,13.977792076767948,8.195507396211065,4.747236266577339,5.465194157211483,6.580726986692797,3.8142662891441192,1.0847406807525422,0.24630085501547105,-2.3823404098218695,-7.145796227504304,-9.078992195498717,-5.795964569425482,-3.688590532936581,-7.837992177874836,-13.967511442595574,-13.625970670067183,-3.648896545661546,11.003091334551058,22.674110552844496,26.27034932585382,20.65255157794462,11.83856330568318,7.572865047371288,8.265477944393393,10.406824292040291,10.890912645311436,8.80372150008214,5.950273594416089,2.6815555601230656,-2.510071523980387,-8.913508458659564,-14.18668292782781,-18.168115838803274,-24.011820275564048,-31.46310321193969,-32.999113542109356,-22.912032729192237,-5.592531188063933,9.716383655908698,16.965868704833262,18.99009549448932,20.358527773442198,18.56328004612951,12.267547073067899,7.013294203666225,6.871223180641574,8.31004386881477,6.3589151622867925,2.898279324907138,-0.2744484535548788,-6.34603766220897,-13.816689170941995,-17.104962597781785,-19.776331252280215,-29.008683698816778,-39.17501049047933,-36.25798613547282,-16.909742245457135,6.525239825876298,18.032093281490532,16.02382006642787,12.353907445853299,13.615298489863171,15.910350658322313,75.0,123.0,84.0
10.618989979355206,3.354983866719841,2.317511551332649,6.007806468546913,8.015176535619068,4.895911979582724,-1.4334673422841582,-9.981422246306023,-16.410781676000575,-18.191821713139042,-22.98195436593429,-33.82118239274637,-38.3929001768997,-26.223492770127326,-4.821715771549472,11.057543161362366,16.958336857595164,17.9636878416032,18.525546203949684,17.65837547674754,14.894198855885307,13.932921764217351,15.505872710435872,16.193032329858674,14.402629860754903,10.09234033376831,3.725724888099365,-1.8892767883750161,-5.087372689401533,-9.118244522318227,-17.679123875974312,-27.99380721589245,-34.18937847470228,-30.417964387806222,-14.766434800687453,4.591811604153859,17.34277013615793,21.892121303234237,21.959122092774727,19.288048811157893,15.169424219652088,12.780918422803197,14.434164960783441,16.581927119904385,14.350805478267036,9.784831644860743,6.0500073567253745,1.5040082976273155,-4.45687898607287,-9.92189264191128,-13.325706258858425,-15.544147494804843,-21.3935142533323,-31.55400816715936,-35.32999831238975,-24.048979936715387,-4.343565396517323,11.69645225291581,19.123086670273086,19.441680500553026,16.26564092987513,13.607646877727598,12.433942551748544,10.17418259669152,6.568710690435448,4.779344413386504,3.72036953454129,-0.8764438426349178,-7.430671178260189,-10.700166593873671,-10.557112449583931,-12.395743950960531,-18.925044744583868,-27.484418622067842,-33.88413015772939,-32.14023620371262,-18.524834909298693,2.1303375814180963,18.72743662090591,23.73819657181597,21.628705295172505,20.882261629498437,20.906174113836432,18.1872501386821,13.230562137942691,9.580424331944416,9.577492585407887,11.306506834913794,9.716137279066455,4.143419571199601,-0.44580081017759315,-2.064247318137816,-2.876443335973814,-5.8485019289104505,-14.09454734751295,-25.929318269528977,-32.60102090322778,-24.77273744349584,-5.07813548916553,11.672794006788974,16.266699976062892,14.561541068168658,15.307070461594424,16.358627840368026,12.933437832743945,8.904991038156988,9.511684176776416,11.492821323887895,7.7066317883675355,-1.0783582134167657,-6.7083706347314305,-5.972563647114148,-4.777018985339641,-8.198048020488212,-14.791467942417448,-21.97800061562599,-29.037580554673124,-33.29815319267703,-28.189928825280624,-11.97988636963347,6.635348938227397,18.548674001937005,21.30689714036202,17.93586752532691,12.250288769761351,6.818324398693458,4.563226776607322,6.050948188604823,6.141461354014794,2.7737118825739318,0.7859676617844175,-0.1935244687814477,-3.690593783763063,-8.253952833094434,-8.520620174368295,-4.686279952181449,-4.264738396359114,-9.783657874566153,-14.839879969129012,-11.643231486216209,0.4587424530089351,14.968488624132213,24.689776698504417,25.479861738293863,18.008810037259078,9.969243467926404,7.406081375600175,8.89124246533263,10.82036794546078,10.501073264210559,7.973187177612957,5.123114970317758,1.4047718147767225,-4.334021983999238,-10.64001768385814,-15.361240525120857,-19.533812449185238,-26.22423267106622,-32.92497787001698,-31.268984475661256,-18.261551884503753,-0.5637749582411613,12.68755405208967,17.786853167229523,19.442314989560618,20.362256657764203,17.052947385760973,10.339948819927935,6.462990735171641,7.424930839030748,8.144727897932185,5.319417434181413,2.0547523418252616,-1.6213056276526974,-8.648857869987832,-15.282266929931176,-17.51745471421594,-21.70092085014991,-32.478477037288954,-40.15589801163499,-32.05349172039937,-9.75555650333626,11.532715840890646,18.419508403327434,14.599000076776667,12.260217738834301,14.426230020205074,16.13559096504315,15.467563896439048,13.724802163028542,11.675892781531676,10.813448471814748,11.543646461475603,11.768699699421061,8.772683391625396,1.9060416235342288,-5.874507389335222,-13.080686641390743,-20.8031025349259,-27.620026628667482,-28.286254688783426,-18.337853851091676,-0.05784236814295818,16.655989312859937,23.85164165765982,24.092841190205366,21.550544176952258,15.72276927662507,10.707246347023718,10.303268404297421,9.754368732547793,6.279017306568988,3.2023434064185916,1.6172404230104556,-0.5043299399432983,-3.231404325148389,-5.291845203957716,-8.303319242381798,-16.404972494133393,-27.861136614651258,-34.68522535454608,-31.503290295668947,-19.847343183605712,-5.502485335399568,6.521767478983187,14.359118266664499,17.547447747671892,16.883967733164305,14.734373573632071,14.606845900895602,17.24866380270473,18.640961509695735,15.846512878452723,9.730469388929903,2.835520413741248,-4.047877898242598,-9.549277737077569,-12.220522962735759,-15.673773564195882,-23.989994998697668,-33.58635195525929,-37.79642943668886,-32.10741574260245,-15.218999831962666,7.1996885000096755,22.139780187612285,22.792688330255316,17.7955621598181,17.056077653254768,18.201750901741605,75.0,123.0,84.0
12.00495757098188,9.14119116912582,5.775037221100841,4.613312528970812,2.8417805614496916,-2.8175743640811564,-8.866896648322587,-10.819700815383548,-10.641395780553767,-13.852347403302817,-21.360983254013178,-29.77861965487645,-34.50163832120778,-29.392715904857674,-12.845244859885067,7.849968898804536,21.407678916328127,23.40370703403647,21.100942949968314,21.02520811740708,20.454761444492647,16.867315182123274,11.865435906726976,9.20650223293994,10.099759549001657,11.379200201837726,8.331946667551762,2.509864500926277,-1.15427777493497,-2.266950351724389,-3.352415239327311,-7.6215041431485515,-17.418765268619367,-28.888951348654242,-32.037306668960944,-19.756630865891708,0.7431731522874839,14.243176228709006,15.91481307208817,14.388053673318439,15.902947708075354,15.825021485920917,11.501122560590352,8.564445631278828,10.292294826525602,11.183701903282667,5.361876059657344,-3.362931279442018,-7.0137257806974755,-5.32515379202603,-5.256115163838964,-9.930491692572803,-16.856246100183075,-24.065266484806273,-30.804633614035065,-33.06369051170104,-24.418290890664178,-6.340584958378442,11.004131433227904,20.226629987331002,20.764063447196506,16.409224067664777,10.535865668048263,5.718184717234857,4.743917477619581,6.4984823995031595,5.341501091933555,1.9076048129727405,0.5932401147807171,-0.8838462322008531,-5.122470180650283,-8.961971236116314,-7.552947632245602,-3.9074018687844165,-5.402462800623173,-11.702606937034659,-14.967235974601184,-8.864969870533008,4.767840672731454,18.510866196300835,25.935708813594953,23.93772154840569,15.332198896733376,8.619455481785549,7.584133410707595,9.549528870293242,11.026550330087671,9.909183377259616,7.140139270417042,4.227880500089981,-0.06269603697420145,-6.212184272397061,-12.209269522123575,-16.468167977572204,-21.15341202938578,-28.489077957202262,-33.64645229415033,-28.515960416344562,-13.207075051794773,4.0587159638941985,14.905696079610411,18.34074179616654,19.89285415238846,19.971295078034967,15.212501936609716,8.68438185630432,6.373922765089469,7.945241567633623,7.621682270169973,4.276614327870485,1.2094369460933738,-3.311617793325137,-10.929306179296862,-16.282489971903956,-18.104921741037188,-24.294841430522773,-35.71488521169172,-39.706257605749805,-26.567323284700876,-2.690574336679748,15.198516653696151,17.850054704758108,13.379339526980509,12.604040965364563,15.16423226943639,16.138439662640415,15.030163723284408,13.121385315987817,11.230726437631404,10.9208188331045,11.785685606060662,11.333751082728213,7.10193095411787,-0.39307071035191354,-7.977899812344921,-15.232492355836236,-23.04958085103291,-28.71282410992977,-26.568147771314006,-13.581857822133314,5.446803833525316,19.790382787021798,24.343679009437384,23.641645772760754,20.168913238103897,13.873531276778865,10.202626255305319,10.442103286247036,8.951918120133964,5.200610180437838,2.6726297082381367,1.1197009837775758,-1.2902682977703213,-3.919991457876874,-5.864602025704787,-10.023515385316442,-19.67319320764828,-30.6675618787985,-34.85273449079092,-28.788426597457278,-15.701143816807239,-1.6570018326317637,9.249390788991855,15.755492703079057,17.67399770633132,16.270702665129754,14.350965499626994,15.208558941629144,17.9809908284817,18.292607607147712,14.302358828012167,7.744046147602018,0.8325842400087002,-5.8942035471198775,-10.568280986810304,-12.858949757378731,-17.586684457384376,-26.939797005061344,-35.60811327229455,-37.30106960348746,-28.30921994990336,-8.807190045785461,12.859806574182686,23.672879345352815,21.313192789744818,17.02452721244938,17.513887301519837,17.947080096325145,14.175849010699416,8.9876293437439,6.946787437324532,5.73017201472048,1.3794798222208255,-1.6855335888112688,-1.2068196128448807,-2.5648714462863507,-8.653168387907256,-16.807561952370836,-25.16954707731863,-33.29395846749122,-35.92086327941371,-26.670471212037892,-8.824587793915443,6.401458882078186,14.798245055857787,19.960398978424205,24.976389735648198,28.42728447264761,26.508486940120385,19.60885786935989,12.935014309456504,10.052567217812392,9.666643627495713,10.412881734403847,10.671481528295184,8.435107777043621,3.701638762969241,-3.0528623606789247,-9.742257314865315,-14.69324191114005,-20.81038168796128,-29.497298566678136,-34.8042210915009,-29.88711508159379,-13.81580648828255,6.370728967332656,18.901387794914985,21.151150032421665,20.67617633253652,20.15122631029254,16.367648620009025,11.69579522172018,12.17918890459312,15.924488424011814,14.12606141376761,6.679979314944303,1.9886386534445242,1.4341278234521808,1.0821192646120523,-3.4439566101923504,-11.694282967366405,-17.52401521528725,-21.268922597372576,-28.92042740975567,-37.571577428315045,-36.243635980205816,-21.888845953658034,-4.797648210565089,5.178265224958772,8.953968365878978,75.0,123.0,84.0
8.901210310841444,4.964833073007602,5.200450007777961,6.6446312444310465,4.315055311193168,1.2876854810634535,0.3826447536229535,-1.8495025672691572,-6.540682958627946,-9.165948268503353,-6.359606258582073,-3.624534330004594,-6.994784395873476,-13.357215449756131,-14.250999242057672,-5.417469041446079,9.07290880418251,21.506385217798915,26.35853714577608,21.79035082531349,12.857924044065463,7.791509228837257,8.01078819372406,10.161204552357075,10.991240757260492,9.173304765050373,6.323874393086447,3.207320315548126,-1.704288276237907,-8.077097680203194,-13.601341002434394,-17.604764858829203,-23.051504102889155,-30.60409773055489,-33.44009377005548,-24.85657969098009,-7.987613961249914,8.092090539673624,16.446035074673684,18.78860730748182,20.25548035242179,19.116334959144993,13.201342897009749,7.432150997482467,6.6551175208143345,8.265198453649846,6.804580373007136,3.3106026423275723,0.24467071932810122,-5.3294067482425715,-12.989033722536599,-16.900495010929983,-19.11478050103741,-27.438643157691295,-38.306018628525266,-37.70436227688396,-20.10862293329633,3.82333775696093,17.450658721487756,16.67134041620816,12.564527903924688,13.255669786954623,15.726558176805355,15.958749081291447,14.535578768497622,12.50568293991167,10.936464921324422,11.13964657874352,11.918803231822302,10.563628325237461,5.131131893639481,-2.671180134852813,-10.042065028023686,-17.461553164626153,-25.138285508032812,-29.13771548640551,-23.889701599844106,-8.270303436523173,10.516800730300849,22.02448610128046,24.42566058696516,22.9898742128063,18.486928584012933,12.28199210661004,10.089087008801442,10.382597133265563,7.930014016505238,4.260072624647867,2.236775681019722,0.5271605723952542,-2.0987096732250934,-4.518884550541454,-6.6133156733072,-12.263468862322426,-23.084297944607403,-32.8668707781001,-34.11728340927427,-25.468560185378735,-11.491599873293175,1.9047874250645047,11.607258833892649,16.75721954320727,17.515448818545806,15.603805922238177,14.23205244420111,16.000486014992553,18.483315815084513,17.56057817559061,12.538606128665048,5.749612577792429,-1.1738932571623988,-7.560953022046359,-11.340640755426369,-13.720777472926068,-19.9483420526826,-29.831893916335623,-37.028626783410836,-35.895141096348205,-23.57472960560638,-2.168137790922519,17.532750118776107,23.99259836135365,19.716597668385866,16.749591627585993,17.950496170952867,17.289003210015498,12.566055844440505,8.00897294681294,6.794206000196796,4.745154590111886,0.07644359761091371,-1.7464624473166503,-1.1527368322088358,-3.890433083717286,-10.952672969229138,-19.188765214843244,-27.656486952234808,-34.972894446004496,-34.580730075719224,-21.92376288561504,-3.7447712013013015,9.438715557689013,16.420422907409108,21.39176272241684,26.312766585256487,28.53141548872089,24.849030088554116,17.398689021595537,11.710727589314894,9.775320208745551,9.803658840534544,10.651150826599991,10.316626242210953,7.299999436553419,1.9193525383926615,-5.137260709067638,-11.298865443107013,-16.159583237948695,-23.19136101876103,-31.755954383733258,-34.60341909974754,-26.251570755134946,-7.871678393730189,11.174728635336436,20.35340981328621,20.968055415927658,20.67134053507785,19.45352633081525,14.809771000444213,11.161362636212688,13.30108445099534,16.26870237261351,12.188164190672547,4.784957382565494,1.5503064189584805,1.514107427594385,0.3462630305823727,-5.693552164409382,-13.831925729684684,-18.531599685745586,-22.9514148155389,-31.764655961020765,-38.639130109550585,-33.15753246608251,-16.640263036803987,-1.0093897770473472,6.620696773316689,9.842750787816371,13.601727303608788,15.905862943630787,14.525166684254554,10.760821225405177,7.6926715032000645,7.371734639836258,8.736561815469837,8.938537804373183,5.8690097012080304,0.7510846371757101,-5.071549917539981,-10.449273976104076,-13.439737243690177,-18.414290616297897,-29.93619747548875,-39.55243464552145,-33.24126168468897,-11.138699802335486,10.161582149856141,19.907104331460822,22.15660635074158,23.956126524781222,25.22021295709707,23.243573227318848,21.801794186597657,24.229264194210547,25.983385479725534,22.922591389264863,17.139171255227076,10.592886431374428,3.0711314884104453,-4.5868200635508165,-11.188880771386692,-15.786947674248003,-19.574957427436747,-25.43535038198213,-33.587504186842395,-38.64888791109899,-33.02881483251926,-16.746889303708123,1.1918725001824473,13.352014255415394,18.46910114749034,17.955961128303603,14.314361525042758,10.965568176106096,11.522250267401056,15.31551118818164,16.01329422566021,10.03172437894382,2.915022781307378,1.356261912881556,4.59850690271395,5.779145080547689,0.06607647670937508,-9.207307620126173,-15.467086749991402,-16.702539911050938,-17.95027936521116,-25.06131167511295,-29.87849471800355,-19.432464342421408,75.0,123.0,84.0
16.060995362491962,15.645103677267768,13.991182771900506,11.92065532111819,10.813457395485568,11.415000179953283,11.87104797762701,9.424275997577999,2.9519627736618794,-4.881946029139431,-12.11201207907646,-19.746330530995312,-26.93297161070897,-28.760102681021063,-20.285789394031987,-2.6619945736786046,14.908411384798525,23.437265964077895,24.242285800276036,22.076330121867517,16.609135622183768,11.09598972954415,10.215820047523717,10.026505115170147,6.801985988077571,3.4956207961942303,1.8210410310176486,-0.1603867501743752,-2.8866190022438887,-5.051259537394158,-7.674558903788225,-15.000217844423835,-26.41583887659214,-34.306681308110996,-32.51388524696781,-21.695262543381645,-7.3544522606591585,5.1438966140592415,13.581373326016521,17.38008523156607,17.125175607346527,14.97969984495015,14.418483940928429,16.86340662304203,18.67350067969533,16.463728563539437,10.634927441667783,3.755950543756395,-3.1560837291574875,-8.985357003921743,-11.954406458094617,-14.953252568347038,-22.66095934623282,-32.48757026583936,-37.73639175273882,-33.529124664838875,-18.013099702468942,4.343831921616205,20.989551326937182,23.33563973085006,18.313826289098024,16.891678172634887,18.19274409896751,16.243602735476134,10.974173612658381,7.377051314248259,6.553683298198733,3.4661252589444858,-0.9278153949117488,-1.5630110948077076,-1.4206933764726728,-5.6105047776069785,-13.323792891426299,-21.588280852692076,-30.095689526470036,-35.99911647172709,-32.12549339836503,-16.682313457674084,0.8330687496496499,11.924800400990463,17.89396193423093,22.853805267495638,27.43081353024842,28.098638367082593,22.848368283372423,15.365447983164172,10.831067172432808,9.646289268356034,10.021723814976234,10.787174861176121,9.720153351135108,5.974282814836278,-0.0259563532991684,-7.129970209176416,-12.70959009666143,-17.839383968389125,-25.75699320120834,-33.517769095538945,-33.425223250758954,-21.719527971664313,-1.8525874993008558,15.056871380718555,21.036934481029142,20.785464980686623,20.60799504490141,18.406529751018844,13.328135143338137,11.191374643994967,14.522804298289453,15.92152278608696,9.943006327672059,3.319597962056485,1.3876430976303156,1.505417493174152,-0.8490230812876964,-8.149332183754135,-15.60234562150967,-19.49948303197801,-25.094112692196166,-34.484340737373664,-38.57987117532179,-29.0666194123969,-11.50879881235971,2.0278280921123395,7.685320559637572,10.841936455888607,14.598966464651586,15.868836120195407,13.57507501953159,9.650990533614065,7.316143594551284,7.69595088393747,9.058115037551858,8.390966562652633,4.502555397621618,-0.8709799821496027,-6.791518572088787,-11.529205976323516,-14.316227922919364,-21.165121751729032,-33.593813533597,-39.77475554493915,-27.908099563664354,-4.116098357565046,14.197142982930911,20.947238762475017,22.559810152575775,24.56373375937293,24.944930092892115,22.496398759859133,22.176915474495008,25.107043239220037,25.58778119853054,21.380062066277233,15.326937543482401,8.513332830158785,0.8120227806077993,-6.652301828023607,-12.73519579597309,-16.832643988188234,-20.959372318932797,-27.679517944118615,-35.73724618241397,-38.34334152605091,-29.1215011248388,-11.27943279819259,5.444510731287227,15.51877543598304,18.802515642212853,17.097703451973405,13.134359993006212,10.626912672574985,12.496066578841281,16.15005173335181,14.878040649823248,7.709811180331629,1.7591769463329456,2.0421192304886935,5.488085275852748,4.8462254849477855,-2.562015894959657,-11.540600314101354,-16.252165725273265,-16.685519570089426,-19.420187962500997,-27.425739823374155,-28.618120424650932,-13.864573949631335,6.39816869269039,18.661380247903615,21.105082662378706,20.098445441805357,18.636608011357495,13.952572963244577,8.316322896002942,7.564497289206878,10.236310554886918,9.967836682673225,6.626895180869411,3.9111062357783593,-0.5852926886835653,-7.821017336867238,-11.042404479467466,-9.156507775241993,-10.846593265668684,-20.053906691606308,-30.01503385333356,-34.420216926790275,-29.489840685605124,-14.447915064337765,2.3993762722611933,12.434187070801174,16.709361826333538,19.438264434031883,19.989987182110095,16.149511147574415,11.117072117274565,9.814018182928102,12.242275685027945,13.480460668223,10.601745816026298,6.2793988890713415,1.9591854615687307,-3.5169982218326408,-9.265523131507887,-13.812230936296105,-17.82915241533495,-22.837099806228405,-29.11575572500055,-32.940898300410154,-27.415281824947392,-11.846443865844568,4.651874587913942,16.01460626492256,22.958074765105987,24.53561285465382,19.588344146051654,14.56156946534665,14.331822920990787,14.0940297295938,11.489238902131389,10.236858679117836,11.398292370810935,11.345211577738812,7.423883091279395,2.7493859310489723,1.1179949529495832,1.0979178741880868,-2.455436785845152,-12.216622776362017,75.0,123.0,84.0
18.113448449752646,14.880659294949808,9.55175859602093,7.037493404237561,6.066516215036174,2.0365424571251007,-1.5395184408627505,-1.3026450133288794,-2.1011422732205722,-7.640863543011656,-15.70945356943649,-24.029105582566938,-32.35791188754278,-36.17373420313261,-28.60835490380352,-11.279588624903088,4.793081001732022,13.969810193730353,19.309306310026006,24.317977290710097,28.211504439311724,27.12655290964333,20.647592691464794,13.621976672953322,10.243373906168342,9.63586386365644,10.287810117294654,10.756174829929902,8.890709050312843,4.461900969487978,-2.0853400931681594,-8.961903790715484,-14.06019093657998,-19.803320478021938,-28.348776508851564,-34.587822818336214,-31.23592050564626,-16.441224427075163,3.899287096895866,17.921221510610714,21.189593777904673,20.689964904969823,20.359376636906227,17.05935854471268,12.11597816935582,11.763060554539562,15.572381805960504,14.845894694503297,7.668036224979092,2.310931065747481,1.398650852484219,1.287106783670621,-2.5234655827973764,-10.61161164216047,-16.99180831995107,-20.636466708321763,-27.645756502598246,-36.7607053934147,-37.27102307393487,-24.256168105803624,-6.780609223559075,4.334786513150211,8.563962704982467,11.948037441632094,15.35954772830949,15.520000210447115,12.473697941311961,8.69361520300936,7.184563898156882,8.112448538049403,9.198419294564934,7.5469368917723285,3.026801631149273,-2.547029917403272,-8.4179230724239,-12.377167083992473,-15.564798259282934,-24.491668865248815,-36.73522337912337,-38.350442551117034,-21.4853361519096,2.346754364163946,17.17643759351716,21.570050319520643,23.061788367020707,25.027954688963153,24.3733429732087,21.960365926518868,22.8846813328311,25.7458405529788,24.75750033295369,19.706332395439976,13.460599618189288,6.344397404218526,-1.422075494659306,-8.604988124918851,-14.091889922059188,-17.876927442194457,-22.585288200831332,-30.07828540480909,-37.43569319991532,-36.97454895759975,-24.443532981501434,-5.9463237896218795,9.10467171903383,17.109816436317303,18.714399833922847,16.043222096396224,12.07666762281387,10.694765635649714,13.655524169402788,16.52975302759068,13.18327231909244,5.50972858846039,1.1846860362116223,3.022897198178155,6.003261359989346,3.284910412952238,-5.322021126039068,-13.475891476893839,-16.629635238550218,-16.87250761853371,-21.46662114732677,-29.20272671511193,-25.85538920584978,-7.829041976199549,11.092797584542069,20.155966052394252,20.87726413316691,19.816424559860614,17.684719394732028,12.1207377539139,7.472732615121064,8.275044258580253,10.649697523394366,9.11033397942871,5.7507054023395145,3.0048985071935315,-2.6150310166616215,-9.45812135108229,-10.72965582040641,-8.876077703367791,-12.896423729087989,-23.235863582142855,-32.02127643571251,-34.12109467522187,-25.98617839528255,-9.24486177849611,6.132397543070992,14.032505548972791,17.571901976210277,19.971143743735645,19.309322856744053,14.557272577977463,10.23298511159504,10.296305302970621,12.964034362405643,13.027694710676482,9.343693815927473,5.086734550658125,0.507736057145756,-5.238784734997806,-10.719329281711966,-14.951144161489275,-19.12312948154299,-24.582877355137498,-30.7698806505513,-32.55543021645374,-23.660094363617272,-6.7256657833557725,8.48521056403107,18.434267505027197,24.098531989944767,23.648878349948305,17.734820040388275,14.094322543673611,14.531971888330006,13.46783331344294,10.826619569200732,10.42812502788577,11.710318219263439,10.579116657888306,5.915179673443564,1.918305918508271,1.1446803821512985,0.6612265810211165,-4.6833857917903705,-15.811331400446031,-27.37851045562963,-30.793469631983562,-20.55295437730112,-2.0266451076283003,12.795083450947155,18.03765305776554,17.000080677213063,15.840427414495323,14.896326006609296,10.617282568176396,4.456750432287396,-0.21786222015298723,-2.3509319951988727,-2.174616825453854,-0.149030197608659,1.9417785751024415,0.533283457361183,-6.669828548180936,-16.811110461796943,-23.75942949005836,-28.58559602881689,-37.36162018067606,-42.591986067478494,-30.477710337993486,-6.601984053333423,10.13972862002328,13.252772642585029,12.573556088258547,14.628534412267056,16.487170901631522,16.13645738069828,15.704850331391233,16.570179013637258,16.05032118304679,12.143294894214376,7.225038168540636,4.299659884105114,3.1383885249595944,1.4580300514421367,-2.30208487810034,-8.145447744804049,-16.728870117471523,-27.624645897353737,-36.277824790169376,-36.138497076413515,-21.897865206085363,1.2917496530469208,20.629877401746803,30.358707004956536,33.77236786566595,35.2372782601756,35.477599262981215,32.40325148731478,26.876515207803138,22.117109335868584,19.14319824564409,15.586737616282822,8.211938325836575,-0.9793060171367466,-8.609449574668442,-15.295365161262438,-21.12330359700947,75.0,123.0,84.0
9.42190717959596,13.091614759419926,15.810843374820402,14.894987781126616,11.300361674861234,7.9518903240496,7.270226233903235,8.549914839709105,9.087632380760938,6.446520496761637,1.4815526898009286,-4.269790324915597,-9.863331742783963,-13.100534042710146,-17.36663880933981,-28.189355437749985,-38.94883774980263,-35.22616699576216,-14.448060021744674,7.933909535036504,19.225027051461403,21.985612190271432,23.66272497934511,25.233748313130665,23.614413976965583,21.761095101047317,23.79189700300245,26.010384672234064,23.566413789968014,17.96014926045579,11.518847516540388,4.111838379124671,-3.6043748091674495,-10.412774024986938,-15.281412766507758,-19.00490414962294,-24.47615847177672,-32.50507379294393,-38.46030255222928,-34.51502370476304,-19.243851452764492,-0.9532766912726993,12.152298859292818,18.157617180505678,18.26622008049178,14.870433633595999,11.245785716377044,11.174324366911655,14.826101243306866,16.323897091135194,11.082095575604425,3.6297997444096124,1.1826016006263975,4.113935777350687,5.991108350412726,1.1808661211886966,-8.026429948844727,-14.949365197669863,-16.71544932057931,-17.48128803290908,-23.89854359938186,-29.964582917741726,-21.72202120419687,-1.7578427529300917,14.871834008125813,20.91781753289987,20.551928886279356,19.47652051215349,16.380730809506048,10.362936559566808,7.155362220082921,9.131872456959766,10.665855728436002,8.098371172422116,4.989831171885106,1.8101271136194894,-4.798920736927842,-10.548263666455528,-10.101227881746496,-9.156707714706888,-15.544744414149328,-26.245750065291933,-33.47277159671617,-32.93556257865738,-21.688393048169274,-4.190671756994047,9.165486165955627,15.272066780096967,18.384527991416768,20.242487799864886,18.236528235893328,13.008464037923416,9.758077373174414,11.024744880851225,13.435089614406033,12.222517851329869,8.07191400534841,3.872958521244064,-1.0632884523021153,-6.933740761795179,-12.049250674260906,-16.08784098989384,-20.532115790882155,-26.425328172674913,-32.0738383702427,-31.209243364488863,-19.17000959263627,-1.8118266190594197,11.846103929031708,20.529279377149894,24.717109242816022,22.231593746710676,16.126876036246923,14.03362179516494,14.549464291374754,12.678654704775234,10.392454803001455,10.785844145399183,11.79945319546948,9.470666691684825,4.479201034879038,1.396789946031289,1.21410763644613,-0.2146274553544133,-7.4372465878358165,-19.466663463000824,-29.57653072072958,-29.24946759651497,-15.520481930405506,3.086113843103563,15.292929573792593,18.080303436831098,16.504835013368503,15.719651226022478,14.069168796644577,8.838452868141411,2.874099783143953,-1.1019227993810348,-2.5164057881081003,-1.7459587560267462,0.5882253921397952,2.0559733994239116,-0.9555689154723255,-9.580098450261945,-19.324667068958664,-25.04069162359615,-30.676169759787577,-39.99125685645648,-41.11032328350404,-23.970002042603586,-0.3386230763886668,12.179112621161606,12.924580445761015,12.918962500684273,15.36908808430335,16.570163583547913,15.889806185938163,15.87624132119406,16.72579409852326,15.238102969121162,10.65326329899777,6.116998769405033,3.8717873137307204,2.808003276143896,0.604794943566615,-3.7817466647230686,-10.285422815009952,-19.78155417857693,-30.612695828113335,-37.46942283691347,-33.506898906211326,-15.56728532215814,7.758030400845952,24.386388170046107,31.76091829102793,34.27565780774199,35.51546165406141,34.988474360393525,30.907535572188817,25.317761745164848,21.112663702313164,18.359452544476024,13.884792462611262,5.527442714205813,-3.3681603101863415,-10.593897730376987,-17.093691684717385,-22.62271815969801,-27.685562983922214,-33.6986472584822,-41.22430919120055,-44.698095929274324,-34.13685735748653,-12.36800890087969,4.393829923914733,9.402292314345912,10.393650772577683,12.351906677887003,13.074874009466324,10.397308861958313,6.765687320997212,5.779772737669069,7.1141985137192,6.821209444704916,2.0593843061128494,-2.8218903696576976,-3.3746860894628012,-3.2017390490223074,-6.141726986253895,-10.961050027872128,-17.651831849265513,-28.143240333176536,-36.552763385750566,-30.361930939338123,-9.093864403010235,13.962553336509764,27.376330407236374,31.68058249086454,33.831479333488296,34.242871957014614,29.492617400443976,22.810628284496115,19.203329896578627,17.48436356561995,14.590794618691527,10.815415550627254,6.193582956869892,-0.17075469828828366,-5.29202232721946,-8.240717716180022,-14.376927065681059,-26.170957933086115,-37.69138482064375,-38.28371017270151,-23.21884100891275,-1.5020270351534937,12.499705684429289,15.550974799972064,13.985252951685974,12.811024647262691,10.712135097071895,5.576749532510553,0.6484054926204522,-0.7356625645176156,-0.2702417392991862,-0.5774871600459965,-2.1547265594511984,-4.432741375443593,-6.771407472476881,-8.338607825000414,75.0,123.0,84.0
-16.5163806198369,3.964672673044522,17.68286284687624,21.133974791736442,20.23283743927756,18.963247654283858,14.768927416611284,8.87020058345402,7.337901248229989,9.935463898072133,10.271851117052343,7.073076497909831,4.2666886771559085,0.253537763621978,-6.924516070478762,-11.022762147651612,-9.415394564839849,-10.14099292789529,-18.586163201671113,-28.923720510173172,-34.28672914320774,-30.798576976282472,-16.813467802737755,0.452233490500232,11.537094254352914,16.286785826030147,19.13147917498954,20.16259798230065,16.855499180048373,11.647378822686106,9.704979218060354,11.861922370214723,13.55672111907733,11.15327323838273,6.835481555995048,2.5872987003706553,-2.728930789428831,-8.553969444894008,-13.273626093269089,-17.26393321817281,-22.076811439839112,-28.284885171210576,-32.830855164719516,-28.8428038151611,-14.209906300239593,2.7194277010355945,14.78538131141742,22.28072794818454,24.73817512676894,20.45976748095333,14.94126138919275,14.217723735714948,14.30183046961642,11.849143068944192,10.22532085272911,11.211329790055334,11.572443592400695,8.105729458426891,3.234588595318135,1.154224587059298,1.1853655979941347,-1.618130273643495,-10.630441018537544,-22.97629797045665,-30.871620545708254,-26.492475811275213,-10.064339150075368,7.600503704036349,16.947419508018704,17.756017504288316,16.13489616434621,15.53603279196947,12.886390569205915,7.012067452929422,1.4690223478256665,-1.7631759208302291,-2.503354540800416,-1.1711039571453135,1.2633422312213503,1.7807748157028445,-2.9567784040789364,-12.59789822249108,-21.42090487520639,-26.302716903648182,-33.217855229250645,-41.92832385591643,-37.920563167212556,-16.878587265991424,4.857908256043259,13.142893518515773,12.613461088037752,13.51951817128061,15.973231547426588,16.471379939934828,15.71722237493903,16.151239975296765,16.664619500417277,14.135072669226773,9.176628076416984,5.226436152809325,3.5497047768810472,2.372514138186444,-0.4421034945308661,-5.4226883469879565,-12.696869895832304,-22.97146459859927,-33.27898755590542,-37.74370267448609,-29.612411294984806,-8.758407546400045,13.583244837023608,27.323709362970753,32.7676520075282,34.702971172706626,35.66025617969898,34.165107848182025,29.283218114682636,23.894383715313186,20.253551763201855,17.4304177278192,11.806024994130402,2.8122598418293006,-5.587005633519578,-12.538623850449897,-18.79917689565827,-24.079051066210972,-29.25520049085408,-35.79133325434075,-43.117485672336,-43.35467800977674,-28.363682005281664,-6.348501705348341,6.850973651732394,9.698696372993702,10.879066150668065,12.846400667269716,12.634543481293218,9.244651334771934,6.136856965248897,6.048331713859057,7.4187662407847625,5.851015683890824,0.34471533813675814,-3.4092465397847853,-3.1206849964982206,-3.7315729509863043,-7.418307334395511,-12.596525934582031,-20.30895265950026,-31.362548462094193,-36.64617767715902,-25.321989498893863,-1.9367907106220688,19.049864734956767,29.243587973652033,32.31407055701917,34.32885124277438,33.41286735479791,27.464391068290976,21.378692201529464,18.692399197865164,16.814436318792573,13.534821641691952,9.639686409332507,4.48230248696942,-1.9608617631484995,-6.194466525598474,-9.437124775522706,-17.300283195730128,-29.989703488423146,-39.4014371587659,-35.42191525312799,-16.916412237603495,3.760055283951754,14.307652166366571,15.24812350651099,13.549290648188833,12.468215165901313,9.494301166747071,3.904447336059057,-0.12866685166700587,-0.635566082245398,-0.2271201984024887,-0.915419664497401,-2.7731091316570122,-5.134949246410118,-7.324451651310643,-8.712548222987605,-11.141261539988774,-16.335037779372175,-24.009531052652896,-32.68699758442592,-35.59955906116724,-25.39510892316088,-6.01473119472261,9.552929877052835,16.463744316348706,20.506904590268405,23.735777467499915,23.86493974992581,22.386023272001847,22.924062866744407,25.359917715596815,25.60034474060472,22.418969568979737,17.466574893830987,11.5494707784497,5.1203319615203515,-1.1230689004783372,-5.915883027403532,-9.44353738187743,-14.22392109329496,-21.755014415837966,-33.509998142778905,-43.47332880727401,-40.25366672922376,-23.554582001445265,-3.136334034918328,13.30981990607886,21.35325762264774,22.51590233232013,22.208256462400648,21.048633650038518,17.31263937975008,14.250454094788294,13.912034666038634,13.517417500493151,11.27085598195818,8.312920465378902,5.285386110296591,-0.10741062626210444,-8.126137402035729,-14.410882381527363,-18.197191995178343,-22.991367949670263,-28.402011180273853,-31.02116757104353,-31.408635027320415,-31.760196508290026,-26.953684500277117,-11.532486381700656,8.4807087127382,21.864769033619645,24.940232172477184,24.044856759715238,23.232178705525474,19.679488349464123,15.690548024443345,16.362119068091772,20.477418587284294,75.0,123.0,84.0
-14.134933910004623,-26.117284192583554,-31.090418454117188,-22.64014216176236,-4.5219871751762435,11.350624095502432,17.843799684373415,17.249093406560846,15.908125483197892,15.162925665449144,11.388783672882603,5.2373707038297574,0.26486106896059425,-2.2115589722711015,-2.317458176326544,-0.4865630612186922,1.7823805356341458,1.0432949237703433,-5.412799842560259,-15.534568876821364,-23.100475027774618,-27.778621117070916,-36.045968994014885,-42.71827195451808,-33.13894290515337,-9.75233735339209,8.778206021891174,13.331550589032002,12.517408384883842,14.268370433468036,16.37641921791926,16.254585685829255,15.673937480621237,16.450962409843797,16.317338069493612,12.806888104783791,7.803492690324428,4.548344830667528,3.27045128410399,1.7871959832692594,-1.6749877384403236,-7.239464841893624,-15.39463976792106,-26.17773856132892,-35.47217960193223,-36.92371587621942,-24.560894278259717,-1.8376932039017533,18.60587828783153,29.542658787489685,33.49912877481679,35.081009425962456,35.597146405517194,33.022720907666866,27.627063833202723,22.637323978133235,19.48686628175669,16.244977729071778,9.402402154103395,0.18228218952980157,-7.67604396111677,-14.439389617655097,-20.409576237686913,-25.523752817846585,-30.944971259478336,-38.008599964745386,-44.4386739843123,-40.60277392526837,-21.939480377065422,-1.1887475481962297,8.364142362704115,9.921867163367025,11.465962553459546,13.143579274591904,11.890440544179992,8.123355775926479,5.792158721277178,6.4612397813338704,7.4571486623216945,4.489990264124762,-1.1944351992127131,-3.5937452689782394,-2.9741552353934706,-4.548431724823788,-8.793709240125962,-14.433103151004984,-23.33009434497265,-34.12509837601224,-35.22408510551224,-19.204925101185065,4.9711538572132685,23.144354172135326,30.496903475342393,32.93415218287549,34.58169849985368,32.096469577944106,25.440367588489586,20.283556415326167,18.2402040288276,15.999025311822736,12.445735578674478,8.358736904958063,2.6222643905420804,-3.523522748248929,-6.974929277496717,-11.063989553737501,-20.686587312596366,-33.552538194186226,-39.9336831086805,-31.238279761148267,-10.43465058383907,8.07158901246243,15.272394950286445,14.754743738664963,13.213860037774223,11.950264849392777,8.014033065461703,2.383545045524778,-0.5728388085252023,-0.4709695278891436,-0.28724054284292666,-1.3575954427871557,-3.429438982438606,-5.8294760274007045,-7.78630876607702,-9.17581171535216,-12.359345409124135,-18.311905645071995,-26.589856910925562,-34.54414219959731,-34.11361318524431,-20.19900433156606,-0.6258744637967473,12.271547385729441,17.663999284247023,21.638236621977768,24.12113757241004,23.431026418441785,22.226591977357252,23.58986102415205,25.811341759191283,24.96620027615992,21.11116174427548,15.839871193059265,9.720951026053877,3.2514187046104586,-2.7122000979153946,-6.96197455478498,-10.61220445216262,-16.03639699532411,-24.75168846087615,-37.121770707619994,-44.22303385611839,-36.43755251670507,-17.61688728711591,2.279390933061865,16.578224964784177,22.148199260688493,22.413679367008807,22.08819281954984,20.184869354182556,16.152955643062366,13.94694910647191,13.948025878997065,13.045912747134814,10.412406785545153,7.499736194751194,4.093039729911649,-2.308572685260249,-10.296312845231753,-15.611691702575555,-19.378041239861194,-24.648437540467228,-29.53866019230572,-31.199817766836325,-31.576286098418805,-31.284644727689095,-23.56064902165723,-5.697740987394882,13.413710008060617,23.665254414197136,24.724050569487403,23.892574526200235,22.553561544821576,18.29065816930489,15.306394192358415,17.441848866821935,21.422416953777457,21.62973088458773,18.05202674165115,13.04967021695738,7.18010887027503,0.187253174047992,-7.667956437985065,-15.372417046105792,-21.58970555375941,-26.700646349954603,-32.888563763709534,-39.80124137723828,-44.209305485390104,-40.62622632118788,-24.838713085342746,-2.7518463142017358,14.018437539554824,20.053868382283746,21.87098373091777,25.490378991841297,28.749680537951296,28.390797356677815,24.07581167790467,19.67744309983115,18.491949759634466,16.731645139631333,11.18462075376403,5.244311278168739,0.5970490257149667,-4.185114211847882,-7.188772684284349,-6.641881803246558,-8.550762858923532,-18.579194092665258,-31.75158616602954,-38.50857242660609,-33.72465215396895,-19.735934926211872,-2.874662149677943,10.906763648841572,18.950141327970524,21.958618583118863,20.554222162226466,17.486718331637526,16.522930503039433,17.070767118573666,16.219155233751593,12.686759238131872,8.018522670173999,4.420773787480886,1.2345428725883931,-2.8212491853130683,-6.819792790832818,-11.010788579062849,-16.60641342425105,-22.248439789005904,-27.83758039122391,-33.24803440031616,-31.70531464092539,-17.98189918304328,1.807656680382894,16.33352589391702,21.101936591794068,75.0,123.0,84.0
-21.938586782924602,-26.991082541296123,-32.789971264376376,-40.23991562424457,-44.87561503308233,-36.464431418532534,-15.337856311581273,2.894652668375337,9.1820106739059,10.215181558649762,12.082541387988883,13.168611816807484,10.905906782219688,7.144404347313104,5.7256516937990884,6.920039994934823,7.121039231273324,2.85738845632031,-2.4035076516693237,-3.4828024186053104,-3.061859609745763,-5.597575912312625,-10.254193155958005,-16.55571593564207,-26.605069415786836,-36.04820731999274,-32.24000065953743,-12.373813859431626,11.305745320927613,26.251622066017294,31.35824719570752,33.557863657360755,34.45640939211061,30.379827661254772,23.57964579952653,19.48961066800549,17.746672195821258,15.057203381491965,11.336833615458204,6.919823708890291,0.7019929907571241,-4.799523575926841,-7.797918669317706,-13.206332529877498,-24.400978328552295,-36.56635623237731,-39.129057169225845,-25.94569497693891,-4.194276749103055,11.341347602538855,15.577474680325329,14.217786561456482,12.939154370881639,11.172051374541885,6.362121600055832,1.1223742784561028,-0.734460165387861,-0.3198095956059324,-0.4595005853807103,-1.887134104414455,-4.111877872850422,-6.488392316458925,-8.173063462517558,-9.807580232789922,-13.81546353386748,-20.48945664936913,-29.194762280312716,-35.684908417112425,-31.398622180575718,-14.491387532555958,4.107356765108878,14.307699742006518,18.81187800956536,22.6520424168395,24.20342823955496,22.95006971053452,22.31990282034277,24.34879588524712,25.967039625967065,24.073843265913766,19.696219658526896,14.140262742509762,7.862192524277868,1.4183241203911348,-4.139406175887431,-7.945556045119341,-11.945871319557595,-18.108953685630656,-28.139149776299885,-40.30433874191144,-43.616067417414975,-31.662267143238953,-11.624588010100593,7.216326314177024,19.06299275040449,22.48912645039146,22.316086310006053,21.83212094208492,19.095118861865487,15.183592332108077,13.854275926556463,13.887105265911195,12.411518802590328,9.543276728058958,6.671169855670699,2.6163731861370163,-4.671426884007808,-12.192567998396983,-16.667340803361324,-20.72968391400741,-26.28239518936385,-30.36083009075568,-31.27644988966981,-31.75912398042004,-30.157995460586616,-19.225239886139157,0.24687948082263583,17.53366852242615,24.63204012946303,24.40947147974213,23.734126844117668,21.561162142295323,17.0171310636114,15.40488966303094,18.69656937272459,22.000013109085756,20.854445620912433,16.699076852323138,11.449380163500365,5.28315571782986,-2.028414796348284,-9.96928176919547,-17.36324263629807,-23.08340640007375,-28.317106988262285,-34.91945810815776,-41.52097846178173,-44.29509303357429,-37.2792536032372,-18.59778978275443,3.1017021063838555,16.760555043417806,20.5829278261163,22.71689330714012,26.652302287730038,29.101179804236008,27.458423966201156,22.5701547351028,19.03975638594276,18.31826869954926,15.447778007526642,9.323851913571152,3.8369218424585516,-0.7643027746846279,-5.410551015797738,-7.285082030450483,-6.539752359045254,-10.629460820270785,-22.496278166642483,-34.724987318716124,-38.341245712528554,-30.37599341774054,-14.863811696372139,1.6270696492594443,13.819916588983979,20.297779368790035,21.96154968982656,19.6295334327731,16.922809485857393,16.652981899670348,17.081159697540386,15.449709769205487,11.339843174264791,6.823630842403711,3.5603182856268822,0.13320482627183758,-4.024368703662748,-7.93360552708589,-12.495216325787185,-18.311274657420714,-23.788851429102415,-29.5942659968613,-33.91151428284531,-28.946853433161642,-12.364390632809052,6.940803330639498,18.646268069521007,21.15865689208101,19.807667475071103,18.525707281532064,17.509055466665583,14.779391571702241,11.515834149533651,11.453646935349175,10.974442396945195,5.0740661111680465,-2.152151689071701,-6.98212584715026,-10.787267727801261,-14.290884093272604,-18.997633327227437,-27.37297934234028,-36.83942336852231,-40.05267058195688,-31.185957688064924,-13.185964493260318,3.610308912256856,14.907919401154764,22.681755859564987,27.543929928834782,29.003853388055227,26.337091396334927,21.639045371339396,18.311042646695924,16.830335318656324,16.606812359749267,16.335888319288518,14.488004813596566,11.609554302592539,7.305333539611292,-1.5888015212312343,-12.317007189881656,-20.23683165443264,-28.080173877940812,-39.1693518010414,-45.576645891519306,-35.93488421114533,-15.254555024360592,-0.8195696549518677,5.047732945173004,12.201914660501279,18.609842444214717,17.135699091652004,12.15558278209534,10.289756236556082,11.700964689545803,13.46959463639712,14.064583729056716,13.22948884096737,9.727226011853757,4.360573154448173,0.019539959149363656,-3.527967900864803,-9.52279876468332,-17.65216828734311,-24.608695285024524,-29.05597675986585,-26.504898782505258,-11.525717218168156,7.837278817355566,75.0,123.0,84.0
-8.534231803929254,-10.663501910782946,-15.491906396588394,-22.85954967724442,-31.65782505216171,-35.8801369926449,-27.523717249811906,-8.649545999359932,8.030078404389277,15.856007164406089,19.970640279382486,23.45609276223334,24.019969628033124,22.53068494110602,22.67805717228547,25.073395485439367,25.791650866452525,22.978435971020936,18.189710042862547,12.378827969038717,5.986444591992473,-0.3447459129490694,-5.392434564847601,-8.950745115244406,-13.460832077871848,-20.514452063801354,-31.794270103652316,-42.71160968745879,-41.619281718211056,-26.21435836049086,-5.756946026413362,11.547354619804496,20.789796121737893,22.543887649595636,22.24284440425406,21.35664788246366,17.879255203711697,14.479255385908763,13.884065039722461,13.674588289186342,11.650932064211684,8.694271961775005,5.758478127033354,0.8225363383878402,-7.058015449032066,-13.77849668511151,-17.698760206215308,-22.248115256281586,-27.78320884700488,-30.874129890604017,-31.35365440619926,-31.82356434886067,-28.184838666576734,-14.098744512234115,5.985738102484964,20.72077052790362,24.949590465029445,24.138696644331105,23.44408507104034,20.31028496321431,16.02065378057454,15.966923804928213,19.949365506986474,22.151124383568646,19.8344495860071,15.266630613586159,9.776450518732043,3.2828293815251133,-4.299387037730057,-12.228600129022368,-19.194842406448785,-24.52810697624846,-30.07672567122199,-36.9617948680042,-42.94170353939032,-43.54241034280186,-32.869930962973264,-12.090962146602498,8.219561617564839,18.59426703723998,21.020555027758693,23.764917270271557,27.677268236966306,29.09175605833682,26.220459518233234,21.199631753514712,18.698081084790754,17.92634124669363,13.848099604798799,7.555953375133312,2.5132234241759783,-2.1681394411664474,-6.385626163341286,-7.092730458748202,-6.8789544950444705,-13.44150671710687,-26.448066811305846,-36.93662650109235,-37.155513759170105,-26.38413501942082,-9.917763294214991,5.741466238075073,16.237322078511987,21.25598121477336,21.600677402800066,18.67907544485319,16.601903894951604,16.844952331192953,16.90190048173397,14.455621078996352,9.958254919289235,5.76536725400735,2.6732769255365962,-1.0432589360389706,-5.187456957970246,-9.101794685400288,-14.112101847089262,-19.957846223145705,-25.37241252955968,-31.28585377768792,-33.75633708459962,-25.130675861681226,-6.510564445459998,11.372208271085217,20.137940948505804,20.912627047501942,19.359119681717168,18.27912020346453,16.959239071773244,13.689927451887119,11.135375010015343,11.715696358207852,9.793526852409396,2.8340609575986773,-3.7787041029043253,-8.116763373358058,-11.821231484129392,-15.386359951679438,-21.02060920949967,-30.27646950707012,-38.75812226974632,-38.823839585403924,-26.50264725447464,-7.807497102409978,7.368708791101213,17.45528807964727,24.38810135500018,28.36564588446494,28.63941062768346,25.008500868404834,20.45868964772065,17.723372790700243,16.664651753916115,16.625019572318237,15.983239829788076,13.700675230209347,10.65948012672513,5.252104092227003,-4.793388854989572,-14.922861514258699,-22.24231246777161,-31.04973276031639,-42.12342253730421,-44.650020097187415,-30.331483999302815,-9.879942256971669,1.302432832257789,6.741950158350246,14.5763797329724,19.02258273275376,15.665307568415182,11.171241497265619,10.483243985180192,12.288174916969785,13.771834405619362,14.006619478338424,12.538083271100058,8.230476419675009,2.918505798823293,-0.9516679669895972,-4.908043983675209,-11.804758683796766,-19.87817174438618,-26.217239002394884,-29.39621123431366,-23.418074162393864,-5.68506977854055,12.14048380394966,19.89995610040324,19.980698413437242,17.64600383354122,14.870532964187486,12.035792880439567,10.460839141414352,10.708497118205953,10.891256128651419,8.759796350100755,4.137832519218601,-0.6514550120331045,-6.217155584264379,-13.158242348208475,-18.188733660179338,-20.184828003241783,-23.193504938076902,-30.837310459187464,-37.31257118255656,-30.770930160442976,-11.84331927703378,6.562952761091243,19.321868604167147,28.738289380642474,31.482098449839075,25.510188479678106,19.373335229409136,20.237215266043677,24.42747249710877,23.661752158397217,17.779770068770343,12.973287420771767,9.292661252203883,3.411166770592285,-4.5607432680333355,-11.539969006499145,-15.232696124501492,-16.829598513244054,-20.469501275765523,-28.66342481532759,-36.79989033693523,-35.17507461785237,-21.174052108742767,-5.285273723893982,2.2162447774829017,3.180630994023453,3.706490933601414,3.184657448053029,0.050129227644180055,-0.8710661873390468,2.887590930797572,5.540702563092399,2.8771591183253786,-0.6460277522101805,-0.22492585340216725,3.3500665702655823,6.815573477218279,7.72105328049613,5.736929556971687,1.0971536525852466,-6.543427318033701,-16.373179578503915,-25.44020790627412,75.0,123.0,84.0
21.026371706685214,21.88146570187888,18.643420833061555,13.764635948977451,8.020762694831527,1.1842829179335042,-6.602452512181968,-14.406674465729498,-20.86650924649316,-25.9966208663723,-31.975280308360766,-38.93681540997703,-43.9363396183597,-41.795850346888805,-27.54298685045913,-5.6301523783106555,12.418837162055999,19.711343974801892,21.557498136965826,24.937050553334924,28.47678067422967,28.70005561551831,24.775915873520947,20.08421450018942,18.543378397805842,17.19723047837329,12.046441456621134,5.937468009466699,1.2078822080596194,-3.5658392009979374,-7.022134858377098,-6.772720389480238,-7.852867822846063,-16.856160797865993,-30.176128269571407,-38.24036778214504,-35.00957729749491,-21.91271600031806,-5.0516677748419205,9.392108550659946,18.193059632453153,21.826943754104537,20.93668395247782,17.822760929936756,16.50554279671383,17.018502745405897,16.491577894892135,13.277383187164833,8.610845199899423,4.8265289470954515,1.7106017380417846,-2.258837967656852,-6.309971601228538,-10.376509907595302,-15.812571294898486,-21.53652662284932,-27.040125606365127,-32.72894177982993,-32.60337901547092,-20.40507888702548,-0.74098993432149,14.971516752057093,20.929617189682965,20.501045194253265,18.970609137069548,18.02691428287189,16.206421970467293,12.65300813491549,11.097418158229408,11.73842410568437,8.119664227591919,0.6634575870123385,-5.1875839545064695,-9.219256323607643,-12.823257962233239,-16.65463267633852,-23.394974725127074,-33.13771510837839,-39.95304025081127,-36.48424602911624,-21.25127556293741,-2.8017410635880142,10.685623708386615,19.755350590772057,25.852899658803086,28.878021690405546,27.920749753620058,23.60545934891315,19.455800044487702,17.272155484981898,16.595476001836126,16.588244600695372,15.474405623487266,12.87054617426432,9.530562927323704,2.741293432689115,-7.987518912504582,-17.230864563263488,-24.394390347590214,-34.30937373442692,-44.35256872417118,-42.161494795027345,-24.168801496147175,-5.4517977515354055,2.9126264837097127,8.770307378335083,16.64826090060392,18.683502287233477,14.128021262640052,10.551327440514248,10.892413966517193,12.832361929785405,13.964588632197284,13.820850789219172,11.579706113081725,6.646493847867506,1.62772926026432,-1.9146709733928404,-6.576568318571016,-14.192501178855286,-21.932903041338893,-27.61127446288431,-28.95920251460447,-19.21976730153994,0.14379315955046623,15.498518749989294,20.434226484601776,19.406012121660588,16.86814679852268,14.029230417669456,11.371462034855542,10.401659162066013,10.871280632631839,10.596492904820986,7.577383695808976,2.718751762529627,-2.080727549429311,-8.17793581927658,-14.966821873555016,-18.970051893194235,-20.707874938545213,-24.93893858646017,-33.38477766516979,-37.1058950118123,-26.065712355011755,-5.969130521445725,10.722504318015282,22.386273058252097,30.488020983191973,30.436723012138167,23.262515329368853,18.863565321700626,21.496732976473332,24.961476004837913,22.200942554290716,16.11574740145637,11.965556900593146,7.898223231859906,1.2144974223394485,-6.829515961494206,-12.967056183472131,-15.759919689870305,-17.47183969414078,-22.410611829825207,-31.42854760146072,-37.70762401868949,-32.1346741373479,-16.149735630836457,-2.1030539135063635,2.839099854066269,3.2538429480539244,3.8355786231228057,2.4308289549048623,-0.7118600590604639,-0.12848888621967156,4.10494249405897,5.260528997726256,1.6341596092387414,-0.9824695902681898,0.6109330495509343,4.513780999966011,7.385300404369602,7.42781726480303,4.677451298639338,-0.7964148284656595,-9.247905147368458,-19.26604520957453,-27.165646149255544,-26.369214046459074,-11.445236678374192,11.824448244348723,28.002788371166297,31.22353260788812,30.212145827795766,30.64318288854073,29.40507920976712,24.90443586242966,20.06620965555985,16.38927485058151,13.227633593808507,10.38660973042529,6.692573522492959,1.6887010966485079,-3.3198014212634184,-8.324222360600475,-12.629910912444865,-14.236596691194448,-16.609467104328377,-25.420989742681233,-35.89456184296032,-34.19703560794121,-16.32869254574698,3.0372070748586677,11.11220242446863,11.988469060134642,12.338848609235416,11.197599590989828,7.505286010802957,3.2369860320824135,0.08791441116084123,-0.9288094092220895,0.5081321788874198,1.1235173112664765,-2.231971012185728,-6.525901980401897,-9.531753406711768,-12.041553751500766,-14.037684271516948,-17.61387349930974,-24.57805226320309,-31.78905999218915,-31.358298754335145,-17.366045626354186,3.5868601635312425,17.773419272117035,21.390052906598193,21.31907474459456,22.47531762907891,23.326140367055583,21.662630941089734,20.169823108819926,20.73881830160757,19.722146010376385,15.703988755546652,10.642958646801988,6.100159798971344,1.4491513792616006,-4.361779280321914,-10.218425869714931,-14.938185471100551,75.0,123.0,84.0
21.179515874128082,20.02699436555261,18.65180313315926,17.702479581054142,15.262486200260703,11.807905650004939,11.313750791639395,11.335732904942063,6.085041609668399,-1.319053840621086,-6.439457887772215,-10.298882217429039,-13.819254020104616,-18.18428991707898,-26.067911014880558,-35.76386408075919,-40.25371980706383,-33.079199027148825,-15.734665812859271,1.7085337702656163,13.64469372507529,21.813902207458565,27.070245503195167,29.047767492893623,26.893762499959898,22.235217400687336,18.63329334374719,16.94324262140346,16.5953113846717,16.44679137149837,14.825263913903797,12.01647716685794,8.098886415719493,-0.15793898232445114,-11.011731167097608,-19.315840131586793,-26.83415585735827,-37.666622434318825,-45.497783378107464,-38.194514527681754,-17.977881054858628,-2.0589470514878125,4.354595304701495,11.085307203906542,18.156204904807165,17.727582755762185,12.720117410927683,10.295359881096191,11.431461879110008,13.29255946314145,14.055696950186272,13.464825998245175,10.3629824472566,5.06592732992585,0.4956362875188216,-2.9764129368611645,-8.53448403760263,-16.57901158277567,-23.80555954456253,-28.699126962983456,-27.536112717287875,-14.105512974195042,5.5650016324222795,17.90482921543149,20.48202039925145,18.729902950868954,16.07036020177031,13.188351177420467,10.865183661602483,10.475623691196619,10.972354760730678,10.049805575365614,6.229220088457023,1.3404059488212918,-3.637227748365846,-10.225306205249922,-16.50759818411252,-19.530724365100287,-21.45252743549021,-27.124918509978144,-35.55680052396886,-35.53409227711756,-20.549224443080433,-0.4838387353251157,14.442554626841746,25.221262617113002,31.50971301654368,28.716470083941214,21.298130866699477,19.019284720782608,22.836717115313917,24.887905053268927,20.44624236834159,14.680172868143107,10.963598851145163,6.254725684587545,-1.1104506891003016,-8.925167799499054,-14.088571917351336,-16.1794565655413,-18.40607700370864,-24.75008365373507,-33.990219755629845,-37.54568954416376,-28.135285197895612,-11.331840926821402,0.22273681390969235,3.089142273826248,3.4060832349814016,3.7743824045005168,1.4812836416940462,-1.115487985104751,0.9769583996624571,5.022476190771671,4.516686573097301,0.5054953703757117,-0.9316487457905751,1.6484562196257875,5.5779863347306335,7.70642551595569,6.901242441096487,3.3978435750367417,-2.9537987108284884,-12.094456113033528,-22.00533248916105,-28.167342854232647,-23.544459367590118,-4.946067054221428,17.83622190059822,30.040356009188677,30.89942290794666,30.236287472400548,30.639730518125013,28.351844341236003,23.40521096984978,18.904363410922592,15.442185507818873,12.392139594979879,9.47986464306998,5.32801968581935,0.20571440658379295,-4.7398932853524425,-9.754376969707078,-13.367936664092163,-14.518704929470653,-18.42836223687267,-28.841286522265772,-37.2006115845457,-30.32504118374156,-10.026290772422133,6.621209905665598,11.680184412210307,12.072038547718087,12.286278545109495,10.335212986013659,6.228751681711537,2.1691713598320757,-0.4746023971012457,-0.7050478162748209,1.0003327061810987,0.5291046199121185,-3.5746065715621933,-7.494301419209484,-10.303104489703777,-12.639340900469218,-14.764792908814702,-19.308236807064098,-26.916095990009,-32.85438327018004,-28.702240889618064,-11.399532614975607,8.842956154928682,19.69624084867384,21.400714994737527,21.49624182223104,22.915050206896822,23.076663243194684,21.02060545135339,20.219241375520173,20.78000237910512,18.802859692559704,14.252433770914037,9.257743661399621,4.842984862026585,-0.11966073433249079,-6.131002631132976,-11.711973397902543,-16.085507250295592,-20.023090119659834,-25.704043451650197,-31.589461285698572,-30.117364865030645,-17.332407804959228,0.21461475000782637,12.204691958203234,14.969399220341275,13.173668707255677,12.49600541101038,12.91595432773274,10.90237154340379,7.0995473503924345,6.274556765590087,9.226794478616474,11.202578932127894,7.929799946275915,0.794375669483893,-4.785005805411219,-7.990599443209192,-12.596742946157255,-17.490149161029375,-19.54475586291892,-21.09357150307286,-24.334194975644095,-24.837346029600294,-15.46854560652474,1.8861748394169118,17.554007122914705,24.50463487978364,22.552738578660186,16.759885244930153,14.029919359972393,15.788710729145011,16.645227980671297,13.86823832451557,9.807846734619964,6.198399986333649,4.056341833776148,2.4706691336566395,-0.9400363151177814,-3.9208244331325153,-4.863266534079756,-7.853392782886112,-14.350115393167826,-19.343613993999856,-18.309155631991057,-11.742208448079586,-2.8673512207750407,5.543684692926447,9.871624746126788,9.802743938409828,10.010604417606404,11.232616154821342,11.416811311527912,12.132624646613829,13.020515308858453,10.636022247874,4.23167598094957,-3.466029178814536,-8.225960593261497,-9.88525440778584,75.0,123.0,84.0
