577.2642066500912,2030.0112299540378,2475.7558432992937,2262.3804574712103,2077.226222760468,1980.076081245715,1792.058039200816,1570.6083513522995,1449.2693843979198,1388.7706165048496,1248.082328945808,960.294748395026,567.024041447375,137.97606171586506,-282.10350566009345,-638.186758926666,-871.4116366395607,-994.8527722073273,-1071.2631234443493,-1133.0760725940459,-1169.903064502231,-1150.7871309003722,-1056.575858582624,-903.5035232163189,-737.7205338660525,-599.8177731942776,-491.4880234614808,-395.8824190137571,-313.4133978149086,-250.23911023134002,-198.4038168658199,-143.30768961484097,-80.84007316625629,-22.551554220496346,17.738373177673434,45.54515172428492,76.88699427530695,112.11865483164132,134.71578362313628,131.59340015751187,110.08782124744009,94.32340743144844,101.61830627320626,128.00528146382837,160.77161985767043,189.98934325910955,209.1815708329636,218.32629108331633,222.2440998552635,224.28002267136216,221.28655391354067,211.46597784151513,201.852073278012,195.91439364006592,187.76007136596903,172.55035511307887,151.3640332437116,127.34179929240443,101.49222352142277,72.94295308351116,41.30089354067194,8.387385427312468,-20.466003531647875,-44.914051972006504,-73.1824981751856,-105.95298165002608,-130.03950888629777,-130.95993218326825,-107.44372795507098,-72.13631382725988,-38.98083535895003,-14.387808436975154,1.9053027849317494,12.198438013316114,16.270217908922266,15.231419208667717,14.312199453665382,16.13173371037192,18.838800868166565,19.131669467040908,15.028090219639141,6.053611629767854,-7.7334750900247755,-23.066359997183493,-33.925261382530465,-41.27669681352825,-52.544024562967245,-69.24578940460701,-86.81432829810083,-103.64309260486162,-122.72940769882649,-142.28436860094197,-147.87138455729317,-124.96197610750278,-79.16143759168135,-32.82480169744373,-0.36831799421013184,22.384985420909953,41.07936226960455,52.161359157829786,51.99449719148726,46.164775105744084,46.722588419915155,59.373795023891674,74.99658629786161,81.86888242845579,78.37450181204329,71.10542000007486,65.2049362487073,58.06735687575668,47.42791477622036,35.15026175314831,21.964961833697725,7.846403457824801,-10.475163748946498,-39.67962442941633,-70.06199505259426,-74.21581326819388,-47.27001989942915,-15.279955976830514,4.03408691432138,17.48750498551471,30.442178692003818,32.698516620775635,20.72750314136687,11.450055173970567,17.89618604692931,31.564475696110602,39.40438439641825,40.58824870707282,41.171751941220755,38.20868302978413,23.40274037473577,-0.8609838210517091,-23.44162351181974,-39.92700044998699,-55.91787634307097,-74.56311901433403,-94.6841881285787,-116.42241416064282,-131.99859659860465,-125.30344042175949,-94.1679263282949,-54.605557477608194,-20.440620940257162,6.347187990197314,30.710341175078216,56.783000740036556,79.75174068791112,89.51870110743744,85.23594902138503,76.64927524106272,70.15267892146159,67.23958945115724,67.128652810745,61.80286410519397,46.13809424682471,28.46327747431835,17.259575385551813,9.630959966612595,0.19668774497897967,-12.737824689043899,-29.09232892899932,-47.70080139185986,-69.22601426613329,-86.84515983650387,-84.37665625932476,-60.55766255992772,-33.69465649463793,-13.258924321519967,8.853717878114118,35.76348250102593,56.57066369014477,62.94432012121815,58.347297126586156,50.360137696232044,43.69525664395365,39.58435143308018,37.50973006368737,34.51426467930559,27.90648361913065,18.1378564061028,5.568783053417895,-8.292954529934791,-22.31610463098685,-38.874500192437324,-57.68730878609992,-74.8984253939249,-90.32065886689465,-107.4372851085222,-121.14954200956475,-114.19379098718667,-79.49500815742888,-36.42572337112696,-5.725545257597714,13.678638986144776,32.56575822664013,51.02269343278134,61.72177447703499,64.06698291285899,64.28024192637305,64.80702692757629,63.260433290979485,59.807848310177576,55.242576360143204,46.72856526663721,34.783520436071214,24.02461336359636,14.007599017467268,0.13153773600267582,-16.319972013599873,-31.472412158157965,-47.83195895203108,-70.0143223110289,-89.63142429087257,-88.84437427090893,-63.42864298126944,-27.895559024210463,2.537582862745191,21.59190839870886,32.04223635538933,40.69779356509986,49.23624046125926,53.51650854739402,53.0269479021563,52.41895728058297,53.018007862258244,50.59254856625412,42.76926313114627,31.419318280311742,18.635140954444445,4.409952398983468,-11.630487180757752,-27.280979884401532,-41.70940832978753,-59.718841433145656,-84.95397545422716,-108.71523740303223,-113.51682215431904,-91.59243007617471,-54.008579043794164,-17.340953288571416,12.20918512533258,36.113734920781695,54.821391945036844,65.58800839251128,67.27682592700256,66.44431837576806,68.5469444309535,69.28445262210498,72.0,123.0,86.0
-27.686955896453174,-52.362553423493125,-82.57132261259521,-114.57145715406016,-133.0691165211898,-126.2998109160842,-97.73812303849405,-61.892461226710715,-30.913104834926607,-8.942992253396788,5.447605999449149,14.063604029621848,16.295950211061914,14.737617181562268,14.572432324616653,16.973572406928096,19.29692871716995,18.4336582445674,12.948209434526511,2.518748626675105,-12.283387978157792,-26.835912889319914,-36.09385923022476,-43.87564881391431,-56.97637233870849,-74.42393445376372,-91.6605994609082,-108.79931053432045,-128.73933247708675,-146.188033198511,-144.40858392054474,-113.23427426427301,-64.81506959425334,-21.938860416899864,6.795556653000449,28.212261120854848,45.34418979625751,53.22058029676078,50.402591331118245,45.15862920517047,49.28494475946325,64.2254818692403,78.16655148147636,81.73137745397501,76.29742130869937,69.25839250252815,63.469530355934516,55.30717745492076,43.96543783970258,31.44481961246894,17.996222626778074,3.3176580399835407,-17.700334278811127,-49.47904607639741,-74.95287245275394,-68.78852807075585,-37.25279319176109,-8.363109494329377,7.974977735282378,21.528295461048604,32.74465073163556,30.250239486892,16.816642226339365,11.719137709605075,21.81334822916754,34.74030259886888,40.14132855161257,40.69304542678916,41.10642301021733,35.324498720186746,16.911620692995758,-7.9994142730429605,-28.688141267435583,-44.30861152142382,-61.08329553746283,-80.22792112088489,-100.86555670872288,-122.27109417004641,-132.89393884357432,-118.31206137093358,-82.77578301277812,-43.887796765989314,-12.091521398537722,13.358101504785662,38.06779819060041,64.20538467210575,84.24965019999009,89.3860789401787,82.7527248481107,74.46887325914557,68.88832800812219,67.1313461617454,66.58312141854267,58.19078516478373,40.6841698281236,24.49056113290252,14.998886586727489,7.21068019839272,-3.1461116966481217,-17.17818175321909,-34.22736638611111,-53.64603824985456,-75.40548719759045,-88.7612924606634,-79.05341118913972,-52.27457759633493,-27.294652450245508,-7.490364406223441,16.44653604125093,42.98768053006953,59.93233969235282,62.39723181676462,56.10042994639802,48.195428941334306,42.24011746706737,38.851435893515145,36.91946840017337,32.992580883341205,25.376057955534296,14.775499282775991,1.5807514321888185,-12.261898283184985,-26.739364701578317,-44.23750045707974,-62.959844076336154,-79.3774964809723,-95.03425022843564,-112.37590280755691,-122.05151999910328,-106.5871787265155,-66.69082557628651,-25.895880625464528,0.5140768612138517,18.905796534132676,38.26470304772868,55.146044102290006,63.02017084182532,64.09622273306944,64.4781724548748,64.65876699876219,62.35383289401182,58.694430059826985,53.296102557735416,43.435755827783595,31.404457118939543,21.28356080589962,10.48619088794716,-4.5725763407777285,-20.885283070654967,-35.77578331210767,-53.67592548232419,-76.73035120825328,-92.13474972170451,-83.60857170605166,-53.39973676026385,-18.110948536788932,9.238774691430919,25.19693202637859,34.485319737642605,43.32424466813723,51.07146875162905,53.70361813267149,52.660892564419136,52.606424333521865,52.82577494633891,48.860426512220094,39.72576682926428,27.833233832715102,14.717953184158816,-0.0857620746271791,-16.322469854227,-31.4596621068997,-46.25014847549901,-66.36036787612633,-92.71342672057847,-112.74236099402884,-109.75783601394662,-81.52267871431988,-42.80036926222014,-8.085099193927265,19.61005201952942,42.12727744497767,58.905232606492405,66.86264571555661,66.89074535791302,66.77925436542864,69.22674037310595,68.36746783672525,61.50488623143716,53.6726265432673,47.2911032875194,35.446166188699934,14.989617971653953,-7.375701580069393,-25.18606987327437,-39.153057987533394,-54.382699817295816,-75.34199281698403,-100.74752793682991,-122.01884699144125,-125.36229727464405,-104.70781229569666,-71.3413897632096,-38.89455752076962,-9.577872554121141,20.168883026735408,48.73308040825524,68.24199016181744,75.36186295271051,73.52253214781261,69.59203938296045,70.34706054972952,75.14638411968912,76.12667244674401,67.80460036461811,53.440072319980324,37.748694308842175,19.456279946000286,-2.425243960705314,-23.32047713013934,-39.116321978118435,-52.25706228076177,-68.72915523621421,-91.50442344187648,-113.88246608029863,-117.63568127541033,-92.56460577400064,-54.048463396469025,-21.68745002393353,2.058421970630266,23.61000373090519,44.13421823880628,58.5347901378619,65.14268515640713,68.30485758522111,71.76435740026291,74.71645807448968,73.38341156825832,65.23764351388171,53.56010089810356,42.28814004411617,30.083398557288056,13.994463985507462,-4.907950757600854,-21.557727692285457,-36.25079075917809,-55.70289286998816,-79.8860877100336,-98.68906131895753,-101.73969215559461,72.0,123.0,86.0
13.711477979862643,13.409402264167959,25.938957831202313,37.18420650824984,40.4544757637124,40.884983165236605,40.52821643522926,31.2814967844316,9.841111782939823,-14.702235613083278,-33.453233334171,-48.84204164330447,-66.45866753646928,-85.9933543315631,-107.20489450291211,-127.2566196406835,-131.53312083321336,-109.46863300751666,-71.1736440677047,-33.84006303917111,-4.302861376539717,20.326705879879636,45.6239012176077,71.13389042312119,87.40599526891542,88.21425435692058,80.19442755148275,72.52570507537753,67.95881104927078,67.19342440497206,65.318145076233,53.7176638347212,35.38737938422663,21.164929196686685,12.858461353458853,4.555604457879091,-6.804848729334097,-21.87628204027807,-39.53388006387392,-59.87629277310337,-80.93589601278242,-88.57882331622213,-72.19840414624785,-44.27948127983957,-21.431246847958352,-1.2769140600898852,24.3435616683416,49.34437532742031,62.006098771866945,61.11617131726228,53.746829369313865,46.21383381007498,41.00444775373514,38.264415627229795,36.14613171530998,31.14141839724867,22.609147712691506,11.176350612591934,-2.44593447936377,-16.256953046704805,-31.455008020298184,-49.71779990248057,-67.99644667917254,-83.77513261157907,-99.97971159685979,-116.75588331959644,-120.71708876448177,-96.74840873292175,-53.89097794356531,-16.739708073385472,6.07462911529713,24.321039897733645,43.777315898041685,58.441960568551536,63.721782731576404,64.1185399447976,64.68163397002117,64.26444503314055,61.350117539429945,57.4628278970827,50.93110475951453,39.942586340048265,28.246098413609637,18.49528544861375,6.5482927807416464,-9.379102039475557,-25.268510247303805,-40.337566480134164,-60.07444922081166,-82.84423150727149,-92.48879083959756,-76.45820736689834,-42.98654097670326,-9.054864611343904,14.9334785371809,28.230317125216235,36.94927739897112,45.88763213885752,52.43125847052873,53.555001068697685,52.426024541499956,52.845624777902415,52.25337238361516,46.670175452264594,36.46274362057793,24.160453021075085,10.656651154994465,-4.7263458554629745,-20.897078266673553,-35.56587564758462,-51.26347797676204,-73.62971852841333,-99.98155287301746,-114.73905615335721,-103.76076391294713,-70.58639411975369,-32.021398253528204,0.5569073004548238,26.600231049821645,47.683264128390185,62.229148909608675,67.4075881591373,66.53789015582144,67.40149708058887,69.59980250238044,66.88500045747776,59.05042835355171,51.86560593050198,44.78358432925806,30.254416614126946,8.32568485933151,-13.090981694861982,-29.434457377374734,-43.16187079162942,-59.772841992030905,-82.46013884105336,-107.88955534369924,-125.40103060359937,-121.65132336327149,-95.60960368773267,-61.55557007443075,-30.247826265983935,-1.1350827940599686,28.85540506816923,55.61254760224836,71.5075533556623,75.49943870096932,72.24200253953242,69.16431355147805,71.59305809633437,76.2064689720462,74.69017826531655,63.98124159672071,48.99398694120289,32.87130853015353,13.38892121889478,-8.837690257022984,-28.43158049713672,-42.92962298607302,-56.4334822411895,-74.70954167657136,-98.66679415805474,-117.7486680269503,-113.1245166935469,-81.71880275081737,-43.61886214204338,-14.208760210356536,8.28556239518445,29.821758849244052,49.1430521889742,61.121803908633275,66.1706125336528,69.22615913860747,72.80238362585176,74.96309329170387,71.69843470527255,61.975288979431,50.22342289452746,39.01475930091504,25.899051085538716,8.618677482604076,-10.126713091089869,-25.73838894077358,-41.14021835115035,-62.53509649690209,-86.40193743061438,-101.5384013356837,-98.7385605851687,-74.9743382472167,-39.42917527834859,-9.075981566458946,7.578678176173548,18.816289317167097,34.858164001660725,47.6839797676625,45.9161005633108,37.06613798505096,35.59285815517589,42.927443596944514,48.605584370925335,46.334334278893316,40.06171407243055,31.363958961725707,15.771374521567095,-5.410784562469557,-24.83471049780883,-40.542655422162994,-56.00208532971479,-70.59329446213088,-81.05134861390158,-86.89450214201719,-85.90583971967754,-72.13356162329761,-46.97320430932942,-21.08783677706704,-0.2687122206074144,19.28361111052212,39.6163577929693,55.97133009151215,64.56469220712735,66.89048791950228,66.55722151825168,64.25184909335456,59.030694156286145,53.17416758003929,48.63675257107987,40.93559968303728,25.52228083517321,5.7758752748154425,-11.205714536578927,-24.057291885934227,-38.000101415589135,-57.49430192425488,-81.0337632825183,-101.36146669118068,-107.0778445918226,-89.52165080070766,-54.557944698394486,-19.249733239856692,5.7041126520688605,25.70934927993037,48.10923814620966,66.24803200551605,72.08211538073972,71.79506842737173,73.05614302326141,73.71534799495014,70.78603614565498,64.78587493352956,54.951822703887,72.0,123.0,86.0
-72.77482973895738,-88.22092697194061,-105.08209258544018,-120.10026922165785,-116.85435874073326,-85.20667929182802,-41.70526021424015,-8.925592889135856,11.299612577704169,29.934952494759425,48.87336953110738,60.87687793936939,64.0158241518486,64.20952112287144,64.80324193878667,63.62587178456705,60.30182940420233,56.013309283669194,48.143298614712826,36.3963216126095,25.31557046479508,15.498050151364327,2.228332013578072,-14.15690830788056,-29.522634338974942,-45.33951949157865,-66.8483220608852,-87.84195276012701,-90.52728374493299,-67.80072773045205,-32.58833519395365,-0.8943689686220562,19.686509053778728,30.88922517946044,39.496334045815225,48.25183164202857,53.28617254828168,53.21023142758974,52.37850884042717,53.00741843769419,51.22806108169905,44.078854068484496,33.039293850016485,20.401214391622354,6.423445067368439,-9.44845132922881,-25.30640876444694,-39.72766140311197,-56.89194993305816,-81.33567092904501,-106.27511210234923,-114.45213396094475,-95.80955312881261,-59.25218157443908,-21.82566246675934,8.646655439084638,33.20177514628682,52.708207815041824,64.7241218337228,67.40164109073518,66.40232082806551,68.18265922250792,69.5104588618666,64.9226104466759,56.70226267597754,50.13469039054181,41.583597946222106,24.384519147728735,1.7359249732773463,-18.33093674658065,-33.44560758613098,-47.42532024290047,-65.71668388614799,-89.8553231659448,-114.40264479068433,-126.91949026179364,-115.95175326231619,-85.88338994380668,-52.085599530047524,-21.802556209271753,7.441759815113109,37.30342664211869,61.525192886368416,73.74671567140274,75.01184444128407,70.98451405629548,69.26523562716143,73.05897093360453,76.7150353259026,72.41898216883962,59.82001485004997,44.502417985179875,27.686180215647525,7.051771929292102,-15.00659999347896,-33.06611390297283,-46.64991281118898,-61.03867650433721,-81.2411580954928,-105.5040862929957,-119.52074737186292,-106.18033636884189,-70.37228997696448,-34.04829762431954,-7.3299769217968445,14.493588166466761,35.88175487150185,53.48878811420774,63.096770026467745,67.05373924705967,70.222656770693,73.73782875389725,74.73813321915813,69.42467210400838,58.5631966683009,46.972835667420505,35.57904403800199,21.33032808559027,3.0958188607065393,-15.018205810875799,-29.868930480333418,-46.61266237850765,-69.62891136861637,-92.16568992960242,-102.86071847093368,-93.89522565456825,-65.18107930524017,-29.453049955039354,-2.9262943572562294,10.720265159002194,22.929005389182976,39.62752484816716,48.72747610581017,43.350134294929134,35.48995947604012,37.160189952925045,45.23892982134807,48.71735055588822,44.69202752222393,37.96735189475717,27.707070722178536,9.920131023188588,-11.473076301915313,-29.609929538964508,-44.94031393386052,-60.472363239036866,-74.11574167605792,-83.20615318379804,-87.56251657688416,-83.43114619073359,-65.63250038253668,-39.10352229892307,-14.599103947011718,5.2718145049776,25.2032693043191,45.01489787794133,59.27230885037623,65.71832093891557,66.9491740149376,66.16195092340806,63.01756631951029,57.22945791364675,51.80588267617955,47.03948948092953,37.291845027294045,19.92728436475988,0.3587353979685114,-15.185394709235302,-27.69345017834875,-43.00175144655742,-64.10860618768523,-87.67719406024332,-105.06413554994344,-104.47191020589455,-80.5349946119615,-43.639160231325604,-10.934962042085058,11.487003389536214,31.953704686722485,54.34247993327886,69.18456020934914,72.12637343495945,71.93520017951928,73.53792942251388,73.22372413730936,69.38401373932851,62.33958730124863,51.58597152105127,39.64930421972655,26.77728418417389,10.593130013827665,-8.070901267599776,-26.98122366161598,-46.63441643764691,-65.54181374334664,-81.9415522048714,-102.21842857432246,-128.31611906243313,-140.07178439923484,-117.53180050292217,-71.74609520901397,-28.80384572953595,1.4366749486092356,24.34910879861385,46.5733217401117,67.35015077633958,79.30980501526369,81.31347051475447,80.40770250106165,81.8983204571502,82.83078475954507,77.00944052242812,65.33144046364194,52.42708237026613,38.131861933606366,20.890130281760364,2.8378119263172215,-12.902076463692472,-27.821707692214353,-43.924561161846505,-60.56944767928247,-78.48609303502988,-99.58662231737061,-120.02984317519453,-126.67041831111574,-108.13316119816902,-70.81786742927788,-32.77420010097687,-3.118970060237198,20.272467045232414,40.47681585824548,57.30771650431376,68.13896773237357,71.07550096676138,69.43491944911219,69.69074504216624,71.67665970957356,68.56018590948375,58.214663386284926,45.46024139509691,34.428558844260166,24.511959076701704,10.731275406802228,-8.487160080361857,-28.612114824757384,-46.25582868535934,-64.35452870245824,-86.08450454353579,-104.74389898768027,-106.49084977525223,72.0,123.0,86.0
68.86302489111343,62.626221673419394,54.572075461893476,48.2667434966354,37.57490912502705,18.02465973831966,-4.588544627997921,-23.11620333773354,-37.349689084423574,-52.07734373673476,-72.19371493808012,-97.33627067235791,-119.91765030028719,-126.35348357301213,-108.5686424661312,-75.92390422935438,-42.977600515989316,-13.438965831299098,16.140356625028897,45.27968827357711,66.37414480250261,75.04777388969207,74.06381852313653,69.94770292947288,69.89635069516201,74.53055229944202,76.50074982611028,69.40475940718413,55.47457491816276,39.91700986059061,22.13894174699332,0.5698195326657192,-20.80074597595625,-37.2837826678949,-50.44092327861249,-66.16974667085117,-88.20538434144514,-111.5279929673537,-118.83464803094974,-97.21922185637997,-59.09640488925562,-25.388713288407125,-0.8489789412121715,20.729877977876725,41.63291060369357,57.11032872842064,64.58305196302908,67.90283460138617,71.27380738280857,74.47409930608785,73.95137371060444,66.65006199930696,55.127443537202566,43.76895959354777,31.890509970837506,16.386362611032084,-2.4155513115890455,-19.56354006194183,-34.159739368773074,-52.70317452055386,-76.70954103179525,-96.91021055703645,-102.50359013032048,-87.2999709103048,-54.77548721914096,-20.335850206611173,2.0249366536011357,13.781055476747683,27.579076116668457,43.71460665237443,48.403365992759795,40.58571418895666,34.82814121871937,39.32372690269667,47.09598714393845,48.13589650390867,42.881752550090035,35.60972369162844,23.349258020700535,3.7430662846461034,-17.19742538554007,-34.13199695543056,-49.40303091948675,-64.78681339824679,-77.22823547264149,-84.9990016359393,-87.54577748779981,-79.7291786457096,-58.356319245901155,-31.469505808119358,-8.559883905167101,10.865419707384177,31.155582173344662,49.91954899614676,61.887202639539474,66.42893164634853,66.87439833511925,65.56761084214,61.5306618174122,55.47751059266607,50.54667571777274,45.00174181250761,32.946577607241245,14.142912648359344,-4.664347872037147,-18.876351894219834,-31.586534420631725,-48.53240246908618,-70.95981024436689,-93.83412636026216,-107.22799756363516,-99.79483351184652,-70.41522163210345,-33.15348508383555,-3.598768767591115,17.14649914674038,38.478120551964196,59.900482899284526,71.01007560140707,71.95377351834952,72.29843509210372,73.82898137130546,72.42193689690501,67.7353661731485,59.54500178607994,48.145241176629774,36.14317669102197,22.488199145165357,5.326926444919002,-13.53526734405178,-32.54811145479093,-52.35359202105419,-70.41286473624123,-86.999599442586,-109.63175466507754,-134.4586222437742,-137.24692729173637,-105.47663786907454,-58.17070252400089,-18.8592249107935,8.457361831003512,30.672711788471673,53.02480972137842,71.9749681079719,80.68342580836766,80.99276490410216,80.55723943915193,82.54163781088096,81.98639468820123,73.99137489321134,61.63472118747315,48.54498728698862,33.44471769741323,15.569522228395341,-1.9766833621295112,-17.146880045929596,-32.35936132532366,-48.70320321051999,-65.50924370701289,-84.24776707456705,-105.99061388645762,-124.07524755154232,-124.02282802327046,-98.51237882448018,-59.2026796700804,-23.32085736836517,4.098975869740628,26.37770507995211,45.77863875400105,61.187082413457794,69.78226568026645,70.76598590652061,69.1240992884621,70.34972041026113,71.57254696701183,66.16881412096521,54.527974727951595,42.01228073796562,31.630565241372757,21.13710213578577,5.61171579209643,-14.458549011071565,-33.95155415682774,-51.19553607552384,-70.32197548224435,-92.37674428685249,-107.52630015617514,-102.66250211356476,-77.50148545806765,-45.36036381461733,-17.57617156169839,4.045492489387875,22.007776960860525,37.80001864011752,50.07700276825867,56.741614313040515,57.06699500655035,54.499036941134776,53.75399645200759,55.93923586838879,57.34715017897387,50.22679038200211,34.01949311995058,16.60740577169074,1.6454957095058211,-13.07691071837279,-27.208728755389345,-39.98435975817835,-54.46677384105146,-72.21701025131013,-87.91181653925348,-89.89951898361443,-70.40459822514515,-37.38495174477629,-7.941545502804839,11.347481062273738,28.786558478169848,50.69677710529249,69.92012220883043,75.08885685071276,68.79478935618032,63.66886522805823,62.88783339554773,59.90685116320136,50.98473561885953,38.072729497763945,24.18631198004424,8.394604594742367,-10.291320108340337,-28.93365607768129,-44.351048348099845,-56.564298955455804,-70.6412978959647,-91.92127845101072,-114.51895702755854,-121.33262204090725,-100.86447404593326,-61.42271185242186,-23.261268499125126,4.542676478364966,26.376174660103306,44.04921710862061,56.65189339420716,64.95867887693007,69.91677243042122,71.21223158586847,69.34539809374735,66.19987728908133,60.86078264877917,49.398992977069874,72.0,123.0,86.0
-100.35236720139072,-79.1614614796066,-44.22003693081839,-12.341058949697068,5.992824833927415,17.11548251295689,32.55262753678439,46.730816598880786,46.90899110749173,38.05265834636678,35.13815244080792,41.78374393859902,48.30031767805398,46.998474164479234,40.97422518793498,32.83065740928472,18.30429588360054,-2.5391880799659776,-22.51709674120026,-38.52711270583548,-53.9183119276875,-68.83872730421332,-79.93425875752087,-86.40060354902207,-86.6591182950427,-74.79599044351016,-50.61293180467408,-24.24965364071052,-2.84168557381792,16.592731371278475,37.001620644993956,54.21584292357953,63.85639512141766,66.80280048580786,66.68622971547882,64.72896765092183,59.84828040490631,53.86097677538777,49.27343930589214,42.374532353766966,27.98160464920537,8.375889421460665,-9.242287220979613,-22.42432770386406,-35.8681413272946,-54.56407798184228,-77.87691417479788,-99.2217641358826,-107.58151827635109,-93.16787847822165,-59.625636037464915,-23.422454394771847,2.911926830526977,22.942470399821815,45.10009861127879,64.50145661109556,71.90727607106723,71.80743041756172,72.80744773276676,73.82839050379792,71.35612870477041,65.79354074176555,56.45375461451689,44.69200264081608,32.50475591696864,17.872950503234378,-0.07873215033079084,-18.98343621844368,-38.22101537469538,-57.9077753566249,-75.08677017515109,-92.63857789270052,-117.41345375434526,-138.67076594832446,-131.27996066945013,-92.10371010331397,-45.428287587665636,-9.978045225179079,15.062475649846752,37.077024510749396,59.223597265624235,75.66924253087684,81.31329182678881,80.64485763889988,80.97303077488985,82.97477173671838,80.44867894238389,70.61087366588667,57.92092632804073,44.48822515113037,28.49169532213938,10.283850961302623,-6.549862905278534,-21.414117857259825,-37.00645361097342,-53.5001416671319,-70.60660986709242,-90.31554108534817,-112.15692118802042,-126.55969310703182,-119.09919921049712,-87.6990773920057,-47.979798015441894,-14.628419268760169,10.902636737839309,32.26721442477471,50.758028155609416,64.48858760127709,70.74222364184673,70.2281032215506,69.12225313685838,71.04042167860825,70.8538459716996,63.22101712792343,50.789924530856105,38.777461106106614,28.850757878511295,17.29516423958513,0.07602703333132771,-20.35369409533258,-39.05392584717482,-56.31244238023519,-76.61901860992054,-98.12495625836304,-108.53853740891452,-97.03459564341912,-68.25645996326666,-36.647612786710305,-10.784686267704185,9.494188657961448,26.808536706569303,41.80645921376011,52.66110175027731,57.425677405679316,56.375480294732455,53.96784171885634,54.13805580925443,56.7515230858394,56.435352097119704,46.185547177770694,28.77855650574689,12.097263933280729,-2.5579566798751467,-17.322620272109866,-30.955548713355075,-43.83284857600868,-59.339719250361306,-77.40303409039761,-90.44464344053195,-86.4631883070852,-61.49986029201337,-27.878382842423807,-1.507011387601715,16.083450240583684,34.71880697385613,57.12271682453007,73.10754877630815,73.89566918435429,66.75985914822158,63.22215233890793,62.54594672080309,57.93352189813651,47.49396160030019,34.11683319712953,19.93313941130105,3.2223561091104487,-15.858229610818839,-33.801574114632125,-48.08015195258133,-60.11718128368304,-76.00962836218646,-98.96601079256682,-118.89824543963027,-118.2689553292994,-90.55630021647028,-49.48209887813894,-14.259500394081247,11.256479460850253,31.967779946376936,48.206568715875555,59.43430695245514,66.72647702366358,70.69249343743193,70.9093945733459,68.52378485970353,65.03639544452078,58.3217194138359,44.80573632631093,27.726350968966905,13.911903225551926,2.5994562031290434,-10.712752134471977,-26.960709441596883,-43.45241959267604,-59.53372538028073,-79.14045642057899,-103.04041916815825,-117.54478478756906,-105.45510222735,-71.46215414204036,-36.53635885380254,-10.991145006716797,9.936697233725058,33.351035295398084,57.41157682490425,71.5507651600537,72.90548171284928,71.53644104298226,74.68882852855008,79.0440359581482,77.51995911081417,67.64081266819431,53.60593045815864,39.653933319767276,25.433543037034823,9.906358330694678,-6.76507076631815,-25.10684482095109,-44.5282738684179,-63.81728179560741,-85.30786493312429,-106.37736779962187,-114.14421273011763,-98.61693954451405,-64.79044555169611,-27.511434868042866,1.4532235103713078,22.033600501287232,40.05574135309961,55.86971338438103,65.77376596276125,70.00121504792656,70.10340990375599,65.711622045703,59.87228955051748,55.213260369578606,48.762538899636745,36.620331130468834,20.443854586288918,5.119070043938259,-8.411948675638362,-23.433581805915985,-40.359170550121924,-55.96163306222244,-68.95959441796568,-83.11802673450902,-102.94776884568013,-121.4961805681949,-118.08131170508048,-84.66209355242367,72.0,123.0,86.0
53.15215210415729,41.243989674646386,28.64855096928786,12.951492480749742,-5.546247241047416,-24.44519962448247,-43.97468874976247,-63.20170892965367,-79.73913220006527,-99.01877072066986,-125.0387696979831,-140.31144596663907,-122.43949260400913,-78.16798445179685,-33.77838485359661,-1.9945805931588847,21.439529948734126,43.569550130688945,64.93994653586817,78.38187809789255,81.39785303267169,80.43037814325538,81.58516983894688,83.00216309478763,78.23447744554647,67.02187275911609,54.176427255581565,40.19894213310166,23.3229139777615,5.13946578356335,-10.927603321522417,-25.771876687118105,-41.73039535227504,-58.32582983259753,-75.93463829266575,-96.62819775013811,-117.75070424320226,-127.12836717415419,-112.03451532438966,-76.20640329184383,-37.39827672559747,-6.614698244359856,17.378604032253474,37.94059550522639,55.345386300730546,67.14510569541407,71.08913291306766,69.65805386616587,69.44678120202896,71.55606087907717,69.44449429857814,59.860123686575854,47.111705950987385,35.75827006204156,25.940849953979026,12.925369873238868,-5.747072330800824,-26.06234099754168,-43.997419227030335,-61.73178557669311,-83.09873833857755,-102.94302425022238,-107.59884106585906,-89.89159023422647,-58.8294580715195,-28.478124836615752,-4.47091498486786,14.709930847927138,31.436313318417458,45.465072414016355,54.72649040192686,57.586668899208526,55.57768445688358,53.68065477372739,54.7587077187806,57.3479222988724,54.606971641829595,41.50762773952279,23.659041095040433,7.783194116743034,-6.810641079075721,-21.456446215578413,-34.61119209393936,-47.926576593395936,-64.47913110788376,-82.20923207303547,-91.50316120415918,-81.14669448303434,-51.844089439428274,-19.09053864851888,4.103610233030766,20.968559237437702,41.06609951803078,63.00981281744425,74.88927208676085,72.00975145621146,65.13307106948746,63.053720390380974,61.83059341947188,55.44169313800269,43.760846173685565,30.13291510701331,15.44915078488407,-2.175778917211802,-21.31973872922283,-38.339771934839476,-51.583505857978,-64.0034110189306,-82.07244188465394,-105.81694461535542,-121.48370274113711,-112.78938749237463,-79.08698381916048,-38.16528805393153,-6.128275727617579,17.622588351086655,37.18397278564107,51.93200619104188,61.8917352822767,68.22888281080246,71.13968850040776,70.38330868747784,67.63922410869398,63.623039987889456,55.157086578378006,39.87964402104428,23.253874162199697,10.608725463884692,-0.9073143888550868,-15.190326225408654,-31.822120471988164,-48.03539555575366,-64.61677127513751,-85.90193894800086,-109.13400254490001,-117.12678380351855,-97.01107472204032,-60.64666119661553,-28.21318199101784,-4.855885029738077,16.288904886999447,40.63724923534901,62.95103407731256,72.9493864643253,72.27831458010112,71.94815109590365,76.15878595503261,79.45035520519713,75.44025421167436,63.742516302338665,49.513565449504235,35.64534204255477,21.08394679278916,5.20862319141621,-11.863339885398126,-30.705976323341872,-50.06285909252454,-69.70487285863437,-91.86528521802879,-110.65234581610295,-112.12632462561344,-90.15226835050235,-53.679545351918044,-18.051976603286402,7.997091728408307,27.32878276163452,45.02451036680583,59.43329111722202,67.46036342965627,70.47582453748198,69.24950756139778,63.96649719603304,58.436376725902754,53.76307633524159,45.89309863615406,32.14046500334857,15.764837659814773,1.144652165904284,-12.473654282055994,-28.24653576136718,-45.1423293587806,-59.914476836420526,-72.66110988140467,-88.2366927980896,-109.2200349197485,-123.66409434993277,-111.04886936444339,-71.9082468280422,-30.463881530952737,-2.3808039956455143,17.294006292037405,37.07033957667317,55.89493041892679,68.6673647863538,72.80048419553214,70.12228939746753,67.69248311678425,70.83095995928795,73.55576214811202,66.326016517977,51.25761620306516,37.013644875924065,26.064442758766145,13.868108238284197,-2.964855514227834,-20.064384533701563,-31.348261194972622,-38.499725146360646,-50.656945040731365,-72.20549289225725,-96.54690505807802,-110.44412308407414,-102.76726582149401,-74.2947110324042,-37.38609002895248,-4.543254840621196,20.240474854432502,40.58940546510584,57.910381594483994,68.58004469180288,71.35010782751941,70.1844415728508,69.53371627603111,69.43805200187029,66.62561614517709,58.77316657336266,48.94943166949135,39.57766709618167,28.18684991273168,13.53255803146492,-3.4707635891743487,-21.996029286769996,-38.11291173161771,-50.35264806928687,-64.53459240136156,-85.81454083598157,-109.98747640968432,-121.99315888565573,-109.42303555265262,-76.73954307718229,-40.98989887229691,-14.591740620927991,4.2637221089774355,22.861469241473255,41.59278202323106,53.59487737974154,55.993987631635406,53.8055617006136,52.03684582273309,50.9552316453345,72.0,123.0,86.0
-104.66423951813995,-81.59984266933361,-49.53437403008922,-20.885749280997672,1.4374087782855074,19.74179231837879,35.85098119241813,48.72345836254761,56.237102464646675,57.30960640834282,54.810426010135934,53.66672657125075,55.54827603658916,57.495471074136,51.81993362926933,36.42884623622222,18.771128155713786,3.575082011634693,-11.100110498670936,-25.432359758474327,-38.26842643761829,-52.327071904589225,-69.77145609135485,-86.33194143224024,-90.83597571232775,-74.12971772614148,-41.920799978421,-11.230305305990207,9.137874226432501,26.213287920169105,47.652190272961136,68.00381254224742,75.30706865371424,69.81231263533847,64.01526416357412,62.96178611381271,60.635437196464714,52.48411929414087,39.88496497536326,26.088590252537543,10.687539716308907,-7.716444040563522,-26.589034555918683,-42.531695735767336,-54.9859955728004,-68.4014046621543,-88.72021880987181,-112.01501809267025,-121.92198196462466,-105.07959157213203,-67.0260512417802,-27.73747211244487,1.3027986189271443,23.684802162838583,41.983666400991275,55.25031132102737,64.05439958964988,69.45261269603306,71.26029335482802,69.6984166062322,66.6794156100886,61.84123851606423,51.352668808211526,34.84134006010152,19.1880253799094,7.398038974050023,-4.675848908325909,-19.886065492525265,-36.61880269631303,-52.61608371714933,-70.13635645144672,-92.94860692947407,-113.93561143439916,-114.15694109892674,-87.15285858835766,-50.28858521553858,-20.728694184598435,1.106630322885905,22.989579188592373,47.8036505323087,67.36099476990348,73.38281026792961,71.73987938512354,72.81292537542994,77.55222302420016,79.20524635042364,72.67197228486172,59.65632936766096,45.48289794881103,31.571121888899448,16.615994679647876,0.42429436465347425,-17.128880165717373,-36.34425885908818,-55.58517530071275,-75.86891676388966,-98.21110880800805,-113.42069755025126,-108.03934634594376,-80.43261442766266,-42.68815487312521,-9.48219470820039,13.965955185433467,32.54823691605673,49.72834627098348,62.419874351957354,68.73997662753384,70.60884818271732,68.0152832119258,62.22653461093677,57.11398700420072,52.03572290127577,42.48346883068943,27.43304711780325,11.274692253557664,-2.7247827339384445,-16.75416872974255,-33.16951179811724,-49.723527744609825,-63.66011274229657,-76.60572698325107,-93.91390508854812,-115.03555854048611,-123.40696840111946,-101.60781215195333,-59.04657084310227,-20.896783287566667,3.6692681145013193,22.856140939248036,42.844907640604305,60.38893492353489,70.76778016363458,72.50052250226123,69.01325005162609,68.05424797064907,72.18098449324961,72.67440950887654,62.37255514248524,46.779377356729675,33.62024002171972,22.940977359733775,9.425570658615765,-8.205781742211409,-24.05561234290941,-33.49216063099729,-41.10534008814936,-56.01299244845477,-79.47583470256768,-102.25477866323,-110.69900113390709,-96.26526887471825,-63.846406087685445,-27.099965539400603,3.3561358467641917,26.389779559360637,46.01818437974563,61.841545718534654,70.09326647403566,71.17086936796255,69.84496479359986,69.55969384900182,69.07832357954796,64.84026735869914,55.92497599904402,46.24820607109619,36.626865029807114,24.243684564903642,8.84807085237648,-8.775170587270155,-27.109192271179772,-41.89165196393424,-53.92022824135516,-69.90465670854326,-93.01691017038077,-115.47675978970629,-121.0545548603932,-101.40047611971033,-65.93446923456818,-32.228337098614546,-8.720580501283724,9.452505812011353,28.49688954900468,46.06220011678083,55.145712190858376,55.5418059595283,53.148393525963705,51.737162488274606,50.52186182969362,48.51269360555499,45.979379756419696,41.042803740370296,31.4931927300285,18.94215321923861,5.638831883123069,-8.400630706672647,-23.540411047842735,-40.39210771726129,-57.844034017773055,-74.8346610135582,-87.92555658323464,-85.12212064263565,-59.48990963495888,-22.4652491252371,9.38846329584974,32.96052024429275,51.49070747168955,61.40355363342019,60.84533443712786,55.97170941217168,53.87650354496169,55.387517508138515,55.78645666245006,52.40508648553752,44.89957016636108,33.968730789670886,20.75885919782807,6.275856486057674,-8.857912791029387,-23.18554990820757,-35.89789094484273,-49.03688847469139,-66.90634556865366,-90.48706594228211,-111.0117613576428,-112.9965655667376,-89.74223703563703,-51.90029416703751,-15.687955605423166,9.919800805667029,28.491923747471354,46.491438059410356,60.42366836070428,64.47842105606315,62.040171381960356,61.36931556272996,63.81272043168319,63.7402170278495,58.47589807728014,50.10381869088,39.40599672075577,24.014636406121646,5.434574014782958,-11.033582351994687,-26.16084954256223,-42.94899796699941,-58.87465135170092,-74.60369424698936,-95.36469259806842,-114.6646230383701,-114.69349736250523,72.0,123.0,86.0
46.97698410606938,29.911254819121346,15.504921296582182,4.145250823844199,-8.739420812866875,-24.715122558836807,-41.31805951996896,-57.301608077857054,-76.17692481658985,-99.94975463850453,-116.91212802111268,-108.71729205834343,-76.48695568158328,-40.675301951317195,-13.94002810449079,7.107340446898736,30.023841679630912,54.54039430276035,70.51773980473044,73.14810657734037,71.50426103042075,74.04111905604121,78.67098788153186,78.22726969496836,69.33191447132356,55.511400942637906,41.49173452499505,27.397337773810918,12.04439326056039,-4.4663676342203065,-22.55735563330296,-41.958626389605705,-61.18251143165817,-82.28962098685798,-104.00184167079706,-114.3749118060743,-102.00026833709026,-69.84804972724676,-32.146969306051645,-1.8058347540205992,19.54521816835463,37.70841555749037,54.04265564137155,64.83761347287191,69.6758988296766,70.35776343807878,66.48471861435667,60.58310014184916,55.826201911143485,49.906650001610366,38.57098094711288,22.642573041674083,7.010905417242009,-6.596125443284857,-21.274387772117876,-38.106075768363624,-54.054372800593114,-67.29026396775555,-80.94751349814364,-100.03867566560449,-119.81367334068916,-120.41180925742881,-90.30869616231652,-46.69605099963903,-12.592525814004091,9.29722613995371,28.564203943607836,48.415575107456654,64.26264542765551,72.11580193916879,71.72546719814817,68.15008793905164,68.93559897037443,73.21749528060178,70.78165179480024,57.969071094082736,42.56478521021919,30.476263428940577,19.54816595756448,4.5805909138125065,-13.289839132407353,-27.439295160259977,-35.4446653418833,-44.383865502999356,-62.15652541598392,-86.71910934779291,-106.73658314279912,-108.941741847499,-88.19986417167941,-53.06257866597975,-17.408873984387075,10.59588101695644,32.295151976189715,51.15891394783952,65.10382781671683,70.97495115998086,70.80113732032744,69.62978814003424,69.58342237902366,68.39110761328836,62.61532889066913,53.04559320421283,43.58283184505712,33.41719377677454,20.044909588322625,3.980045083660705,-14.173925551144507,-31.88277335160488,-45.391546014930526,-57.84489074160664,-75.94553342189714,-100.23751626996565,-119.49834281899676,-117.87534009602554,-91.99860173514175,-55.34818193796364,-24.420102380255397,-3.2997922297735296,14.781559574913738,34.04970506757872,49.762582695232,55.9275804290712,54.87545603416734,52.61066376223701,51.450991744184066,50.00763551293116,47.856057406311095,44.94730918992139,38.75827850746715,28.036919213120864,15.145952612240318,1.6730305094205968,-12.631239827152429,-28.237632381452098,-45.45606728270471,-62.814967230563944,-79.41234491275652,-89.34919929717842,-79.8945607668268,-49.10858055101688,-12.279778343243883,16.843820660351014,38.85908895723836,55.485674976612614,62.15741193726253,59.51185843240512,54.87944921244327,54.119288735415644,55.81004498215601,55.23489692384381,50.6437642217377,42.05158069654281,30.323255435270813,16.68846418199541,1.9175548467603394,-13.148599211493252,-27.004359799056285,-39.47006038570077,-53.5429489811297,-73.3034795959522,-97.38727589450922,-114.10878996688672,-108.68587544510359,-79.54980081565634,-40.66373280176545,-7.123148245313239,15.609405750137611,33.70169731451829,51.28996036524365,62.66695679233311,64.05504974209198,61.40391860356858,61.955016572292,64.29289790948603,62.707311658506605,56.26158706377855,47.33638947841491,35.514702732643144,18.726092339885668,0.3229500783370726,-15.325371932896784,-30.87631152049611,-47.77011594933672,-63.19136400997428,-80.00265003104279,-101.85646330663012,-117.28606286517186,-109.92620501175925,-81.6017359535759,-45.13702137384026,-9.072206588357817,20.87249741192362,43.41103552774047,59.94273425473173,68.57733036234382,70.36265899214847,70.83092364190651,70.7819768918064,68.56976250268342,66.09003077785452,63.70700994620798,56.59281046775588,41.78193935847798,24.144123661513746,8.822162689507836,-5.213759115931872,-20.096344850960616,-35.32970744998717,-49.78298531289024,-65.82703635752148,-86.52008744181386,-107.38836396043267,-115.81147061353114,-99.92952514296438,-63.24002587519304,-24.27707932062096,3.8386078462576805,23.79356824387808,41.964696008401525,57.44936020667022,66.22421633544072,67.9435995853633,66.1573059911738,65.13472070377766,65.0226687154007,60.885106216605216,50.35752399526491,36.39231718995385,22.69574845694426,10.736989266947319,-1.699148925665253,-18.594299869035996,-38.41346216711888,-54.418491177527955,-65.89827342153137,-80.97770190242144,-100.76246716518365,-109.89157401551668,-94.08733837238175,-58.22739613819803,-20.571705672276735,5.915028874359152,21.963111628091003,35.403366630856624,48.5005630328083,57.75324021967623,62.34137212655691,63.84209252426653,62.54438226445147,59.54170383265873,72.0,123.0,86.0
-77.84379746290367,-35.30993074601729,-5.394447012034031,14.768000887659879,34.37998014819743,53.63934671544653,67.44581505691148,72.73967405457049,70.65593240911136,67.71506175180463,70.1903536046927,73.63860627388017,67.92604266011688,53.37497925722184,38.68521001321037,27.457200152471824,15.763875395909805,-0.5487369943610112,-18.0346911685421,-30.233034721697422,-37.46777077001262,-48.47705337343478,-68.930547864096,-93.59676459755082,-109.67945757485201,-105.16351828827722,-78.89882617620172,-42.27738103625619,-8.430374041575813,17.29593976010447,38.013705463591684,55.896415095201895,67.6493941818194,71.32921326625173,70.37213315918422,69.54071030217446,69.52138018319867,67.28933396175454,60.041951918603786,50.221680178339405,40.870523410401006,29.907824867266175,15.63141687379595,-1.0772818060759728,-19.557034945014493,-36.24418956525716,-48.77714302821689,-62.282995615326264,-82.58967984356565,-107.08141902600242,-121.6826530524607,-112.54545235847296,-81.67555061111587,-45.33827019092829,-17.511294198734227,1.8921574319582284,20.280231471926662,39.319157183488755,52.59162525864752,56.08544006670823,54.13791144215753,52.195052887432915,51.12731924476018,49.428610086329485,47.16159475598137,43.631588924638685,36.06376310901884,24.408799096904744,11.31715695166932,-2.3658842609326314,-16.964877029129536,-33.09153202012328,-50.515551225213585,-67.75434073675245,-83.5060321959112,-89.07083552098369,-72.74718366908164,-38.239173487282805,-2.862956740095636,23.7084629831845,44.37423117640619,58.59777724215588,62.08365617229284,58.02384296555299,54.168024933827205,54.59080149076827,56.01168424728279,54.342282657374405,48.54090027015001,38.93948702862104,26.523856624915567,12.52211590856194,-2.472196296578849,-17.329746102360158,-30.68259465766878,-43.16590325225636,-58.557133460471796,-80.14003510888577,-103.70517633812275,-115.257738044081,-102.27601784740122,-68.54729586236472,-29.93557002830388,0.4431113087598255,20.93168611923101,38.95646901482591,55.550906120977224,63.996567432031306,63.284831155036585,61.10640514606091,62.7230555509525,64.40134068816106,61.24388693145768,53.86488761378667,44.34782026346961,31.159301332672126,13.288823585374615,-4.489104344231732,-19.624992654231317,-35.74996749890584,-52.41365210546472,-67.60057855600502,-85.95254125631092,-107.86080984786814,-117.84826500264255,-103.33221453846402,-71.42105442930448,-34.395096830525745,0.3921885010903765,28.04904345126119,48.83651646096931,63.34114628334455,69.56012880800077,70.4553626125701,70.98768866949482,70.3419161002957,67.75986825327993,65.53572582031762,62.39306866461238,53.02676189722142,36.64304923277555,19.42651407145196,4.766719402265466,-9.397709208998183,-24.53870571359125,-39.56966579737473,-54.053467410614275,-71.3376040632984,-92.97507639587344,-111.76360386415965,-113.95838889093037,-90.7964263351526,-51.34001869970528,-14.903058162710035,10.0760649590971,29.116857338119907,46.91347611926949,60.78549581506962,67.33928085931373,67.58050684750303,65.64845281636511,65.18169588934757,64.46106659429147,58.44195951760451,46.483677850878365,32.28875803559673,19.07947745957161,7.38943891255363,-6.027464397008443,-24.298031414362466,-43.67636167926265,-57.92905559487607,-69.52183802476252,-86.63948688117124,-105.37346683409628,-108.0871484762951,-85.06677800372522,-46.725723801304696,-11.546751564484332,11.292511511104234,25.833047637514895,39.34948810458158,51.70192915643507,59.48056408276151,63.058466351213916,63.74671390518003,61.750974241036374,58.67760640618476,55.67463290553766,49.878100936340054,37.98009903759568,21.46446489386754,5.817310256799103,-7.004763564454831,-19.881012141967368,-33.99704409413331,-50.788720560171946,-73.6299180994944,-96.21683418090343,-101.0262797966761,-79.22336354787204,-43.44224409906918,-12.11594314313371,10.806353774642178,31.050819656309994,48.812394063855244,58.375129796210025,59.02419102299909,58.45249749458927,62.8387791397869,64.85916575028922,56.55901132550865,45.03585115216522,36.303557306692284,26.213960665309635,12.101832043309587,-3.641623131108136,-18.78247921011685,-34.93850462432633,-54.509991611900546,-76.10280154269996,-97.91548538843534,-115.7087459119626,-116.5917883325297,-92.51242033889748,-54.01913353465312,-18.979590365551413,4.813861516174299,23.008914217888453,43.00543696177055,61.09889299882827,69.40799149601973,69.2091207246921,67.19391299578342,65.8706741801183,65.13731308171116,62.86130523672076,54.6689880836184,40.7777486023477,24.732174764775035,8.954413726139641,-4.936596649606857,-17.710597100541086,-34.282397757817556,-55.155718375564796,-72.3616982441859,-86.05478085093408,-104.19230834293687,-120.02124752682604,-111.79690362318026,72.0,123.0,86.0
50.73212611892504,48.8077809583377,46.38454942586722,41.953507026347644,33.00605425058719,20.680435623207767,7.444069998734184,-6.478800077894954,-21.430097102763504,-38.0694057428523,-55.540793153779966,-72.63165932263676,-86.78852211371851,-86.84231898837339,-63.972025648220814,-27.364508658874826,5.70991782218835,30.125495775515287,49.39026760283467,60.74341927410467,61.350663417854996,56.57677760921745,53.87633056056037,55.14481539477538,55.92969740715773,53.098336890525836,46.11781199494057,35.586999262642685,22.60234512077299,8.26520797931508,-6.853097615194828,-21.37284421851082,-34.262062666256504,-47.10535118242919,-64.13844871835099,-87.2179487863744,-109.01839379366287,-114.23129449869131,-94.04699609542509,-57.16473026600441,-19.972532203995907,7.10458378573436,26.10868448952354,44.157661110205915,59.081811833582535,64.4906227488017,62.413292603186456,61.200226473424244,63.500574212830216,64.05883772377864,59.41794738028714,51.32321897263039,41.052827444252046,26.357949593839752,7.876848115072432,-9.018037624049498,-24.054342950412103,-40.685250508610615,-56.868924459205715,-72.29416362727464,-92.34171952089466,-112.8493900003377,-116.19661856935949,-95.26658621555465,-60.86048206246423,-23.841047870194796,9.214057770756561,34.65267341960745,53.769878733264264,66.00142853006608,70.0776405968542,70.57624361931747,71.03815496160576,69.70929730254029,67.01125025625197,64.93979070449593,60.52677270643998,48.81213117448869,31.464253593895634,14.966484022201026,0.742126223224553,-13.683421615965232,-28.969519256887374,-43.72883741263551,-58.56762606848231,-77.2774444070345,-99.24057243135553,-114.72889719268278,-109.85182847015307,-80.22062838858886,-39.784125820299835,-6.593728165738027,15.834687341249767,34.39755083904429,51.535424639689616,63.47590721082212,67.90674644502755,67.03622872776023,65.30363819472548,65.23636395522087,63.41853907803986,55.470265919674034,42.43217838127711,28.283121039527533,15.619022819520804,3.9028728309232013,-10.818637446707445,-30.11842671177355,-48.440926929843634,-61.16180043260277,-73.70114295631801,-92.55226813665159,-108.58306916222061,-103.98096634351272,-74.7122227747963,-35.5609820633334,-3.649260770358524,15.95366246684746,29.68385353090801,43.2212357798365,54.48409811216019,60.85402688953838,63.547330340494646,63.413024098747485,60.86602337097657,57.855536186239874,54.48103373416724,47.12036288233899,33.463832691849085,16.633109098394424,1.9189367544846283,-10.60465638696294,-23.836185344308937,-38.40078727341375,-56.74286829573175,-80.86618540978311,-100.19151070785198,-97.28421714349504,-69.371600665386,-33.42327509103691,-4.8475342664095,16.728160836004818,36.67168627398871,52.62256749007704,59.26618896935342,58.53476039704121,59.261940423201786,64.24784249696012,63.45437724774752,53.069317939058166,42.29254232095645,33.77303238174068,22.49774511451648,7.575414975435422,-8.091897053197085,-23.18659130059502,-40.23910072782773,-60.65284912938286,-82.43524036089022,-103.89515239191651,-118.35498872321432,-112.0737103535674,-82.04079275636236,-42.90674597312087,-10.997422390610277,10.197209339651105,28.524539143702007,48.848765019305745,64.67132560306246,69.91507590773266,68.59802183774534,66.73697877346787,65.61958065107714,64.83974030166843,61.22306958828143,51.08341033305582,36.23311247474949,20.057380482001168,4.709281653444915,-8.589227542372635,-21.87268835632878,-40.16672980108897,-60.7929653323964,-76.29825298847382,-90.68713060007275,-109.89079304889142,-120.9420993329447,-103.40553319468503,-61.32976597583438,-18.973354143203508,9.440691198339781,28.803938883040868,47.955601623469576,68.18751978064138,83.14596168744995,85.314665668983,78.54520998900063,73.64936615330859,74.07411043184638,74.64581292265999,70.39486694997706,60.98697436589117,48.37454208708418,32.14493939769148,13.221778288415598,-3.126738331318742,-16.546013874982677,-32.27674848036237,-50.374341098691474,-66.48157870958184,-82.30359191638196,-104.20011490216918,-129.79722264642933,-141.5817463836323,-123.1227274268886,-81.4459169469876,-38.98545057525101,-8.25087451818381,14.889921714213232,38.110331085379634,59.15025308643722,70.00139607518078,71.11041560801276,71.9468286969677,77.28903171556811,80.83965644051183,78.16111741732725,73.8982239980713,68.95989564300446,58.012425762392034,41.325952799804384,25.465533901342845,13.387435666132749,0.01106742880969854,-18.96838138281482,-38.68330964672112,-52.97303198972666,-64.38656096077737,-80.06845076803802,-102.50375625036783,-125.03163015708154,-131.22583597026556,-109.54800723781206,-68.23998751839736,-27.977731510655186,-0.49163739566562176,18.789376310427013,36.517628339966784,53.781734458586854,67.59924165496663,72.0,123.0,86.0
-112.37018497378433,-86.10183143298934,-50.11160667222502,-13.626427063357134,17.34999584595407,40.754422406012516,58.140817016935216,67.92363714439814,70.3070429580492,70.74582742914208,70.91168849801161,68.94452121707769,66.35994192683586,64.16634359071307,57.99825425091934,44.084303516816085,26.405376413620754,10.723884770149478,-3.317276400309772,-18.05793652327552,-33.3425446959268,-47.86174852599738,-63.43850491307637,-83.55507750521441,-105.00039046295029,-115.9323158828786,-103.53511823261786,-68.71046290383562,-28.953440545761858,0.7397738238602967,21.316222501607093,39.607666911152656,55.707337347364046,65.50580662273902,68.01745577010088,66.42818532164088,65.14891579060733,65.1516930996,61.81889399122812,52.05366192951817,38.30065532159801,24.420640668976166,12.267068855454779,0.1514608644585975,-16.053672281971714,-35.85377219370743,-52.65386583995229,-64.36063503801913,-78.53532591450606,-98.30218215507443,-109.96237422183042,-97.67153952680161,-63.524647800986216,-25.090300209995554,3.134857171702683,20.134222379163322,33.58623931732681,46.90098462410213,56.821852712753724,61.93148197690909,63.80419577057288,62.86166322270845,59.95513573789509,57.03560389778341,52.94424152520993,43.79563119560137,28.662742245248328,12.02387172477585,-1.7735479663919462,-14.292144621998277,-27.88447596915817,-43.10580496504291,-63.28269959042955,-87.7630565440706,-102.20064136566421,-91.29734868267683,-58.86830009116758,-24.148655535468407,1.8032203404347695,22.584787290701566,41.98175735417533,55.59870829777211,59.485009332749605,58.20690016670392,60.54424007656849,65.12079085408234,61.12762551407862,49.61951785001117,39.799278124345875,30.967023817421364,18.451979458298165,2.9978121427879305,-12.4593419956288,-27.765390239832218,-45.85140795816085,-66.89508782816465,-88.77208256094198,-109.36472561287314,-119.1862540430902,-105.43558473654181,-70.80211287555733,-32.49605282924407,-3.9933875999114963,15.362789527558975,34.304795942024604,54.310478214832145,67.27336840682544,69.86578494680778,67.98591368692801,66.34257760706113,65.41859265905532,64.31739288993708,58.988405426492925,47.099641523694615,31.589322738964952,15.454668404975973,0.6538517184012105,-12.20304713321901,-26.51832788157664,-46.29827508167862,-65.89518455957673,-80.11458685919523,-95.87839968552206,-114.98636768504423,-119.2720686554139,-92.81081714249949,-48.09079826142959,-9.268407870809053,15.48730069259523,34.13711694486595,53.843236518586885,73.47571558139956,85.19631368735749,83.78719931058797,76.5644734368318,73.36160037596534,74.5166479771265,74.01869659137033,68.11476701273403,57.62906181431156,44.12166365056869,26.748859867164693,8.041122316971963,-7.089623520522487,-20.682612252476876,-37.46455288334213,-55.33863894024052,-70.78612999044724,-87.82885410342551,-111.73882761022601,-135.61821463709288,-139.57270500797753,-112.53092782073495,-68.35188619732224,-28.83595920382215,-1.2125820333590824,21.45127610411849,44.79318898715686,63.556682921832326,70.98605062504399,70.94551626393323,73.1494873765763,78.88692271753169,80.60385341572737,76.8572970539464,72.7581888180164,66.587977189024,53.53141327398544,36.37959346566596,21.677961538725402,9.994007039204813,-4.953924922478772,-24.9534809121112,-43.455947462105236,-56.23005930828337,-68.2416946792703,-85.93395318509947,-109.60380198123876,-129.29004975120938,-127.87151228791346,-98.77749435276463,-55.637970324088705,-18.69798853149573,5.528994460973161,23.929345708707515,41.6221786496891,58.324413078099376,70.33957746974397,74.49194448973509,72.45289102097723,70.1259700535805,70.65287118200985,68.70599616221023,59.80001443353564,48.18902836154405,37.35350249840235,26.34166809910473,13.696610918217628,-3.094896690381752,-24.450960649252625,-45.15813974363763,-60.733060204126225,-74.27813226540802,-92.19799568469124,-108.05560044516223,-103.174949727893,-73.61887035504552,-36.67499816176345,-6.955283864444907,15.836213242285435,35.11795382664117,51.102618632637046,62.39313357545357,67.74452168612682,68.53610732530926,66.77836685886402,63.80923616800307,59.40258626807924,52.79862256270267,44.792514514181676,35.739324983717836,24.858803525475075,11.059143982343866,-5.019661624991411,-20.163908898589273,-34.679151488520375,-52.0662709301998,-71.98595006711821,-90.36460411387903,-108.53230295164529,-123.37491812145186,-117.48635740387097,-83.55151321576437,-39.77874256896135,-6.05775288726951,17.84509416054463,40.34729683434096,59.66092466991437,68.59951844067916,68.70354281091994,68.89355326858133,72.15834025225575,74.90649285884241,73.30700611067506,66.95078596724123,57.29539380883083,45.83678176255019,34.486893209632534,21.177488024357203,1.9401819100441147,72.0,123.0,86.0
59.069928470854,56.14050564519053,50.963264969356416,39.92772963516252,23.73463344233865,7.705937870629768,-5.359630123391712,-18.091619560486542,-32.0362079684113,-48.24232117927756,-70.29796612721965,-93.83486049893355,-101.94788400731298,-83.39066847900595,-48.24893071955347,-15.72019250497523,8.027796642147395,28.398867340237555,46.80260601947215,57.69754563883178,59.23218963105929,58.259669797441425,62.10565372239816,65.16686793849229,58.10430716300749,46.40836668567033,37.41395903042382,27.802322162322046,14.14905592534072,-1.560928235946,-16.78347600299572,-32.60412916829548,-51.72908289755651,-73.19009370542938,-95.0615873595221,-113.97893866258785,-117.92297727491389,-96.94592347156926,-59.29026167691332,-23.009207906674956,2.184346886103765,20.554659465879638,40.254485375137634,59.14178223537432,68.93179166407607,69.46302303096564,67.4277328006571,66.00615349929731,65.23447729346861,63.42982608159474,56.15946258913705,42.82231117961469,26.897976936843108,10.970723639772721,-3.211682078090464,-15.917892989042377,-31.71135360770773,-52.41503407458406,-70.43426956103524,-84.0939927897326,-101.51815026175028,-118.84099964024767,-114.79791780394223,-80.61128689129968,-35.476516688849266,-0.8581816351908401,21.04405971052825,39.6177001663993,59.77293821319113,78.09518793178853,86.04091246446842,81.75997738916689,74.99736925980334,73.48240751667697,74.79897058685202,72.90604638809933,65.445734970925,54.0483769170599,39.51572720485661,21.213642825511617,3.221288532021311,-10.89954056723867,-25.148888616649145,-42.756904506958904,-60.03300651200454,-75.21055118107293,-94.01404472824936,-119.38534987035898,-139.71586400241577,-134.77668000077793,-100.45500813469451,-55.76638970884571,-19.78221606650263,5.424472689123023,28.160461898202747,51.10626599429089,66.93059856565117,71.29848051430226,71.03704722083606,74.72323517137251,80.09257839282772,79.85072669919974,75.59228122282111,71.4711605833832,63.574560939072924,48.68002291356523,31.68380048191812,18.202503240439206,6.288405556831712,-10.408998667917484,-30.795688685074378,-47.67225621166753,-59.419673350227164,-72.61153890071377,-92.36766571757992,-116.43693045845178,-131.70998780908369,-122.05335892601462,-86.78464367899127,-43.66393978207057,-10.583489194594447,11.094902288332905,29.0436550240084,46.66995695895177,62.47278472463751,72.38747742901013,74.31924267113824,71.53573774063798,70.07011218014512,70.70543054195666,66.78018518211175,56.45908950674884,44.97632967591222,34.25775412811694,22.937033576083824,9.393966768956455,-8.942495061852936,-30.794832575197507,-50.21619159804995,-64.51698965156834,-78.9120318188535,-97.77479284360142,-109.45685164625236,-96.65513790916519,-62.77742810894907,-27.131247382712566,0.1259083514939506,21.717725580834717,40.10735229637411,54.94230945466826,64.52984716866781,68.34584875238023,68.21325916236086,66.0182827384028,62.732924830427784,57.71718380628192,50.572536341648664,42.320407998513744,32.815487555606296,21.22577026279589,6.502256414533114,-9.581746116767055,-24.27999056574304,-39.28448887926622,-57.760592317169085,-77.52572255047792,-95.4906309737918,-113.75407503910903,-124.61308638332375,-110.15475636178704,-70.76256207342398,-28.612048103093343,1.4161218754732054,24.322186872517538,46.61009831683298,63.487048869772295,69.1608397639094,68.42924326649393,69.61798485655086,73.21447201489563,74.98411524708672,71.89395357300451,64.44806938912387,54.07142186331869,42.52186381390593,31.068077355806786,16.274861376935302,-4.5308808301157715,-26.756649825306038,-45.334540545125414,-60.84299786921313,-75.8247351100625,-92.40851946410172,-111.36894530731641,-123.9023336344492,-113.49492697739632,-78.49925445399711,-36.92741027053169,-3.563353735655176,22.5408058508433,46.08256369037479,65.21176477160284,74.74906669632871,73.14346495086201,68.89992552960828,70.87826733586917,74.41522356856223,72.04305920806955,64.32093240994533,53.57530374884741,39.79820613043006,24.589357463822605,10.765486535640632,-2.599619689305533,-18.823673291591845,-37.811526011069546,-56.37197861280542,-72.24618851597447,-90.02643744980772,-113.40919562127517,-128.40513525805227,-115.22803919325281,-74.48851579190942,-29.482102740212763,1.025680370983981,20.368413711610934,39.035495351010255,56.15128006674118,66.28491364765578,68.97049770296829,67.52178714144316,67.09625438922028,69.13630065712354,68.19927176557259,60.17781553285421,47.68463798505371,35.216793463224974,22.883608813778345,7.257197327643654,-9.877936917097935,-24.825250329988663,-38.64356587349191,-53.93656676278143,-72.29781979129352,-93.43350110545472,-110.42640749258241,-106.39798850593431,-73.73245482431163,-30.714114174376938,1.1580235723894328,72.0,123.0,86.0
-107.57865926454603,-67.49415386816656,-23.894511883893507,6.409776309076489,26.368575485317066,45.284071674103615,65.59427557173514,81.80133527347405,85.76635464266549,79.54665134767046,73.95017713512104,73.86072514871908,74.78337854446752,71.29764219648477,62.45612685703165,50.22817887911914,34.54712342182061,15.70554668522673,-1.206673965121356,-14.728292714568259,-29.958025101577366,-48.00622373209872,-64.48448595481769,-79.95607228317674,-100.85479570372213,-126.69121069008783,-141.5821023726512,-127.34453525327677,-87.52365684600917,-44.040772757660804,-11.702336494304738,11.902180437144997,34.971892391843724,56.79828151992041,69.25921166331881,71.20784014498231,71.5486763091513,76.48129292813204,80.74580832986523,78.74120532707121,74.41750079081415,69.85945674499841,59.9073916998862,43.650452136516044,27.338345514609077,14.901697940444896,2.1161310948826446,-16.220046892435263,-36.30106139339235,-51.390511621893566,-62.75104730529706,-77.57207576410839,-99.24237902780561,-122.57027611903514,-131.9322798643035,-113.95774120347875,-74.13501883593219,-32.66303807362296,-3.483196405310204,16.39563416590885,34.15868049182214,51.58612505673479,66.11661141832994,73.72828713220181,73.73001780835256,70.76493647644934,70.25837738798532,70.3323563053518,64.25901714774866,53.05950752830265,41.85028157414258,31.104461067292647,19.364048100246787,4.661386683423104,-15.12364767077509,-36.91119597413324,-54.784684467862746,-68.30106581706673,-84.04962515726294,-102.81269278343703,-108.641610913852,-88.2529249069223,-51.87344532685314,-18.38970871269082,6.7549891445832975,27.348768421360305,44.81079456632636,58.33544349284826,66.16544054215767,68.61970174308182,67.7222874593241,65.18219980713737,61.5102503132413,55.83801250531293,48.26912037799558,39.7430021426189,29.726469379512835,17.304912564189294,1.8220450624172135,-13.989888031269656,-28.40703252581561,-44.22679411770075,-63.575962885529876,-82.84938030638526,-100.71978477405239,-118.46450134936504,-123.58827319229472,-100.56470452728487,-57.81125969969463,-18.61943986268652,8.294882487230888,30.84575365577855,52.428099909499174,66.28917506705211,69.15891882736675,68.3864069335412,70.57055481989622,74.10969852198106,74.62613055402002,70.11500910144129,61.699729311064715,50.74428386750621,39.259613499942084,27.367462450130503,10.806152546720176,-11.121462360103672,-32.56964779920871,-50.01217174708407,-65.12908165726749,-80.35482183853318,-97.75793558004202,-116.39513616778609,-123.79783592263,-105.3401304391574,-66.22755985611947,-26.227568214181993,4.433970699698536,29.559696994916102,52.281661628864136,69.16523764882777,75.25227335299805,71.62104102917965,68.77634501490817,72.1908102812459,74.45201127550231,70.20743041577153,61.51034828541213,49.89357874925369,35.41065956528385,20.386796174502592,7.024585921960918,-6.913887075525242,-24.131878430572442,-43.387028174188956,-61.1951728473801,-76.81664675123108,-96.44888191348994,-119.61778764869696,-128.0196975596057,-105.52026975499726,-60.73264401599379,-18.92320338578676,7.193260131171657,25.622265501440207,44.4307908180188,59.921337832343816,67.72962198594564,68.7625564899155,67.08774713551944,67.57979584827181,69.47290110583052,66.60317225615715,56.80465605825322,43.948889461101444,31.798949968078738,18.774165632575883,2.2311953639869184,-14.456275953183656,-28.811629179375437,-42.81349520721516,-58.890914617735916,-78.22636070932774,-99.37919907581815,-112.20882396765806,-99.52489106409531,-61.169902361681416,-19.85852559870007,7.4980367704903275,23.68013219268814,38.53256473620337,53.60757110049714,62.3822043804201,65.4776656684297,68.75188731158838,68.95738416131435,61.41392754656458,53.49913583931221,51.108609387524055,46.12387247558502,31.444729425470534,11.9832752301126,-5.166455018843807,-18.909710813362736,-32.58820158079705,-48.35572052698101,-64.53783979703813,-80.24871077223257,-100.12337785844761,-121.668359189971,-126.82787410120328,-101.56751718978124,-57.73528944038058,-17.755764713079508,11.236015450750417,33.40215593919635,50.768231076606,63.712369080730916,72.72353174205672,78.58157898461121,81.16326269556828,79.57683256144203,74.98209212952784,68.93357575874687,61.87713315343095,53.388891790641246,39.79322081103049,19.814289145469886,0.34355877959970316,-13.509276910820464,-26.15495544368206,-42.17477650831681,-58.897386425042235,-74.7634858763347,-94.6885635206932,-117.14979149804492,-125.29250246553772,-103.83464578624067,-61.60390778147304,-21.720288515446594,6.407615375042412,29.515756027516577,50.799036055540434,65.97173869272403,74.02283953529712,76.72940806395047,76.09940153131203,74.80558275834122,73.64593998644766,72.20149330175424,66.71717617609364,72.0,123.0,86.0
69.1597105770729,74.39330125431493,72.88301940522801,70.25558598571962,70.54387213151533,69.37135186101251,61.280393064618956,49.70482599924199,38.77085710199045,27.86814467273719,15.554909717772352,-0.5401512333206698,-21.495468961868344,-42.65980218993453,-58.929820972582455,-72.30471763773889,-89.58304320650402,-106.7573802809719,-105.44425016525157,-78.45422023765182,-41.32995304143447,-10.408612102978372,13.037232877523994,32.72645140528287,49.198342074560514,61.23252977991308,67.34218137542831,68.61717413824337,67.10028220572471,64.26487688901679,60.11218357471509,53.789653961977265,45.90452652872992,37.03579196308628,26.446263410774474,13.091087548778358,-2.875160485564893,-18.244050177027884,-32.652100696797355,-49.5198347251038,-69.36337141609843,-88.01041805568016,-106.06188284545777,-122.16322652190794,-120.01637868019534,-89.21019091131758,-45.28349241927974,-9.783634692266519,14.859681367988149,37.37257439916478,57.57238678351539,68.0827512620473,68.86494944422978,68.65823962735011,71.64969896572957,74.73492797131749,73.82280546999135,68.01569704027568,58.7298901465648,47.38173515869326,36.00744404092175,23.24827013638781,4.831791130874808,-17.6475373832148,-38.006935381587915,-54.49696219566265,-69.42709081085926,-85.07229684583888,-103.30536119365998,-120.51574385292935,-121.37426330450909,-95.34742375925678,-53.96700121631852,-16.41807645140681,11.987566346832217,36.42985578934979,58.00226545438795,72.18144762499524,74.85960114138611,70.20118749364914,69.29069002436997,73.37616320531922,73.88433943396856,68.0142696814177,58.47041238228366,45.950466818026236,30.974956837084974,16.363378613680734,3.237056311043404,-11.53336180419255,-29.625931115197588,-48.82896009873361,-65.7688180823429,-81.76237065718257,-103.32040265207642,-124.58011393225702,-124.86521693963606,-93.82111533297353,-47.330143096351705,-9.838229591685115,12.729755683895503,31.012270698814582,49.541080471850485,63.00873796406666,68.59290040435974,68.31455045016865,66.87834772109179,68.22672435765759,69.37654200165237,64.38216379762372,53.177157946484606,40.31584274535853,28.32290553160345,14.309811135495908,-2.792528977222199,-18.80374365529367,-32.76994320182148,-47.16625368756481,-64.12697418106977,-84.36428213528929,-104.70820710345743,-111.73314086642311,-90.3178406043615,-48.42097570480841,-10.321274646340585,12.861476241314975,27.791635392503192,43.12088633800113,57.005141266647485,63.5438822424436,66.32736542303087,69.49315464899722,67.47121929535412,58.66075616078966,52.37902596498555,50.46350001791213,42.851526051202214,25.92429459844366,6.613944440433807,-9.378807217478656,-22.704804889609843,-36.93655884746656,-53.12582145114008,-68.98600310007193,-85.37530547064691,-106.7358888358783,-125.82001088709829,-122.6538373747439,-89.72244447007904,-45.08642309447665,-8.389170660003268,18.178947818504017,38.894392883745944,54.94604294727025,66.68796344946199,74.71168961166646,79.7157304300974,81.12977453682508,78.46442467237713,73.3541806879203,66.98195725454892,59.66745856017405,50.190219749412755,34.495717570915446,13.743624343508877,-4.193132876790327,-16.96439093264023,-30.438654541586413,-47.137289564953875,-63.42570958677649,-79.88805245908372,-101.4134290318434,-121.93539193864751,-122.27601350735178,-92.75473886070915,-48.989183112362284,-12.534432916675453,13.242858241214547,35.99861746667946,55.97371661865717,68.94694763001394,75.28906194026594,76.75946721785468,75.72029474475563,74.45095756921097,73.33747444042356,71.29065283435706,63.65694979930804,48.50374092954802,30.60892385905103,13.061828813394513,-2.4463842963541027,-16.18534051011035,-32.027910821716524,-50.778156723009744,-68.81210261024658,-86.55697937908046,-108.85435094771378,-130.92109653882179,-134.21568947701527,-106.0529577149934,-59.9561489183606,-22.363233763026354,-0.13914333085493866,19.8085240828086,45.12399448511389,67.60331636342337,76.4682168908368,73.72450941125278,69.40674179867959,68.45383644472636,69.34330169720272,68.30719814421911,61.502189177315806,48.36212868471346,34.29747070748901,21.393019933916925,4.911559914826929,-14.590786569166399,-30.854355337496752,-43.596419735388395,-59.53172670808,-81.96950351582795,-106.66681865404013,-118.60201680628066,-99.51065199841965,-54.37470999238197,-10.407458634435887,16.47805747261998,33.564137473223596,49.94937169528339,63.56043410069118,69.17830879644245,68.3456721574637,67.67360800133507,69.8673769586841,71.25957506078377,66.36450010383703,54.46013224163956,40.15250176342218,26.819188965541567,12.222465313541802,-5.941630513558489,-24.678716947471333,-41.54331109587897,-57.56343340058486,-72.45600411197395,-87.71966509083725,-109.2397549109271,-131.4094434694337,72.0,123.0,86.0
-1.5211341896252855,-23.954148477294257,-43.09317615739651,-58.85739523901433,-73.78347514760836,-90.03116272554435,-108.87348412726911,-123.24335214842301,-116.52638971207224,-84.01787419781682,-42.1444794118122,-7.450147210039845,19.255211495903247,43.0998527948884,63.105531855286245,74.17893906141482,73.78730378563712,69.17833937891179,70.30470832773429,74.20254568914223,72.74255711773824,65.54141983162695,55.1812088574626,41.78104595408693,26.579697312481382,12.504716435015379,-0.7050027179070378,-16.457945097871743,-35.22255995022104,-54.05324866004912,-70.20154258433521,-87.27077703129848,-110.29272489087103,-127.71620695698475,-118.89082898188526,-80.76741522406573,-34.829944259965096,-2.1289640496023288,17.973295017910793,36.50286639366946,54.19627228126538,65.40574174427066,68.9507688827724,67.76709050010882,66.95892425033495,68.88187455838289,68.71612799076013,61.6112204737482,49.42428673324753,36.80370001407579,24.663837416633577,9.535220657391875,-7.688308086085288,-22.9582604276005,-36.768640346534,-51.74271387189084,-69.65337407583898,-90.58875749436724,-108.96476835690123,-108.69536808638003,-79.27101344107557,-36.105661873058786,-2.1606795371255116,17.526941203049265,32.02265692684341,47.62670460115801,59.69735697393282,64.38787865174889,67.30209210606316,69.7686761484064,65.31357653130128,56.1866143702471,51.72780114865366,49.28012405626097,38.717558842681385,20.224035686852307,1.5688479535749893,-13.34712202496028,-26.597018827859205,-41.47635662160386,-57.84705405747188,-73.43084941985632,-91.00769222241311,-113.27111715542476,-128.02410449717476,-115.78506318869498,-76.89976829463436,-33.24821761774614,0.09871745968104546,24.6659083387045,43.99755957638598,58.763421407361825,69.35014265358278,76.45882980490788,80.55248495061548,80.73379458636714,77.1558178888033,71.6270349651843,64.95574227687513,57.31098787684241,46.43069466952203,28.716122817821322,7.955057821605856,-8.229137244680054,-20.50996671530102,-35.04801583190138,-52.02684708269244,-67.92004705147586,-85.52074056419687,-108.1650457007454,-124.97220358704828,-116.56357471652944,-80.4420132529757,-37.13880414280537,-4.3220730726204275,19.901727442054078,42.283588516465684,60.51456644289868,71.36897126208659,76.14328869878248,76.57719739714805,75.34114808623295,74.10976042250682,72.98564450154261,69.89768059202657,59.90358264503083,43.397592176795094,25.44258625178257,8.295044831521682,-6.455351407939562,-20.388173909456345,-37.28109434716073,-56.19274961912417,-73.75023595078423,-92.42689333943217,-115.90389541295801,-134.71786052832914,-129.26511621665134,-93.3450858096815,-47.35270990699899,-14.777896631448405,5.226075283505721,26.671437495822374,52.52600749218228,71.76210303282267,76.44178395655435,72.25969071437876,68.769598929673,68.67447941010965,69.42059006912135,67.07393088540071,58.197709166592,44.124858745798164,30.610262103808996,17.173460509017914,-0.6851485200239088,-19.826927628921474,-34.65723678587226,-47.57984792953245,-65.39004706280537,-89.29071937284577,-112.38077669360727,-116.68863628528419,-88.10935256253607,-40.35418754945398,-0.8879230478195239,21.835963245223567,38.268232437520346,54.45214966517496,66.10677689404488,69.32453636900684,67.88107822350943,68.07628971761507,70.62058150673127,70.65550363777038,63.50158075252226,50.332998119523616,36.19907621721663,22.919678998101478,7.29281624175596,-11.489643426581827,-29.725491965519545,-46.22153744119543,-62.028091584120695,-76.58352552852111,-93.13668705559442,-116.39728675260933,-134.8221277024472,-126.50556643782735,-89.61002713948994,-46.26435641437048,-12.553407598946768,15.814338843565057,41.87321542264602,60.27899290221935,71.24555835670898,78.1665227521121,80.43855149273597,78.31249121478935,74.67307227713398,71.15604906912493,68.27005884300398,63.210862849554246,52.64172587662937,39.62291074761818,26.9300523125449,10.975406344113159,-10.91204254436056,-33.748225124488826,-51.64106787896168,-65.72944637978843,-81.46172098063023,-100.68078088622191,-119.52886452637307,-127.61910001502288,-114.245687791247,-81.12796877143296,-41.41862933052547,-5.003970150173333,24.652782237864052,47.169565507164215,64.25062180687989,76.1903536183582,80.61914255290245,79.65925535319482,79.27495221438396,80.20546612278422,78.46584654888642,73.08518766551818,65.53781624152458,54.14577841226969,37.87918110677881,20.353786054634632,5.533847098282627,-8.12701092707105,-24.651131655656027,-43.07257263204705,-61.79669221230233,-80.53296769599895,-99.13262237703947,-118.8989312214068,-132.38913101454293,-123.01232094005258,-88.66477659836418,-46.98353023865537,-12.232139851641092,14.723160412269742,37.61391510235897,57.79505867044674,71.62598156661561,72.0,123.0,86.0
4.711941811799874,21.782243039535384,36.44040582959702,51.83096204319728,61.6807936341829,65.12560671910646,68.31675818414361,69.38677120117727,62.69598870993162,54.210977822624244,51.30847137194993,47.32434921427618,33.86689560731274,14.54677479572421,-3.120920940200296,-17.168250512543278,-30.652519712267996,-46.163802499469476,-62.456007161486816,-78.0286809118811,-97.1501362358433,-119.25170545208401,-127.82000804355992,-106.51730132923294,-63.748092745484456,-22.405862768162578,7.861448875523514,30.737556293415214,48.71824458938954,62.2295388620315,71.72156349979625,77.96854679988216,81.05367299739373,80.00840966007898,75.69652926933364,69.8047177037719,62.86440904106486,54.70756114808412,42.03613660111226,22.646449884828378,2.621353148572958,-11.89493411473492,-24.298758622437973,-39.89482608689693,-56.767312691579896,-72.54036828723257,-91.68810987087569,-114.50710713026095,-125.77542338633702,-108.35444302475759,-67.55877951424571,-26.325509193111007,3.144543576856259,26.493485112627933,48.220657486010005,64.39752155981446,73.29216301389225,76.62160360014603,76.26594973594719,74.97229153853834,73.78812461169558,72.5023749413616,67.88268952665491,55.565803809478865,38.20763857814669,20.33407965126916,3.7557984037761383,-10.37449471192757,-24.878912682509018,-42.72655346758553,-61.44310684693606,-78.75945355989556,-98.80216019986172,-122.65018194200148,-136.39638467972446,-121.55894271026204,-79.77032315969683,-36.07249963874185,-8.334284418374004,10.803711368897712,34.01409923106404,59.347461445085884,74.59645849197693,75.65013406993384,70.9121045421462,68.44965011917083,68.97053382951034,69.2401510317397,65.26389356904741,54.41346211300886,39.991252159893925,26.96966652061521,12.51086540879831,-6.4076037576849325,-24.636372664209546,-38.26377419853628,-52.024722179825346,-71.79549596849527,-96.63587505017018,-116.52144310319399,-111.80422217828892,-74.9998232156665,-27.185741349952195,7.088126196153324,26.72131873663116,43.032806653095136,58.56980243269444,67.88603371273946,69.06281719162166,67.59923738599868,68.71387265572697,71.1650560793458,69.40540888048342,60.10634323091341,46.15053047527184,32.36133783422029,18.802404539202982,2.058571380721475,-16.965325793909898,-34.607122378660065,-50.86758219937647,-66.35691666611112,-80.84364680592722,-99.24522572756395,-123.24842772135882,-135.84351117910876,-118.06527828362114,-76.63180329105604,-35.441056566455906,-4.1911345305519285,23.78567309357804,48.14699767219708,64.00786080028548,73.626747704854,79.36219662206736,80.16194918652727,77.30809789866393,73.59986827855137,70.29241934927607,67.25351820227725,60.713594283110375,48.89482009885634,35.98213223014413,22.89228952643092,5.174987674010853,-17.754302405896553,-39.53297593074504,-55.86646996563418,-69.91277030466809,-86.71755518100888,-106.50024977826601,-123.55352431535741,-126.20235599284823,-106.21967345024467,-69.73140466038377,-30.330630564473623,4.326869155012732,31.8413126529365,52.578111684491525,68.32534901749483,78.29485402126465,80.62056773986963,79.30413684793436,79.5664901719692,80.12262815802342,77.20416658290048,71.12755749994653,62.77452169332356,49.85594347827461,32.72011935346645,15.72675599418727,1.6903536776390868,-12.546331769997611,-29.907678642579434,-48.44777995925798,-67.25244692460825,-85.8526589470307,-104.76504437853906,-124.1578906716494,-132.6068818204816,-115.08889299738311,-76.47771590960015,-35.99023363049887,-3.8076257963716373,21.61509916890278,43.791604314235975,62.678174177132206,73.88994765091924,77.09607057652069,77.68253328019172,77.74420295619385,76.0329830418683,72.50131363026496,66.92837705376648,56.86831776672528,40.780295826619465,24.153412115068576,12.555488070168344,1.837387707599978,-12.725924014069413,-28.466644895118115,-42.97168893655113,-57.99720725299158,-73.51201363512585,-90.33254664654328,-110.82897202418292,-125.8050959992591,-116.2665394608546,-79.05915267055383,-33.36079437404124,1.2731985953140352,22.623634775341603,38.8848078317636,53.193080995748616,62.04688946296634,64.3362498617365,65.41239115197138,69.33672911695884,71.79174253162446,65.92833228807713,55.86390263628264,48.74096835640279,43.27603596618109,34.57406494072844,20.275752628597278,2.7163322245248374,-12.395520466278178,-25.123733132437913,-41.12252538682198,-60.20372304770299,-79.00022882280958,-97.2014535140585,-108.57757527791121,-98.94734686830414,-65.48822561015174,-23.84582033924538,7.764049406051767,25.508822518896118,37.248078976961146,50.141860403853016,62.11612835657995,66.20071891507523,62.66812861604162,59.40485629257037,60.47456200665811,59.51265549189021,50.80771224027676,38.24457742074534,25.319020975881347,9.942925633437097,72.0,123.0,86.0
65.15786576641642,50.79965361260039,33.00293088613315,15.323711195810828,-0.5407216932387603,-14.32188447281691,-29.697979325943965,-48.243986134893824,-66.51823146972926,-84.00995708741274,-105.61626448127201,-128.59831829077373,-135.54057965171575,-111.41246276173104,-66.09601382241259,-26.332557727641657,-2.6343440611158884,16.837029423730378,41.61619664111741,65.25821526504109,76.14715858792869,74.38713356247672,69.81102299816034,68.40245672974588,69.2480739399327,68.70259115616761,62.83236580373977,50.310006061682884,36.04784243406541,23.21214997720385,7.399276517719966,-12.05986891830221,-28.98944730192108,-41.87308436222588,-57.027023665665745,-78.67236785730654,-103.65890821196726,-118.53024925740864,-104.00635929062193,-60.949352671432685,-15.343118595991164,13.755366199234052,31.412508077158655,47.7919010932144,62.138102599734275,68.92461958894528,68.58577553460518,67.5826666503854,69.4938010408822,71.34192191678972,67.47738450292329,56.30745815181784,42.019804160528366,28.574892238561873,14.378703934813903,-3.38977642283525,-22.288017704666803,-39.371816199945734,-55.467818911554964,-70.55246300670672,-85.43505788146628,-105.98298089071137,-129.17194395217854,-134.12487377198948,-107.51363549567051,-63.79761559571937,-25.58818560147514,3.9844343440891166,31.4905304209905,53.63827053098476,67.22454535098487,75.71570178822253,80.12201618897885,79.56673278293988,76.2509171013593,72.56014197292353,69.48634229867201,65.93288509432305,57.7164007136095,45.0899184727568,32.37220249688241,18.438055162117013,-1.120305592827507,-24.481989556632065,-44.80360693954188,-59.88733951042158,-74.36741048307586,-92.25351258068709,-112.14331813027952,-126.35738573188038,-122.78388263703312,-96.75864751110092,-58.15219662638278,-19.66694480779329,13.044021925870709,38.45058739615541,57.59132998943129,71.93543165959518,79.70683232267908,80.30742543209763,79.13622688422014,79.90137722517905,79.71115539196225,75.67387773494167,69.01472278775621,59.6041782833042,45.18466571176368,27.580343054381828,11.399251113435552,-2.171930935156089,-17.274929903953552,-35.24067978135089,-53.8487452066319,-72.68506877170266,-91.18180466123536,-110.53472329319766,-128.54973976027355,-130.49206703602516,-105.29329495827656,-64.22048716261398,-25.774707345062563,4.0480918029653905,28.258025992620045,49.73776993592239,66.88479918117383,75.43547205933983,77.31909906649385,77.80916612746665,77.45785001308748,75.18480486150817,71.15853786430529,64.63670385314903,52.744649298946406,35.64836755683627,20.291487970258242,9.705451982759028,-1.9784812652569603,-17.360656489114014,-32.736695020075985,-47.200248199780475,-62.474209042334984,-78.08400499255531,-95.94097692188335,-116.57046943519545,-126.21198692722976,-107.80679599763582,-65.63735374819974,-21.752558522472647,8.479111024056515,27.531072144667398,43.30713725262273,56.49706684033823,63.228096953049345,64.48298226852222,66.26038304676376,70.59833772360466,71.01576959346288,63.027912452086,53.39603234282106,47.219084954450636,41.26781247839144,31.02047340221185,15.292777828467571,-2.0935062287174078,-16.06253519307174,-29.258803901248534,-46.50057627813466,-65.71961302716414,-84.35927866742817,-101.79279849348886,-108.46358247745445,-91.31559530182005,-53.33935869456936,-13.183171294545382,14.083190016044616,29.086821170400682,40.739882519908534,54.028991558727256,64.30169787827091,65.68455543199373,61.327958089267185,59.384780301291144,60.82108953728462,57.77273740159909,47.28977248571974,34.58291427347704,21.237947141994127,4.890870395719375,-12.849737898518608,-27.931414733255544,-41.57401364262006,-55.70563562009493,-68.22477787775462,-82.39801443243813,-103.67496176809816,-120.21751605838357,-109.33062626221279,-69.11676453009568,-24.057447687584443,6.527229590992122,27.156013053603747,47.99563822573617,66.02139164509266,71.6716442328942,67.99975244379817,67.80236932592207,73.97117458876674,78.66283016395097,76.43710156400267,68.78257573483401,57.54696013294782,43.70228780482469,27.78111777083544,9.844413462715332,-8.787898852958728,-27.32391506517934,-46.235217354198035,-64.12780386023637,-81.18286756491777,-102.70438868052894,-125.85062153145661,-131.51053113733846,-105.12498366538095,-59.15071671850861,-19.55644882538029,5.214127327529329,25.43230929197751,48.20133979674577,66.11155008626717,70.93472549478346,68.18351663297912,68.15569515213782,72.87412972901866,75.97808602903238,70.18715762848876,55.950893112902136,40.41404881810231,26.383212856473378,10.10153514530715,-9.06301349033841,-26.40941074980594,-42.52179617325025,-62.27132003154499,-85.55908716139656,-107.92181853368281,-123.81284175472545,-120.5133717373471,-87.61094174808072,-37.95597417536749,2.2854184086133738,72.0,123.0,86.0
-133.51726311574052,-129.5492664385443,-95.47238524158287,-51.59180227447616,-16.5316010977366,12.09453003773482,38.737201283634434,58.34975835573612,70.05055788286549,77.47790944833804,80.43706384853972,78.74384883032278,75.17204603883833,71.58115872010711,68.67410561120575,64.18494559020111,54.311381383903324,41.32843705813779,28.68949859205347,13.461211419277074,-7.773544986779777,-30.918184491753816,-49.58228523141941,-63.8661064964526,-79.14590891922784,-97.99474089977294,-117.3545183709536,-127.62595022028604,-117.37490237805268,-86.2324738452183,-46.645998038457854,-9.50406046854619,21.133630756921686,44.52955485532739,62.23526556523213,74.99192212425832,80.46415046685472,79.86229526941142,79.18587825572605,80.15238887159742,78.94011902178785,73.93941549329561,66.69684139597894,55.97572639280271,40.2284046332285,22.582074885810243,7.338890979016544,-6.190773490874444,-22.274822720673498,-40.59902880795411,-59.28277960230132,-78.06885767866113,-96.59191017612311,-116.30628878105408,-131.58253330396343,-125.92540754952776,-94.12428619085966,-52.29207293839557,-16.337080969824342,11.442088519266989,34.70271527055576,55.354015046100656,70.3163951677802,76.39684638302798,77.47266539212325,77.87229626861577,76.99893410162036,74.19511677603487,69.62948033179592,61.87846176836188,48.12277308977901,30.693063594139275,16.908519993678972,6.727944925957915,-6.156941886545354,-21.964338073118544,-36.90616574243155,-51.527422637871794,-66.95400098517341,-82.83585634064214,-101.90101820752152,-121.43402306176458,-124.10733076540876,-97.22859183067455,-52.12978319065931,-11.424639006841701,14.719527825804962,32.22778968841732,47.549164742501105,59.22000475923479,63.91103805738886,64.70222688529692,67.39223841144076,71.52437607337502,69.43275979312725,60.01437594695988,51.28451411163343,45.71762573289948,38.87916811649254,26.97389910436248,10.152384701790604,-6.549489416456814,-19.645366888216717,-33.79706316602211,-52.043649560377055,-71.15258784802745,-89.6952801869623,-105.52793124233865,-106.23258645006594,-81.82698853877768,-41.038810724445725,-3.7190119756539435,19.324746818259563,32.4139602420878,44.44660201042018,57.67344174125458,65.67141418021805,64.64939547242801,60.24479663074549,59.72314702706429,60.74916190323502,55.33908037230161,43.62827470678605,30.900463350223944,16.869805400464813,-0.30261744363331833,-17.555720595426415,-31.844367624584184,-45.67521067033126,-59.531351363886436,-71.7805078475787,-87.89532726580536,-109.99305953446094,-120.61321495200765,-99.94313492452491,-55.331722170087595,-13.525336200760519,12.915505025113287,32.9968482856791,53.965020445682384,69.14653616067875,71.00053724072642,67.15899329323113,69.18007862135427,75.86968015559141,78.7499575006876,74.66212712177189,65.86228494670809,53.772958506365754,39.31936018592276,22.775887295439517,4.455961194853566,-14.12861488882608,-32.76378977574644,-51.6055984163474,-68.95877829432759,-86.74314677987208,-109.8334851105532,-130.29397346662358,-127.19136095872662,-92.66016066647234,-46.174077131066035,-11.149880602841817,10.965766047084312,31.82408734561311,54.42961097776901,68.87356793509838,70.39780450920824,67.5993189938487,69.20524752413658,74.3206186360236,75.40147249605882,66.66408832068976,51.30628650922541,36.30449511668925,22.095134405223945,4.671126040678275,-14.407613988646396,-30.96329629057587,-47.716474366912735,-68.81533320161644,-92.30555018767885,-113.56347340737133,-125.55824614150704,-114.00312877681425,-73.80504056911614,-24.44676997451988,10.294187713620019,30.586708305137204,50.49002749637857,70.68740956872873,81.77374286448418,80.49236807658454,71.89239739673759,64.48785801180523,63.31937290032247,64.51412289290572,60.07586985472839,46.76621474510798,27.979270259222723,9.422618866623797,-8.879885958522415,-28.123402835188518,-45.857879167707964,-60.77103052559746,-77.52596338120279,-102.59421644046984,-129.1110160405334,-134.05786079613196,-103.53339633965257,-52.385307104579425,-7.5967697346932885,21.286448965102224,44.30588898429536,65.9393247259466,77.97542795914325,79.03114659268239,76.32015693521545,73.21387452926469,69.74961383328774,67.51211969942835,65.19484271990711,56.27911943320899,40.72564109392997,26.014463088942257,13.579551027826714,-0.8244793386870037,-19.753734585112532,-41.173260226552365,-61.67878333536375,-81.59895959061038,-103.2255199505962,-124.2269189386675,-133.1475067186366,-118.59817997147898,-82.81661923825344,-41.17467144008931,-5.640529794680834,23.47494022871922,48.960275914125205,68.32228779808237,77.85624130114773,79.55404728324685,78.70677999025925,78.75354311107947,80.98152179432978,82.28246261897671,76.25567324320942,62.482648227399366,47.65044392271296,72.0,123.0,86.0
72.94165671921657,76.93991013427201,77.61641887594828,77.81930743675674,76.37401758930334,73.06816134449473,67.85316871836974,58.580846937837244,43.14280246955932,26.10721405693635,13.88147545170517,3.465029021753123,-10.6121167527244,-26.44974383593628,-41.04941624477317,-55.941959750564294,-71.43545090339624,-87.88150977713067,-108.03172942513332,-124.859134701395,-119.34555307871047,-85.0483441500109,-39.08919242222402,-2.437049974319993,20.247194136465357,36.806029856499336,51.50264510533114,61.30277697446324,64.2487801810414,65.1245642844457,68.71124266723024,71.87564897144016,67.156240726265,57.11489412325749,49.48841456208654,44.09765257517198,36.04397712568853,22.47760320837478,5.0268437832690465,-10.627616620919474,-23.336852872720552,-38.731437387438504,-57.63548082454303,-76.52898436889019,-94.90129579751974,-107.98758809536207,-101.75976926430874,-70.88588380076766,-29.102831571227323,4.440282162146161,23.708439961972168,35.70048091440718,48.32679985566048,60.857525241832825,66.21286530197435,63.316627667065774,59.563957406078266,60.24029193173914,60.06645626227695,52.33632038627156,39.93898635998447,27.11986860677247,12.194808001811879,-5.506226900618337,-21.957722374842685,-35.743526866329965,-49.8067690465089,-63.153022704290656,-75.66793884325779,-94.05893615383332,-115.38359468878792,-118.17973567903799,-88.40552633761688,-41.901086294421155,-4.450313971512993,18.803407390041983,39.0231892022744,59.465047237363386,71.0265285291002,69.82441780319125,66.91660246489776,70.99917881291493,77.40231720253136,78.21199501770066,72.51191337102554,62.66577835527066,49.80707325308347,34.764337966683634,17.607494234811213,-0.9412669655903412,-19.467529069240612,-38.24397835131145,-56.82499550782205,-73.78336537127106,-92.84624857045185,-116.85688947317126,-132.67500177710036,-120.03165160908455,-79.16808587900985,-34.337704403666656,-3.9124377391080634,16.682330859210058,38.4735312682973,59.92934421112447,70.44657314663631,69.50751240801785,67.45695001961735,70.59251073742891,75.42139875670114,73.93273926726178,62.55777223814726,46.748290798014054,32.299660407570165,17.486308997507198,-0.9239795634044239,-19.47547498543725,-35.525052215302345,-53.32626502926226,-75.5725535578785,-98.86722855350389,-118.50828472575888,-125.28054663284976,-104.90309592294521,-59.1965587599886,-12.355012444838474,16.987396803420477,35.977455524230706,56.69576134412795,75.16256854724412,82.57259731568743,78.3977093224164,69.2745578811345,63.49916112719272,63.798610563939526,64.0781154975418,57.11718473977309,41.60431796208887,22.463579023932486,4.229502585783046,-14.40522262496028,-33.53653890818546,-50.383449589988416,-65.06314771769881,-83.82927494352501,-110.9472706200353,-133.83231791416742,-128.76741546534922,-89.62237859976025,-37.86064121534668,2.1342905382736927,28.01238072079564,50.96467494536158,70.73854633347844,79.12722792317689,78.35290149962786,75.4666232331469,72.20865865991561,68.90727881564469,67.10061006875326,63.538228155451606,52.156687503340095,36.133700752336,22.350342283555374,9.802089639614216,-5.824800398321069,-25.877150082114994,-47.256567625349355,-67.3905125806704,-87.61236546596763,-109.71163860260135,-128.68589826521813,-131.59570569201338,-109.895423527014,-70.6442920616676,-30.074323560475143,3.253901404292704,31.206980220682084,55.40834401981166,72.12563672279313,78.91940545467484,79.36828969332208,78.53135755021317,79.1934697520008,81.7411955933849,81.50018655475107,72.84278184447724,57.9886147099124,43.92685186708274,31.98482386592967,17.618379901833173,0.12379179619487109,-16.51736291691546,-32.23897170271429,-51.318949669372195,-74.57522551392441,-98.08320269117122,-118.59923675052133,-136.84340989159207,-150.60177048712035,-145.87306999747094,-111.84977091646351,-61.52277463536393,-17.895605161722855,11.711848984717001,35.425310950550596,58.105952638272704,75.9972634506243,86.34578429654275,90.93732134758115,93.04215752781258,95.90358790429417,96.76876827723831,92.18843732465332,84.9577099100615,77.17930199799441,67.90940162151323,56.87477219623816,43.184607560823785,26.00382494281184,9.061056218339246,-5.1532293080397,-18.565472480955837,-33.95575435022419,-53.74040177996394,-76.13254386922927,-95.23288179736056,-112.52281417842778,-135.01248420815617,-154.74702892620093,-152.3910898113701,-122.48828309147459,-78.43134563044168,-35.9901705905787,-1.8904513837336878,25.713434378955178,50.320654882664,70.9404891416424,84.64855611750787,91.77863386829097,93.83071506659198,93.25830925735694,93.1072263797931,91.69932812187314,86.29895456262146,78.82604265698103,69.49434498289008,57.06010081446599,42.56797835542605,27.337434104545924,10.189844145206465,72.0,123.0,86.0
7.244712048891861,-10.58376696854407,-26.091963820002217,-39.71145406875898,-53.87639261044897,-66.63136383196837,-80.11380108102793,-100.6273640588958,-119.17911098550572,-112.78529474161448,-75.39850331260926,-29.397451878971363,3.3132748461788575,24.514029603168943,45.16851794355324,64.18509034699959,71.70957049578163,68.53277559405201,67.36609898958844,73.03142969889424,78.40622779415835,77.11122882544537,70.03050670106416,59.21581795480222,45.66702909192326,30.027640508831972,12.313809528105875,-6.318441326686259,-24.83390252581615,-43.724595440997675,-61.86268416161763,-78.77384226150916,-99.49230272078226,-123.26508128997652,-132.522929221871,-110.324234553528,-65.39817622309054,-23.888992349115522,2.4659106278510747,22.59864057103971,45.174758103847964,64.42716286415977,70.97667329217101,68.56398670808791,67.82010629039311,72.15162890000856,75.96583246099591,71.56391500161628,58.080401065094875,42.366925411732794,28.27990037740538,12.511998681842659,-6.523364075685238,-24.270950318204378,-40.249874892950075,-59.35949339754089,-82.41229242657768,-105.1504502627034,-122.44412642653816,-122.6156875975905,-93.50681138963478,-44.535087711815564,-1.9396027987349382,22.78868389900091,41.65529418751239,62.740075586552614,78.64492844944061,82.35854945005578,75.87654335991701,66.9738865462922,63.08766425167375,64.280110084645,62.99446532485797,53.39794892025418,36.140067484078536,17.080545871174674,-1.0157695057092397,-19.996259886248467,-38.73953862748341,-54.67764180398019,-69.6984569497885,-90.95812821705789,-119.04704684276984,-136.08680587325028,-120.41838238907641,-74.63912202299544,-24.49578964945977,10.580223527091782,34.602851361658246,57.42796253020401,74.48547314375081,79.4819840423652,77.55099171308272,74.5875048111426,71.18055188022963,68.22796224501855,66.57864197719711,61.14418049905218,47.61639661145481,31.802619495254145,18.805779035627296,5.747608931331553,-11.232338719351812,-32.10483376627975,-53.204727300289214,-73.10238957285432,-93.83001335511533,-116.00460645325235,-131.7735890470826,-127.87230532604676,-99.65618280005508,-58.42801646661915,-19.659288115262193,11.708485557754706,38.674155835351506,61.220120440694345,75.05098336977127,79.44519305365405,79.09623151784463,78.48879821101168,79.83173734427066,82.28198522881405,79.9499077293937,68.87533825012954,53.60698642503644,40.43059313852603,28.254284451474376,12.732873268823658,-4.917412988001944,-20.974524889440005,-37.25940805164082,-57.72270296206031,-81.55589927927689,-104.34814398242446,-124.03351270325689,-141.67360239280526,-151.93862172730385,-138.9568111804779,-97.88980357494425,-47.474980616620215,-8.124275525569113,18.754711140368062,42.14804009729032,63.9978649513735,79.73038990425717,88.14905384755363,91.60832370087923,93.7719372237593,96.61617613919275,95.97106243040955,90.19502692067842,82.78558159358236,74.69625058687711,64.89405218928503,53.28972209277083,38.4944121880738,20.867542999096237,4.7150205543971095,-8.994603098940356,-22.675030490254755,-39.17666448526251,-60.19369740675006,-82.17020271206232,-100.03815077229879,-118.42078359875954,-141.85627383368782,-157.01396857615046,-146.23335061782734,-110.41034709217021,-65.49832614485436,-25.249482225116846,6.559374785610801,33.065671230567894,56.852760663143386,75.6577335750777,87.31531255712042,92.82359418599812,93.77174562262546,93.12285883917241,93.03109543214,90.52004742268818,84.26008433873412,76.39971094043733,66.22103562076333,52.996018023090436,38.23902505098241,22.6984488872431,4.523200404334629,-17.014523873265897,-36.606273290975885,-50.46789036881221,-63.64916392912123,-81.32381159224062,-103.74464263067563,-130.07536493399436,-154.41285039301698,-160.7490912517096,-137.85154187968303,-93.76006979280004,-44.344103788607555,-2.1557077467883152,27.50488315788462,48.75598550546473,68.09690335737277,84.02049126151437,90.14343169439928,88.91998653480712,90.58058944571708,95.1664138728445,92.78431707525618,82.4769812827256,73.82830287225181,68.77458189931589,57.70098356512014,36.965147575460485,14.215164561026045,-3.7476998898156686,-18.41659728637944,-37.148888860053404,-60.56809686695096,-80.64432895990089,-96.2451425157932,-117.70690122103805,-146.0897389136971,-159.1286809380651,-134.0942448581826,-79.89069249629021,-27.153994103387603,8.472818524295086,34.079091605708676,58.42470966004009,79.12248454919677,90.33462252224587,92.85593669313137,91.3680334164891,89.28544577411343,89.40107262308615,91.99181902897091,89.10668921333699,74.56842468002067,54.01149256647978,35.581540790510736,19.30315400518125,0.7226532315762351,-20.920106330367155,-41.980045847518305,-60.569408258841996,-79.06704145963386,-99.53155557378196,-123.3468758391641,72.0,123.0,86.0
6.787329914457849,28.150395631761484,47.64908504672047,68.33477574517232,81.04161291942287,81.255755547429,73.15336655665972,65.14393663086078,63.163203798191304,64.53266223737607,61.175603060130136,48.99369352256041,30.55343714606952,11.821104983259321,-6.369408144136564,-25.577359527855673,-43.67777866644608,-58.847446456364445,-74.89224509370668,-98.80465048780823,-126.26639248124953,-135.42235296827005,-109.37856661891375,-59.34408423916507,-12.5770442152494,18.060824163578257,41.22920626044839,63.41778890446656,77.12128594532481,79.26380563250913,76.71058850479743,73.66053690675388,70.18222626359521,67.71069778382798,65.74371361019242,57.97984237818999,42.897668267409266,27.775949399956975,15.253820332099119,1.3406876417658098,-16.998065171745758,-38.328743489170385,-59.02723679338894,-78.88733713941026,-100.23315475346378,-121.80988056210992,-133.1586525807274,-121.99480087837185,-88.30174466279053,-46.50412015487048,-9.921188104266793,19.825764164844365,45.81070947967946,66.27357681017746,77.14543711040754,79.58242679349054,78.81874139236405,78.62296033272682,80.60716050012755,82.41185665841556,77.59882563456965,64.54460855601624,49.463213190261186,37.04305194804786,24.195241734421607,7.647449426812234,-9.774874654184968,-25.435243086869754,-42.66700473257442,-64.43729561589097,-88.429040934664,-110.32267182210589,-129.33733746216745,-145.99110401064578,-151.25422172746306,-129.50437647352535,-83.14190482568284,-34.506077174164574,0.5316234596351499,25.573643791844802,48.79323690872556,69.34276107573959,82.83026226868638,89.53169542191502,92.17358623413708,94.61949530456238,97.01175243490457,94.69787532308189,88.09506296796025,80.57130613016669,72.05500247420969,61.745752536539094,49.42740057085102,33.52725864803638,15.889337957995101,0.5942985440878998,-12.832643880459207,-27.023378984329284,-44.813951503293865,-66.75193600025958,-87.7762730380332,-104.87296603392748,-124.89555985546342,-148.0452163917327,-156.96585669698936,-137.87622619448516,-97.60064283202065,-53.028124816386615,-15.260002819686308,14.571444697795132,40.23399525476807,62.96478812464635,79.75030691493365,89.47201194698815,93.47562806562577,93.57772441362401,93.08461958660769,92.73519792857948,88.99200307232353,82.1229173861835,73.77617091751749,62.672452472110805,48.81155588321094,33.86553719662575,17.837514545436576,-1.479278148475354,-23.19356029082133,-41.11916284435398,-54.009276150453196,-68.22844852707802,-87.3395093155838,-111.03449747328779,-137.8572475116329,-158.9024177616668,-157.12374214353227,-126.58380958706064,-79.37757015037457,-31.00393534525931,7.680894492300885,34.16028266800194,54.40228145864191,73.35887843547549,86.94923399044784,90.09818422227055,88.78040272143856,92.00889007556184,95.54189661350507,90.26346987192903,79.42377295561633,72.32256192631984,66.623665651149,52.490024391889754,30.1810140103413,8.418440861453721,-8.025373641862688,-23.144306897182737,-43.72837343699848,-67.03789184000512,-85.26850635222999,-101.38429030026163,-125.78383681347515,-152.78434139303056,-156.14197167183914,-120.16194699694634,-63.274750185105376,-15.135154903855316,16.354161027031203,41.13256175541064,65.10643466471342,83.44465735640567,91.76099936694808,92.64599061066163,90.71611734782171,88.9632713417124,90.09522622589728,92.18874697637496,86.05870131274757,68.79915236195166,48.28851602594247,30.855840759923865,14.31882798074204,-5.33476897133178,-27.239642804022665,-47.55141957310618,-65.79287987126071,-84.72303541832024,-106.02150045325686,-130.7492562707864,-153.0870436805822,-155.94334851221302,-128.18616673659434,-79.23025889782684,-27.920241757884693,13.39922965909489,42.82057808085193,64.56659794608417,81.33109199511544,89.91282304843243,89.18922659658043,85.95067831037706,86.25265706072437,87.50628697876621,85.71698034088945,78.8534183261531,65.29067166829228,46.568560618554685,25.995489709053466,5.927835838058588,-13.082589467876856,-33.81632837549436,-56.68180980616672,-75.27607783487677,-89.7909910678739,-111.73059674961367,-141.41326234772936,-157.56010977386816,-139.64717227542522,-92.5741789223392,-39.10265550149261,3.0857512496836383,33.28323054591996,59.71503239145034,83.50405853993924,97.30924311393134,98.73093691637443,96.15270442015549,96.04286782176982,95.10734371892472,89.07509230523655,79.3600572848579,68.25212771653814,54.022685299726625,35.19901755434045,14.768519866430287,-4.740101975129603,-25.23889154436618,-46.91635985474228,-67.56827896908665,-85.7565025953462,-104.70889744865683,-129.01056407924835,-152.1246644369358,-155.15720937894216,-126.02112761793794,-74.83129135974838,-22.125897225443133,16.153562171750014,38.54024541373808,58.11418583616536,80.60300611368804,72.0,123.0,86.0
45.610025038425086,33.617397078169354,19.77357240510573,2.4900211274553663,-14.429333537079517,-30.035547030803937,-48.4934750832724,-71.35367010947623,-95.09706123534447,-116.03740959053574,-134.5153346303417,-149.43306892840482,-148.16994015922046,-117.83935976330154,-68.26108858268178,-22.828641064347014,8.328273060513377,32.31971550281576,55.24076256591323,74.05181907634893,85.35634230645337,90.55988687399598,92.74825878241357,95.51190144991496,96.96242646786496,93.04516862207853,85.95210965579216,78.27612895692624,69.25266743109206,58.452327630722166,45.23501658462522,28.391249211756502,11.153174030116066,-3.3641433896666424,-16.729961787690012,-31.684134006710043,-50.84576272597094,-73.22702555051279,-92.95770056170055,-109.99942952054876,-131.7846729147255,-153.0152375557995,-154.41624488975648,-127.6851407506928,-84.48082105534048,-41.1987208153664,-5.965750698262495,22.25572502128861,47.19692871405809,68.55780034341602,83.23607862526404,91.15424314635558,93.78490655668604,93.3500580644556,93.10364552178201,92.11336870106601,87.19391708307595,79.89291246329412,70.90818039722456,58.87885913484006,44.55015475894928,29.422205552855313,12.681672786131161,-7.733949840015849,-29.014742479761534,-45.14521274894667,-57.695740148411225,-73.24361695572215,-93.73407561043176,-118.63370741365172,-145.23836803942805,-161.3997441846406,-150.9548757092274,-113.91938403051395,-64.92749414737403,-18.526461847047585,16.431931505749642,40.3012632014716,60.018290786478275,78.18376645111722,88.91470886200628,89.64627713975973,89.13687874727512,93.50425314464796,95.07413187470884,87.2266210788961,76.78283517272445,70.99803616933481,63.67865427154827,46.5337534101107,23.477606711893774,3.1286131957728203,-12.162133925396349,-28.410317381079928,-50.580795962383455,-72.99489585554872,-89.64317120257085,-107.33772505689551,-134.2495265961758,-157.4323795411525,-149.5988960708095,-104.40257908265531,-47.57373605464072,-4.633503826624119,23.71684885637475,48.20815141362925,71.30643708718739,86.87342946863822,92.55650165290014,92.21918946783845,90.07274558932292,88.90835807605706,90.9416525516104,91.6446164495829,81.99485722553354,62.7751431757906,42.89287575828161,26.21408103229173,9.03532062388118,-11.604316961348538,-33.398242560179554,-52.921644581363644,-71.09236056219464,-90.56903226673688,-112.84000497379068,-138.05246484683698,-156.74078541484084,-151.02946127637566,-115.39292801865066,-63.89355692196341,-14.696173729804922,22.997128470126658,49.66770893711883,69.97451159630658,84.84628442297779,90.48538884475116,88.10518470582235,85.6460551971835,86.75007586229921,87.40130653286906,84.3469090390329,75.63791594913637,60.25239348177025,40.69747837502277,20.059327134243336,0.4019921713642419,-18.75004590666211,-40.39760623949207,-62.78378625603709,-79.45591709241779,-94.9242763953545,-120.120209953581,-148.6947764398912,-156.2143143673111,-128.17586683080674,-76.72339621415719,-25.401810119991286,12.701213803221899,41.01909157656328,67.11824812271988,88.84354478884615,98.7718591750098,97.92472942420932,95.86765049248173,96.12810826294938,93.93257534398036,86.48200725691521,76.3059442779347,64.58773194053765,49.01161029262343,29.254816426260536,9.076304830852198,-10.472153653112443,-31.466375752583854,-53.09205071308315,-73.05480481975248,-90.87213537975438,-111.16814411320478,-136.5066571839693,-155.95508026943475,-150.00559116295398,-112.61075401165816,-58.889139178661964,-9.154514820573848,23.81887175888843,43.880894906087235,64.55868080746,86.34674717046866,97.48721510879507,94.28683605720755,87.60003909938857,86.7528418417166,87.7055161280071,81.95995670830271,68.82506996738228,54.07174622022771,40.24160971855081,24.203207113795706,4.68239956282733,-16.56544706846828,-38.87941323837683,-60.84088165726673,-81.27617344246991,-102.31725892022206,-126.74602441300992,-146.41706217421842,-140.76031629594476,-105.19847888139338,-59.31087366019763,-17.781350819406416,18.381066164670045,49.21539579785239,72.69251062785838,84.72790823176257,83.48281749156453,77.09350572238164,76.3515218452115,80.56790650105474,81.07335826188506,74.01937430263689,61.36662109780372,47.176539285308486,33.650258730418514,18.964519953217096,0.6048071731358475,-19.895454367251563,-38.3760297409652,-56.16234920263842,-76.18647274624414,-99.39818863046962,-125.77156072145699,-145.6449048990699,-137.50081584776737,-94.52381683996686,-39.64661749570015,2.21722070382073,28.041852392744833,47.286081225341974,64.50287450490727,75.96568363971456,79.5849666002581,78.84106215489192,78.18966803701787,78.98305352439188,76.42092026530578,67.44027210138927,54.72680924680098,39.588951325657874,21.838598378934595,2.712581406088981,72.0,123.0,86.0
7.180078900341348,-14.096034097003814,-34.339163088725314,-48.83063772535757,-61.681833151642486,-78.68101150461636,-100.50134086183957,-126.4463677386511,-151.7977132482327,-161.54150302492334,-142.4608977248713,-100.27275396410076,-50.727396956531514,-7.068380631824659,24.205632126773153,46.12799519733678,65.5793817246911,82.3630013658741,89.94662487091924,89.11007125806641,90.02047642573544,94.75596023480317,93.70405511952255,83.96906238899753,74.6482562827935,69.56144784168748,59.80604412068763,40.056831161932905,17.047142550140332,-1.6743488440181806,-16.381221972978278,-34.26420839931057,-57.45920972445345,-78.36109392498705,-94.08189823501264,-114.22648034555843,-142.52985406834986,-159.33194093144334,-139.68182742568592,-87.6833380607554,-33.23665304111822,4.577783132791682,30.829190759708858,55.23798405469171,76.83812191374194,89.43049140654541,92.85229298070517,91.6558854633498,89.50263152736213,89.1715523125917,91.72568576814257,90.15019391469455,77.06923465714907,56.74107817737435,37.82466115665234,21.519946407507167,3.4203700601663316,-17.978470134611158,-39.32993020246903,-58.16775728310808,-76.51610962689283,-96.64210162292558,-119.97347750326827,-144.89273429506676,-158.26078037169327,-143.46696961396944,-101.25554564151307,-48.819453490432956,-2.4972656926932117,31.644399389473836,56.01258820840558,74.9745320299868,87.54706714321539,90.33215080046726,87.04973317580811,85.70511988375003,87.18895847572351,86.98030452070402,82.50552803089133,71.83161878090134,54.86814873760698,34.740603895913736,14.221560984340774,-5.056266732624536,-24.659811919139457,-47.09740747674484,-68.3118363043267,-83.47115300422767,-101.00584560322493,-128.93983171092697,-154.14246059147843,-151.69336187276448,-114.67471674789056,-60.96634270488253,-12.926546528619733,21.468857057228096,48.654622563585306,74.19788563746496,93.13087783120082,99.26097213722399,97.07384656148682,95.84157676736608,95.98726250701293,92.27296721564481,83.67668983864588,73.15364982270698,60.586312625890315,43.611514092734645,23.302365440523726,3.4657482987377826,-16.356863910235553,-37.75213189099766,-59.12304267442436,-78.31591375788538,-96.20243359387091,-118.15019095115572,-143.5871656646205,-157.5644357497142,-142.0639525440838,-97.81791554440623,-43.32491612843569,2.297507668731801,30.31968031170317,49.387491510181,71.19345834154512,91.1357182957388,97.7510853227923,92.0916560628716,86.6858181629253,87.27894704301266,86.95871641023847,78.71524966376487,64.47474290953983,50.06629358527438,35.98560997777221,18.853571948047836,-1.3357612589829142,-22.924687852499524,-45.362672978295336,-66.87092410354313,-87.12289617988642,-109.04893124822499,-133.75278959172226,-148.17402580359573,-132.94930718003226,-92.0140918045441,-46.67524061048165,-6.837880151692074,27.899809922226765,56.89050429187135,77.55613242405656,85.58406034499814,81.58119277850298,76.0578645588059,77.41602883359191,81.42499055677246,79.79032645691929,70.77689063553473,57.24801655128493,43.22108514827784,29.66179455321811,14.088025751032397,-5.318301468952151,-25.510023186763664,-43.409052062017665,-61.66464423498171,-82.51897771857182,-106.82237284915368,-133.03549130666372,-147.05301696835107,-128.1002557750708,-78.48726121144148,-25.642369384494835,10.964597763456151,33.88237298514767,52.536632150001694,68.62443469871675,77.73190456178818,79.60604410098503,78.48032823081454,78.38335705828582,78.86115887399338,74.42122505567572,64.01781508335495,50.62910548197167,34.690972634297665,16.409181048207593,-3.0664143792935525,-24.843971919542827,-47.99974463896659,-67.12110192561214,-82.94956157031211,-105.43633323247371,-133.00905601654767,-142.70091755674522,-117.24541609043612,-67.81500586778148,-17.553336834565933,20.915853837597922,47.47608528778879,67.83791170089056,84.05992444517473,92.20401153293854,92.99437524990635,92.4622089860189,91.80894519199627,86.92159314415005,78.01178645708485,69.52669323685036,60.20774295328698,44.39566726060732,21.41877274723998,-3.827357765478175,-25.84229207527797,-44.15383333976131,-64.93753537616094,-90.15205606089985,-116.31851411436148,-144.46917697040138,-168.5813231249624,-165.32220271149149,-125.03332697686184,-69.62263659485417,-22.718607213904807,12.185701010447772,41.56594543477027,68.77428034022,89.22486086014045,96.65076897011105,95.46314748373545,93.94354182252658,91.2758400977448,82.75831283138822,71.88339643933962,64.25807113436585,55.9899052050445,39.29224882057119,14.738900359088419,-9.766641176579789,-31.15306090813413,-53.601763794831804,-76.59042668594655,-98.03778292734916,-122.14385961970753,-144.33095599481828,-142.61647773690686,-103.80819363916657,-47.054440071216824,3.22606251003675,41.610036401758556,72.0,123.0,86.0
-127.33104503350229,-150.81024670785857,-157.29067894641503,-133.4953915270626,-86.28038957543866,-34.332505114091546,8.629087450775831,39.459832087782836,61.95103253680611,79.46675032966131,89.36944450249715,89.63363452935936,86.21994994150621,86.0406911487214,87.46009807519225,86.20497629220618,80.13668497165955,67.46995189291236,49.2306963857021,28.751995807964242,8.513860073544166,-10.528325823731839,-30.860398688824112,-53.71877282358148,-73.21048439362418,-87.68169442097687,-108.12200271839376,-137.63214838051402,-157.13814506245131,-144.10182002713665,-99.7542795441663,-45.794433588421484,-1.69614981322118,29.64429990164093,56.24282002259155,80.73604828632836,96.261054324683,99.01422135549129,96.3829036172462,95.97094968962439,95.48644154347012,90.17116289479381,80.74221784408492,69.84802847319187,56.190983314413316,37.90310410945237,17.433245609378137,-2.136941155933548,-22.40320647470014,-44.036144526017615,-64.95658050150361,-83.42191955330831,-101.91263466076542,-125.5340727376925,-149.74652544113374,-156.56476080690948,-131.59268015045697,-82.18011851456626,-28.560921436287714,12.14269136088139,36.044768417498766,55.26326380182727,77.72388243822509,94.7113411136967,96.89655187867957,89.97620546383642,86.37428752257976,87.72277821600753,85.47874391323232,74.94048424314975,60.157154567836685,46.119719498674115,31.441064822728553,13.236883081304361,-7.453814937212263,-29.373052407938285,-51.75491250921224,-72.77329894347639,-93.10671616151363,-116.12176381702487,-139.97736553885687,-147.25977674985188,-122.85375708759419,-78.57925444571666,-34.56876860750589,3.7023457754021774,36.94496622643392,63.89241423225521,81.33348526764954,85.35084323149556,79.56861065750958,75.69860929211791,78.73143711172578,81.74939192101735,77.86774613566426,67.14545652239832,53.112281997666685,39.33089289310912,25.502431985429006,8.850327571339362,-11.3111664768783,-30.877456542875596,-48.48629687610576,-67.39284300713734,-89.14045265711403,-114.49958385141322,-139.35962782736124,-145.52863571643647,-115.93710723999266,-62.25901039348914,-13.16466821166409,18.53004998519904,39.4321874649618,57.623302028506785,72.12110207779665,78.8635139886481,79.37980842614405,78.23178308320406,78.67613593199165,78.28388123935629,71.8914271680934,60.37620208259992,46.31684991034362,29.58360310547252,10.906680272515388,-9.052962528547276,-31.59571590562282,-54.146899767435684,-71.65662400943027,-88.38880194907424,-113.60076313753896,-138.85387011735168,-138.99556950981352,-104.36326547485757,-52.53429346674552,-5.035610247570897,29.601628450531837,53.746988149014356,73.08499256645774,87.3828527846101,92.93795311621889,92.76012894085437,92.44337049188798,90.97584255708392,84.55562833948096,75.40630972457677,67.17251039723067,56.490257741867126,38.32900670170513,14.095206084437196,-10.70382866568391,-31.30035332605884,-49.63843835892211,-71.91924046627724,-97.68049134929376,-124.15645347776793,-152.67682131763172,-171.51116716231647,-156.97642411048196,-109.22560522567737,-54.6702326817532,-11.648945624062375,20.9668649540674,49.694775282013225,75.75483718577546,92.7575087673583,96.74003015092501,94.88748792442045,93.55659127390894,89.45898569496937,79.503333150152,69.31382415412617,62.330220611508416,52.22905186453057,32.70077504995823,7.3250324780714555,-16.13259533986462,-37.37938160149337,-60.395210115566115,-82.82426955854767,-104.57970898560866,-129.4773247956585,-147.40562651218332,-134.9290090747767,-87.89183185779136,-31.283010575606472,15.437342950473658,50.85264642719386,77.60327178357488,97.53532883710444,111.01995880681254,117.17759102437532,114.19506434754258,99.93616286088742,76.55057327082967,51.862490919196944,33.34948903923048,21.56772964357333,10.724765359411307,-5.738284832884037,-28.894502205324173,-50.90026920713255,-66.32158067263988,-81.32256280539889,-105.08077644937941,-135.53058113158446,-153.56140370356445,-138.92862039606882,-94.00570482557235,-40.49008824480428,5.057089952233036,40.5728429304607,68.47746072299272,86.06299932066702,90.60245410581456,87.43062137278162,83.75317790320086,82.02300053052484,82.63164260455271,81.75876358208318,70.47411917658086,48.33819103345539,26.914575861868922,11.648609960563041,-3.691513717780936,-22.92588046763744,-44.527428632377344,-65.36806814672026,-86.13757950143668,-112.72937667636502,-140.1127686345689,-145.82356939582473,-117.76292492930249,-71.00157396508995,-26.093057206743683,8.280651455731316,34.68325003554456,57.113591409149805,73.45086805629093,80.41396043362859,82.01811539385292,83.94105221018957,85.25279535906274,81.31039609808066,71.12080483396028,59.02641616506591,48.17179506552581,37.0230568515222,21.952773293687315,1.2711393634121608,72.0,123.0,86.0
