-19.003696135772135,-111.3412084810738,-149.33463721230714,-125.24657354992131,-67.06219326232483,-12.692469855883767,15.972130521348513,22.68818492053522,24.25990080204739,30.633413104175165,36.29171392247918,33.40978156165108,24.592041956354343,17.984218062475414,16.209581978508783,15.394149559446786,10.363914858939728,-0.7049980409948612,-16.711623735863462,-34.91253475395535,-50.60497930615981,-64.50046906542298,-83.2137292262122,-99.94433098460276,-87.75804458231595,-36.53255896804004,22.481737209015247,54.56418840206165,59.79650947930874,61.22160826532081,70.10477192794629,76.69455776485913,69.43728731476865,53.31224849838845,41.80162282246681,38.21464935561627,37.32891499884886,32.1119789720167,18.05506233879628,-2.364339414479437,-21.075538746003936,-33.72713996386798,-45.41546899664514,-61.81109549374178,-84.54595379376165,-108.61260687047246,-110.30416445486615,-68.46338733109948,-3.3427180517768527,41.549795691919215,51.58884326132089,46.29254207616348,45.9280616221299,52.62955909071683,56.050704939810686,48.525319164580615,36.194754015125575,29.66685812355203,28.05718127683999,23.9137232605835,14.91367795793776,2.1596063169166917,-14.414196353864885,-33.50587853607832,-49.394028032444986,-58.99273074732599,-71.15180235679193,-96.24434996780612,-115.7199146212926,-92.58820800609058,-27.89294237090654,32.74961349164723,57.04682056327289,55.62836600146483,54.99729529362761,63.56626164204341,71.64387934601334,68.22666378113588,54.889707554730585,43.17707123120562,38.68968278832998,35.82683728513977,27.083548701912775,12.0279625055272,-3.4994590496050018,-16.905777581531893,-32.33756920489507,-49.52278365462588,-62.021290920885384,-72.81578774017612,-93.1919176567075,-119.76987894302586,-122.99416401331439,-77.44056285471791,-6.215737115678026,43.36551516743227,56.77186367063409,53.786691004462824,56.67136298001077,69.2555594747163,78.53279589903603,73.74745134705502,59.47096088894325,47.66196222159801,43.46447199160477,43.20146739523439,40.82062961129418,32.04446144565128,14.883325370420755,-5.839480678127784,-22.200896885016135,-36.41285623935095,-54.5621556112865,-72.32170210261353,-83.10943040825684,-95.29343728795186,-118.06988355557796,-130.02400874153076,-94.93837516955121,-21.14663408528124,38.950396672306496,58.59517315808148,57.48304566945319,60.001464521683694,69.69682800300129,75.72451123104085,69.23984783108911,55.635095544561274,46.38795368913211,44.14373472724895,42.6569109493327,36.61519541455203,25.99818836782864,12.857345595041126,-2.947810899033944,-20.895620347672274,-36.62154155798034,-47.57898152624785,-57.45589616927654,-68.91023178317256,-81.41461537484767,-99.35247842939754,-118.82987001189366,-111.11043274804956,-56.27617187780776,16.14073676080478,60.879645822616496,69.10731772757995,64.89863519191839,67.02230336789668,72.0475992305507,70.54251274784572,61.37423712710481,51.185410580836226,46.19312507187724,45.83192076724566,43.925234874997706,34.16602635425255,18.1911544471105,1.8285275845096787,-13.177397524950127,-28.82319947072274,-46.43255376906305,-62.49032777801697,-72.19507833979105,-81.69385930574386,-101.88845639391982,-120.50604580907583,-102.46466974618836,-39.212912456108924,29.272664433297,64.43892605618002,66.88037626205077,60.30237849015161,59.820927296740805,62.30111752023288,57.65031054805696,45.375072163622974,36.84707901599956,36.85677884410899,37.507448543938786,29.62890875020383,12.765539804395816,-5.077369302879742,-19.962741404133126,-34.1040739278145,-47.994923313697754,-58.541277448794766,-64.95806677614694,-74.93000925897249,-97.68561342395826,-115.79502936815439,-91.32953452826035,-22.850001616720927,42.696135352239054,69.81670755447796,67.8108938981954,63.96038792700519,69.96451396417254,75.82455605677774,70.02508452958399,56.90204407394257,48.46735508740802,47.20393027398612,45.92091544398116,38.066295688887855,23.31881011960557,5.9688177079210405,-10.18046679245288,-24.844555795548644,-40.75555231292926,-57.91410629723781,-72.15424744434013,-83.94630090566834,-101.71236578422747,-125.91295009694878,-133.10952020888524,-93.93155250331104,-19.459951840387422,41.888232082199096,63.877316245971954,62.46905512933998,63.6384228184713,73.21104709733427,79.47363158797504,74.49857542022554,63.41928973862404,54.6395129519792,49.021439050870804,42.62087225991965,33.13079876542914,20.13661670860912,4.55130972104307,-11.303607861277793,-25.891720692804622,-40.70305177070296,-57.41214098926295,-72.42708782374085,-84.04823661217398,-99.9219575601579,-121.18194845947485,-122.21992369211509,-75.37111499320518,-0.6093561675810981,52.16241640169709,66.1169439242056,63.59457142769368,66.9863540283278,77.0108510171115,80.9153058297788,72.0,103.0,75.0
-19.85845017116503,-38.71493143873976,-52.68519794049857,-61.55760184194418,-77.1435873891803,-104.18000053663252,-114.52358385021785,-76.58457147897755,-7.764074193017734,43.78240976700213,58.010030688394934,54.52112134741277,56.7447578218459,66.56474875266017,72.07424173678865,64.93893124782424,50.85985572249126,41.21797866520652,38.10038101397964,34.09218490137525,23.183525466367694,7.318039322073981,-7.475343888986795,-20.969514400149677,-37.40631619526568,-53.780566645583654,-64.80943959920177,-77.37999825219613,-101.10530263360333,-124.79308042924454,-114.89334561682105,-57.27152239752477,11.879144156690817,50.458424570676044,56.40439242296825,53.41314715155112,59.700287438384755,72.9762930353074,78.69664690105112,70.05751921840829,55.375858952142984,45.7073408312059,43.268689889578226,42.95485045477133,39.09312455927016,27.91111607025296,8.833682654464152,-11.156602757801009,-26.17245889682086,-41.19752612658704,-60.181316853382064,-76.11585463943504,-85.78099068617563,-100.9971752430992,-124.44491124805737,-125.62479176474555,-75.5771389102717,-0.15557017680742116,48.52631038545212,59.01935670283663,57.27419836739484,62.39592898445283,72.4017847761497,75.18774939980092,65.4869781882156,52.16005352698327,45.20681442023394,43.96630662850721,41.47201496608379,33.916914130413055,22.414017673876458,8.61283556521412,-8.052391363329775,-25.888685577344962,-40.21510739190827,-50.3077939377229,-60.653688488579206,-72.32517603145672,-85.80633957271641,-105.66804559109701,-120.9790948003549,-99.77012814099291,-34.853109830153194,33.19770032472152,66.27224976421472,67.9169616044237,64.66372090723263,68.66992845790348,72.52961040748177,68.48264624976002,58.165538675859295,49.09726389977676,45.80290559055242,45.80066426715122,42.0198184212517,29.91478073637195,13.318843031170534,-2.5939581207009197,-17.519519367585968,-33.75002902246499,-51.52092057973805,-65.96252926383357,-74.35132382132765,-86.31089199036815,-108.84856751114188,-120.43980263666447,-87.74926002746452,-17.670409368753486,43.593782517467574,67.59402091334138,64.8683931862913,59.38637420875246,60.689314384603556,62.02208597505133,54.48361430120648,42.02963347624737,36.15591204492307,37.46887852437967,36.35161341734339,25.396877943571152,7.361305571052106,-9.632033318158427,-24.014107548674836,-38.24630638711667,-51.5270448566847,-60.67598073531244,-66.89761852234922,-80.22396002540249,-105.09847825333404,-114.33624912020275,-74.52992371735067,-1.2450729398887648,54.83378661438075,71.00543828513759,65.88880284276506,64.82417439089897,72.38095053428475,75.48860068402848,66.42086126901036,53.60767761136766,47.58868654508739,47.21543141949632,44.47042517474928,34.367530867963566,18.356950145644287,1.088418318157956,-14.477087492216782,-29.19919117475807,-45.74309143497499,-62.486094250222386,-75.52828228021869,-88.08899669526781,-108.59781490458965,-131.3073365038444,-127.16537295717242,-74.13958269604046,1.6581688857469385,52.20516947062512,64.55417470165462,61.78956618374267,65.89905243823908,75.95594506767296,79.17532188670667,71.48559000734782,60.42965533028284,52.85717857640224,47.40254960939391,40.2407193585952,29.722786263793846,15.817229763087996,-0.11194171976683537,-15.64866361453072,-30.009571179735527,-45.39524227950719,-62.15661554743461,-75.94397184289832,-87.77367763616807,-106.10285233277881,-125.2404775657421,-113.864129071744,-54.40252015283383,18.641117523899318,59.632317701043284,65.76363810207448,63.51033116420209,69.67038677841309,79.34149295762977,79.54293189642597,68.10595226638344,55.21240886694045,48.58493861971748,46.57414196674195,42.77146769535651,33.598096869714446,19.50862717589201,2.9632978410565047,-13.908321289028132,-29.522935685400466,-43.20920512567685,-56.26437455487204,-69.06323730311571,-84.80373353969756,-108.53058099492813,-126.96602218991835,-109.33242228551202,-49.059077389666164,16.72193337856954,52.550089658528705,59.67998205256139,58.08979719407875,59.48044199365371,61.449166513830576,57.89774970503112,49.42969818636928,41.2511207380683,37.081738907387994,35.678143682539414,31.68937443269612,21.308305240115583,5.140934167182025,-13.48891952825269,-31.278972557512112,-46.059945274932254,-56.67808740180056,-65.1121814498211,-79.77817601154825,-102.97397149891121,-112.57661073045529,-79.88837057075219,-13.901505505619692,42.19441330445271,64.41349431241396,65.37436566541226,67.02514654226675,75.00643323177141,79.49546356575082,73.14916996706233,59.548774270547405,47.991617315004426,43.58775661228762,41.27675225250628,33.49598230011067,18.718348716287434,0.9044362501552433,-16.40467447577477,-33.44956030582395,-50.502233845227494,-65.42246238845249,-77.00646020503382,-89.06411632949678,72.0,103.0,75.0
74.45450098802307,73.49261102690369,61.428142716655785,49.3028665703847,44.5473192491372,43.653916270235555,39.82876630058541,30.88563941354215,18.663121625040212,4.109424288633284,-13.283240856691636,-30.55822528604709,-43.40652299773478,-53.09629406446388,-63.971727148986105,-75.83233178961643,-90.8369634848243,-111.80579485910636,-119.90100685212072,-84.38206109276794,-13.208914816297538,47.00966354001197,68.87429721005974,66.45030495143354,65.18251576610884,70.29230751142154,72.28124609920556,65.85581684270572,55.08584684334277,47.54266033537516,45.719550827652775,45.440444379455265,39.348674609974324,25.283320014641006,8.54406893064458,-6.917146642266445,-21.9831516612293,-38.84855625722819,-56.32678392804186,-68.8207246294936,-76.80554053365108,-92.03770810627158,-115.017612647627,-116.36168362530334,-69.59136906860539,2.969425594063049,54.51242329260259,68.43152211014915,62.750178631247,59.14981724465535,61.57848163001533,60.899099744179686,50.84071972073057,39.32919963684221,36.13925043860849,37.858236741948474,34.2995251917804,20.52626008318339,2.1083233352676993,-13.94145427413812,-28.082385453357425,-42.32995952550562,-54.68549373854743,-62.49501275440153,-69.4372883688626,-86.74587380322615,-111.2880870505175,-108.38813943850649,-54.65497024393326,18.679743294474143,63.3308201685723,70.38625454512075,64.467782701325,66.53989482006753,74.37934210315818,74.00540843608435,62.49165731430815,50.977772968628585,47.227220783113054,47.002510887232134,42.358580762184424,30.153836218372653,13.30422888927354,-3.6234340461545997,-18.683803103984697,-33.74412747278846,-50.76996482203661,-66.69410853558563,-78.80619355240758,-92.99485670463103,-115.85489477497636,-134.44160709122264,-116.74984280557564,-52.272644314905286,20.373532559720662,59.07115469587452,63.99381702946317,61.864841698615436,68.73983301840175,78.05360609008896,77.87856167127597,68.20099188535372,57.800397893098776,51.26190039421015,45.62267887209825,37.57100514184784,26.0246776072176,11.31713732382481,-4.730207285416331,-19.8701485282844,-34.2235418810961,-50.25038435710586,-66.61168958887055,-79.22084008770602,-92.13657348144157,-112.5739744215754,-126.67455063697608,-101.06205604690324,-32.217292987272046,34.85910384921135,63.98768539942748,64.80446303927226,64.28870314139883,72.70424547882361,80.79539154067005,77.09996441027839,64.02775344171229,52.55508728824362,47.79836604640312,45.91321454757117,40.7093704089258,29.94402441406631,14.862281610888347,-1.9450300918097685,-18.619956750917478,-33.6372556110072,-46.9943892499162,-59.98311329328763,-72.98065667004066,-90.90793011615933,-115.67242480528243,-126.76274623164299,-95.27857430775985,-28.492924555679846,30.791330333383918,56.732625660229,59.30393277425833,58.075555452069594,60.315797113621905,61.122017815220296,55.74840144999871,46.808069568072746,39.575539331577716,36.59273237113488,35.03685886144891,29.40110919540351,17.10864338509708,-0.15241752169010753,-18.833247829289927,-35.926725089289626,-49.57484305010443,-59.07428019583942,-68.277261863178,-86.0733185108999,-108.67777298964099,-108.08778877046393,-62.55679173689445,5.152596503231733,52.08186822193496,65.7767623499724,65.11762571304183,68.96005881642351,77.18293096698815,78.80614926529418,69.59002324323127,55.59697859382059,46.03423112505278,43.09775238466574,39.80274221332058,29.827672020569786,13.668318977561778,-4.205439627638259,-21.290390900721416,-38.44522619421389,-55.13679274033277,-69.07530745073052,-80.09518638969759,-93.82851435358315,-115.91390597636536,-132.5162294353179,-112.14490057667284,-48.36485152562429,19.151606845223174,51.87697190757045,55.924651939405294,59.09458509147526,71.07697719810999,82.5690066906486,83.74293631947283,74.80565054296777,63.35415543422357,53.61873346723189,44.527750804875936,36.244812993507736,29.017178108772836,18.722174250524926,1.3388716374089369,-20.68782047360774,-41.280318191782534,-57.5318706492375,-69.63263042942377,-79.30141233414497,-93.34097290032993,-116.46908828843982,-130.4444299202449,-102.39782953903588,-33.23196687410872,31.58404267195649,58.95534095737903,59.945171294704565,62.12618746509049,73.33544120088204,81.06036113765212,77.94430300983929,68.96186867836529,60.06431204915738,53.675028654005,48.83825263984555,42.49131149517074,32.12202290864114,18.340750564842228,2.0149440565552954,-17.284442411761354,-36.292316971807544,-52.097428768776666,-64.34105117049702,-72.46069545830979,-84.6517329082025,-108.97893344781893,-124.06050484550724,-93.36458234747272,-22.08245317947805,39.164111026522185,58.0781820109789,51.082902808458826,48.31058902605302,57.17739364004337,63.314828399589416,55.826450211310416,42.09887996757861,72.0,103.0,75.0
-57.42337502345967,-64.16826860310208,-72.92482921561758,-94.14887386892296,-115.12196487541512,-97.74849387123568,-33.01774942544459,35.881809566746796,68.453208785745,68.72542971877397,63.89321097392221,68.82349846484011,75.59941737500237,71.48004010752868,58.595974881426734,49.09121011997035,47.18090137929928,46.3834901693093,39.57095755530981,25.54305758498909,8.264444494684113,-8.151543557519402,-22.88431207212822,-38.4995627922475,-55.70603423432882,-70.51280002065857,-82.23683459844804,-98.76749078126873,-122.92135320025396,-134.40934000452808,-102.01953627346107,-29.708780519619143,35.91372039466464,62.93353458039945,62.940073902484976,62.86564738626274,71.8173825567802,79.2589236000166,75.723966787243,64.89310474879487,55.555739773338814,49.733939406096674,43.625870147595776,34.60151768170247,22.052978464012,6.700016572544666,-9.25659813770739,-24.00124499559171,-38.6100057170189,-55.16475409271462,-70.68509773151689,-82.47791049452104,-97.2840829696921,-118.70143989247481,-124.57498133202336,-84.24437824685165,-10.268174509392509,47.543059357726435,65.87204361723778,63.87514120872336,65.95263287346292,75.72659327734064,81.15138828279885,73.81171046671453,60.1334113591476,50.524532653489786,47.26710442992266,44.940175268466234,38.162509653810325,25.91853680304231,10.081843874344564,-6.843849244149931,-23.182402562449422,-37.5988341976067,-50.7693821441831,-63.65846478644239,-77.30971463050558,-97.76043573159704,-121.76879884504483,-122.72465095071531,-77.98660792176246,-8.707680046562338,41.802064051432154,58.914829341881784,58.710368940646525,58.439659260062655,61.025544935091915,60.21692151051427,53.28760479135037,44.34697523076235,38.29499642391987,36.24349805946733,34.03017330939178,26.526838551622767,12.482948875061913,-5.5589497231218274,-24.037119865525653,-40.282664386201624,-52.71584995877665,-61.39077747164296,-72.2422056677042,-92.97062643777464,-112.42330187540537,-99.48890348406864,-43.21385653457055,22.213407684200536,58.967697100577396,65.95799207751303,65.38393838502333,71.34007542335587,78.74688095251234,77.13932632401665,65.60808494335643,52.06637727658577,44.7040561777369,42.56656138662976,37.71982031624984,25.615200951140423,8.49047277929333,-9.218004681405517,-26.198922728080667,-43.41614165083312,-59.52838103706502,-72.44108386852129,-83.39032778390408,-99.43265561728185,-122.58425436055673,-131.63305520611416,-97.10788365203474,-26.92410687458071,32.811995740364196,54.72559083630517,55.98919322209065,61.8630267362938,75.01485220974493,84.17641202339271,81.91958631315238,71.41993691130239,60.37580785952786,50.97313900214449,41.98720793807252,34.14462337560133,26.615284434782286,14.459555536054788,-4.817909032523977,-27.007433798715574,-46.43647153680413,-61.42853380044906,-72.49747284809577,-82.48411999502932,-99.3230350161576,-122.96125296237334,-127.69073845698844,-85.12189416243989,-11.80570030587359,43.60822872317439,60.6553549961821,59.54878881280303,64.80902346151166,76.54172187914911,81.19971095165305,75.62218262875705,66.21163066396794,57.94228074839758,52.23121295222929,47.31180227205982,39.94307799676631,28.407642298662978,13.919505991268348,-3.309534818468305,-23.022361078420477,-41.194503884908144,-56.06530876287482,-66.99355567975142,-74.93705244932029,-90.6560826907041,-116.08375293066267,-120.87190298741318,-75.11722972121039,-1.0093671503678832,49.04485412036644,57.19966270851108,48.95665585419782,50.07276688350105,60.01654789582816,62.553765795162626,51.82939826998262,39.09211091422357,35.674850817145185,38.37413068945101,34.813179216870815,20.570351200729792,2.3999238495013713,-15.87156805222246,-34.670720176060506,-50.43360665924368,-59.57138425299992,-66.49759521398121,-82.47452259141382,-107.89491092937175,-116.15506481827137,-77.9760680871891,-8.375313006385056,45.97936048960696,65.19594511443114,67.21635621353337,72.2006709811396,80.16635703543747,81.41485934826906,72.16090324813061,59.481253254892124,53.41533723757139,52.92890369036214,48.89941483825045,36.39569893207018,18.433118746523412,-0.2818871184671086,-19.63788665369168,-40.11489336748119,-57.24027123407268,-68.80980276785293,-79.68332684058626,-97.32776822060005,-123.55954649467355,-139.9418288104095,-114.57502392672234,-45.71016465403724,23.502324015675992,55.54208015493611,57.16180269834509,59.12772900632573,72.28655494823198,81.22560824302332,75.542344498547,64.1388851906057,58.00443301948988,56.82121556371608,53.877710242745415,45.30086933178892,33.65575958994966,19.579955431898416,0.950763110173117,-19.4984143164503,-38.74926698366398,-56.65485826821331,-69.72315611298204,-77.01920521729772,-88.91283882904932,-113.64763672985744,-132.5912305303471,72.0,103.0,75.0
80.31849158019041,69.9732316890144,56.64232697738778,49.08003737176896,46.809713150554764,43.5607189914273,35.1423874565864,21.587910786384313,5.220293040554752,-11.697276818645014,-27.565642611844204,-41.453868508963744,-54.53578269251814,-67.33638750371453,-82.26362400077778,-105.1037439254297,-125.93943522102569,-114.51735802061422,-58.47256303207307,9.265276232990184,49.80159032665704,59.66365787924314,58.220942737501076,59.10836843546178,61.41875381036555,58.74700898274897,50.6587232049359,42.151159744466206,37.38959801237876,35.88737806411296,32.55138963472615,23.07960127356893,7.518412309567674,-10.99445120566208,-29.047200421679943,-44.31650087995178,-55.499373473019205,-63.853555009425136,-77.17148355426757,-99.93638568590013,-113.32773740856402,-86.90027446351942,-23.092445397317224,36.58575479614862,63.20714534889807,65.58199790798724,66.34297331667484,73.87550155484624,79.47795198529047,74.5850351162598,61.45215375327742,49.12349458170336,43.863541059792276,41.77823965621926,34.97993076942283,20.970632408093056,3.2885110785831326,-14.148474801979606,-31.1520333128903,-48.299248705208065,-63.63360256098749,-75.59214462653895,-87.12853336995165,-105.81256140345157,-128.17165761299114,-126.82577247672243,-78.78055325299553,-6.512564631655062,42.958276285400785,55.81361715229078,56.62728695889725,65.3301675398783,78.58369087273894,84.75210962358727,79.37223275061574,68.04039178445915,57.55836655866901,48.3395900822415,39.551517027180644,32.109256725225706,23.80846789659703,9.548838506978148,-11.22721718528148,-33.06117044003412,-51.21150483613129,-64.98973018443634,-75.22212748047836,-86.2767598798046,-106.08064565414533,-127.92994877684036,-120.63126558340188,-65.0166256208722,7.88206213700836,52.12467882623103,60.82198916396597,59.882176186709096,68.13416626445785,79.05747139644677,80.41571748448877,73.0041519957965,63.576835648179056,56.056916990167,50.86347855523817,45.57191069856329,37.019641732990266,24.459075223244604,9.2772689058475,-8.88474596370649,-28.602345645568928,-45.81512213375271,-59.712627627163,-69.29904832638073,-78.10499486485705,-97.74329321245196,-121.49144434378755,-113.04568024073222,-54.2611684672228,17.766603979881296,55.09693002758885,54.97799322081455,47.811732996097206,52.69095925778715,62.14799791759585,60.551693429967536,47.66772576718684,36.97674610338057,36.34059583194041,38.46624721487215,31.604626297342495,15.392360295705082,-2.8373363606228694,-21.30934582764339,-39.77996159869517,-53.756756555989774,-61.34340553980739,-69.74429290706881,-89.50673046728431,-113.74912385267929,-110.31507956377712,-59.11530621898875,10.675253229213572,54.81777846894342,66.36561984309118,67.95822701940872,74.62282429913576,81.56951616998006,79.71574536599148,68.31005138080678,56.827440230916366,53.066576473393795,52.50685993035038,46.14730120256312,31.513709491103494,12.992580093956958,-5.706681078504086,-25.56579680680883,-45.63658069400558,-61.052964573069566,-71.69282707667708,-83.78658506076117,-104.343960609919,-130.7437904339816,-137.96949431296613,-97.82344765868713,-23.432343517119804,37.16094050645242,57.819484676124425,56.55295440734481,62.18286138266702,76.13730955311968,80.98360777366281,72.18778867835616,61.61953932173698,57.41376686731621,56.450993993293,51.94888637573699,42.101553193557,29.96283975138541,14.656202019309253,-4.987851332240698,-25.190344235347137,-44.126071232191634,-61.14637906034422,-72.16766765460603,-79.34769698328252,-94.90282902048858,-121.36422419790914,-131.3772509929124,-92.39651876817197,-17.76908172381709,41.97870036202282,61.469257191651415,61.37404858189157,67.1004013542476,78.22586096131548,81.86847485091349,73.83053176462977,61.261755104573304,52.602926720073945,48.721508341688164,44.15375979887143,34.868172066559644,21.540394731430382,7.384745324759856,-6.268749665911372,-20.555003929364286,-36.14775748962805,-52.95214323621594,-68.47541825003557,-78.674539186585,-88.12823212694711,-108.78256215040352,-133.04536269167266,-123.58571100147876,-61.38846740460332,15.1145892132181,56.68087919914051,61.96319565891738,61.0673349279034,69.15811310361295,78.27798187795838,78.55553779389444,70.60899073304228,60.428943080822734,53.43711156092198,51.20311369230105,47.706116303795774,37.926735492899844,24.42170288815654,9.211779031107165,-7.782379904697622,-25.314023970684072,-41.69345745581263,-57.071259734327676,-70.18745307493363,-83.88350618038815,-103.99956004293344,-118.31804759138586,-98.57104482863042,-39.92661682885915,22.916430968838174,56.69469960707607,61.904276622121465,59.118157481692045,62.09980922118088,66.13088737066771,60.74891151240091,49.253814515281285,42.04614370625324,40.20549680598314,72.0,103.0,75.0
-91.53030932673595,-112.6981584591234,-131.7752997398897,-117.75702403362374,-58.23257659410414,11.722560330308733,49.749024948421216,55.96235212982329,58.10594321682701,69.22524128407194,81.50357417790013,84.28845730868059,76.31959540655704,64.79085957673006,54.84776731804095,45.722198328934105,37.25452858126122,30.029315526725842,20.468088716741562,4.046284028566128,-17.715543028056306,-38.77323119216599,-55.619249782187424,-68.2337899948413,-77.96892530018835,-90.89625803071249,-113.21792010216795,-130.40243365304832,-109.12587361297422,-43.35555074191162,24.85550140673582,57.436454417293035,60.25232600441593,61.186766289543336,71.7153480199343,80.65935303919595,78.86464075598136,70.24582066597249,61.12248612561155,54.38531977726435,49.49377963453142,43.54175114105612,33.741338820807826,20.313898029271535,4.372901024610387,-14.620486740309879,-33.93250299118087,-50.17444622635103,-62.97748112441153,-71.44523417618814,-82.30497164449946,-105.43490689329741,-124.08902130828653,-100.56612617816499,-32.22220682396724,33.27936312069065,57.7804164750001,52.2785156128436,47.870191552910306,55.750560703761465,63.22998790528287,57.5022075615114,43.736441726241765,35.817486486709335,37.27287950471099,37.71283601400336,27.552946134149103,10.107061927189225,-8.084822129918486,-26.79149554174818,-44.49426498471646,-56.479281571649956,-63.143935924118196,-74.05787726800337,-97.12539029205732,-117.22614498424834,-100.08571042256223,-38.587044650093006,27.272153304899415,60.722563519796225,66.78146632064916,69.28077399011453,77.0846719253744,82.17971100957388,77.1369820740195,64.46429296290044,54.91898977243144,53.01440981989673,51.5482165907641,42.6521051801546,26.314758492434446,7.581145901132563,-11.246532084540247,-31.55084823848399,-50.729025784541804,-64.41946682044656,-74.69205960572897,-88.64559226120632,-112.02426044420373,-136.3853330044978,-131.72129071008706,-77.92985008699218,-2.4919744606277416,47.14886016825793,58.19153897331063,56.74894489536355,66.07659367823858,79.11109946579364,79.47224779056377,68.72822293378462,59.71772592652564,57.115289259430774,55.74856149906403,49.52681403259213,38.756063406241374,26.009498929736147,9.318880866066944,-10.947098996357651,-30.762214233231862,-49.38681253702337,-65.0903532813209,-74.20165871682758,-82.43071020488048,-102.04084063624433,-127.78053065085712,-125.71122501668506,-72.47165019625501,3.1169700058878913,51.488532416907844,61.96593521806385,61.94747304149784,70.3264229021691,80.50208092311713,80.57700532742524,70.2152041505385,58.13749334424371,51.179744184368246,47.73311483470819,42.01268444835537,31.299659041562727,17.41068485465286,3.417592101288027,-10.277895267581405,-24.919599125592818,-40.911332373820706,-57.78363344098507,-72.02374930878237,-80.93943081488001,-92.62484904175648,-116.70664587559068,-135.57187148135006,-110.35055240025522,-38.066576272432094,31.85409641409425,60.73195400037103,61.120198983082076,62.545450595401825,72.27929391878845,79.43796215035485,76.861033566676,67.63069258525468,57.88822922359539,52.436535093246086,50.69457085565672,45.50700232890875,34.244500846786686,20.201122959331084,4.472870446746006,-12.896934362341833,-30.176250904819,-46.25236631112458,-61.14739311674139,-73.7243470609101,-89.07159362804784,-109.92576439159006,-117.15905390060674,-84.64025436982817,-20.23557667659178,36.30445029796402,60.34775993536062,60.99878711875839,59.256093751429844,63.73020040240518,65.72443000539019,57.54837945484398,46.43946302230586,41.196993423412,39.84203898104994,36.79539490208322,27.783691720492424,10.250304161711167,-10.318493648886637,-28.237706705135068,-44.49308184540005,-58.872711957984485,-71.26644011600087,-88.71102034068177,-113.04883534654567,-121.0543956274629,-83.5410241597659,-13.924591224994376,40.335971101662494,56.0502175120388,51.43970304104873,53.38348355843774,65.05086608793583,70.57937509070652,61.9128865020216,48.19267751479401,39.88477440485046,37.19836412727154,33.489585615740516,23.02584091115477,5.44319708941549,-14.77860176860215,-32.80723073880406,-46.02056527588901,-55.83145720655357,-70.70996932403267,-96.98226813224578,-120.28849251363957,-108.19143268294748,-51.94013230507879,11.71820801618857,47.11607692250672,56.387164817539684,59.28177631826615,66.14316453126169,73.97532959718338,75.78594394511425,69.52783828112054,60.03832118874248,54.05754993216317,53.247748876553345,50.79319663896428,39.72308026186305,20.962122731089707,0.872700200972048,-15.879795189414976,-29.64637204435368,-43.73812962500004,-61.05748333174339,-78.68849743796267,-93.37270597236785,-111.51923812377777,-134.3030885951069,-136.966519875083,-92.97590142817285,-21.502085208454478,31.335673922767604,72.0,103.0,75.0
40.37642712707293,35.547513365362676,38.11485002695869,35.96501916652452,22.873385012855795,4.8234980176633755,-13.393755871914657,-32.221170515564125,-48.69409579223842,-58.68541317133259,-65.29542792123104,-79.55394812201546,-104.67221663863147,-117.39731758093193,-85.76567238553147,-17.734402201987958,40.82597919846528,64.21707865273544,67.0303573560262,71.17405986025858,79.30082437724514,81.87760010662797,73.84833908132515,60.93223692306537,53.74162859076085,52.997255065938006,49.90846680426191,38.49850179603007,20.93857366311145,2.1999063241307435,-16.950474366046077,-37.459240827129086,-55.30935156397163,-67.46745200624477,-78.00051664578884,-94.37867564444741,-119.96869160081906,-139.55864361980952,-120.98797104164058,-56.07470958204438,16.0167046008499,53.61963167170902,57.554255681488115,58.09404886593208,70.34237340005791,80.87259879081108,76.95009329088982,65.48880421996313,58.42109193416565,56.92503412606039,54.58793887648434,46.70447672358166,35.295698405583245,21.703595991700404,3.6462442903442853,-16.82863135526886,-36.245052827360155,-54.43540715852375,-68.40700902109796,-76.09747982027568,-86.58178233366822,-109.93180223841827,-131.81848401652988,-115.35421261040831,-50.518471456313534,21.412429110727594,57.54274902917644,61.681023274105435,63.4223779707473,73.72789342949224,81.84050895431503,78.35072896809402,66.47216035638466,55.506925666404406,50.078530579295325,46.5281380338347,39.422460634439524,27.45634051848,13.295124226444864,-0.5117866658574857,-14.376829953857795,-29.397011809368998,-45.7740168961078,-62.40079296098208,-75.03979808065105,-83.39783802379472,-98.36277556769708,-124.39726803168732,-134.146925916005,-92.75494463057733,-15.04154516666106,44.75343021780491,62.30104095187354,60.55436469458551,64.84746797839426,75.14322244550445,79.70555615469573,74.59880659101023,64.6172221712751,55.738448673539935,51.80739652233699,49.85575662052701,42.74997972756585,30.359332280044786,15.846076238650898,-0.41965403704250437,-17.99970846066007,-34.920768546522034,-50.741807960039765,-64.96756986517279,-77.49097567045405,-94.89609722468761,-114.79614170392422,-112.41466790677005,-67.79090455244943,-1.3369014613805024,46.72405242379941,61.97529707676728,59.98885631655248,60.04862040003091,65.1454197080662,64.33802449377534,54.0968209486723,44.20945493182928,40.688332376427,39.319990431581964,35.011796560310664,23.511674070723796,4.238364397318005,-15.806370799457154,-33.02820656834446,-48.93922036867683,-62.48189964813647,-75.38205917257756,-95.52645696861015,-118.6516059072518,-115.40550086951926,-64.76783534393155,5.228100782551828,48.64829485578472,55.39853563996784,50.617075948571454,56.3169357467468,67.99380941192919,69.3745419241803,57.85614931611825,45.024618300675314,38.762385690643306,36.56261206377863,31.290514186170306,18.543447593235054,-0.37958972166608396,-20.36912419217431,-37.174067238089286,-48.95599965378255,-59.12844734545637,-77.23787358813158,-105.35091381729833,-121.71271736690613,-95.53088560204836,-32.139207824783085,25.448354372161408,51.632861108325905,57.11584762988362,60.80436641286598,68.6293452318469,75.35726041442913,74.69220179910722,66.8033062049087,57.71337697125122,53.46166701180089,53.121579611393905,48.60321105852836,34.85524284008972,14.997330640641655,-4.379539218609721,-20.054494762428668,-33.4988627541289,-48.406042896513185,-66.38456098388752,-83.13450083985362,-97.847647776904,-118.19558483535954,-138.7671833967996,-129.27599395982742,-73.05969651285841,-2.700464931562438,39.54195377346337,48.90505090863478,50.299262633649604,62.661663723359815,82.17691892803805,91.74123472684214,81.73276920961432,63.2298284321439,53.524682263872386,53.86864152624569,52.12258558118428,43.346489733572106,32.138525598617655,19.08051115934943,1.915831772998199,-15.851160334264822,-32.05203006107671,-48.386425270176815,-64.10339691018231,-76.93540050590859,-87.82193174947162,-103.90373175434192,-126.04465638153962,-130.2314767971118,-88.0573802989054,-14.79727831835295,42.364743542707494,62.33461174971249,62.11700361022202,64.0289260578624,71.94517640575236,77.2910448699815,74.84344631409863,67.26255983321211,61.14210668362418,59.57319638522305,57.31761337456036,48.41638886278825,35.11087490601378,20.704723244830035,4.710505643759958,-10.89134886741987,-24.080399637489375,-37.63952075619172,-53.05207139224758,-68.25935345005882,-81.50731959451113,-94.25826774175867,-112.26071454784721,-130.9389258874929,-123.57668965456654,-69.88744891520963,3.390846020127799,49.66955230768553,60.55033965175651,61.55588629206417,68.59669741713165,76.00764109301795,75.17206273579666,67.53288286881474,60.286470492886934,55.911745572145314,51.039199503323744,72.0,103.0,75.0
-132.4591579422176,-100.54408946711358,-27.966839571342575,36.34156432521573,60.73929258178215,61.36687675598433,65.77320256828398,76.9225361306098,82.11173373638321,75.3833229897029,62.840992708442705,53.403663295141165,49.14296346528224,44.994190099182156,36.39741032967165,23.431517954344834,9.234226914085955,-4.44340813894093,-18.580213353163003,-33.99031807707667,-50.689761489990794,-66.66363037412368,-77.59972494547226,-86.43258537746941,-105.28102800251978,-130.82419019721962,-128.0569509518315,-71.8059453172821,6.231982310313894,53.75589055629414,62.27229584637582,60.698421120909636,67.72624099621484,77.45770409885911,79.10293275437552,71.93125437703627,61.70317190596489,54.051736274273345,51.38578345095151,48.51835586877016,39.5325274205736,26.32503411834874,11.341977073151867,-5.438370195572678,-23.030787518508955,-39.572280433029526,-55.11428737822193,-68.56858129156427,-81.72352073241073,-101.11638747859296,-117.7936219039355,-103.81775048950416,-48.96573896943326,15.809036321771618,54.186985173719535,62.15012606153494,59.27213852741203,61.37431600342162,66.00223450602275,62.051962220833474,50.712711851488955,42.596803162418034,40.34902927253476,38.550116055326114,32.6131140062495,18.516794776747997,-1.8020077251095745,-21.011995912132672,-37.74610736588244,-53.16834958822769,-65.9717707624834,-80.1806858701379,-102.80158464971599,-122.02175876630238,-105.39444922401496,-44.24573956301856,21.87017097721595,53.63987275843945,53.820745466324986,50.87964976227691,59.83447193692221,69.96092410232228,66.98236909661249,53.731113844341124,42.48076762019875,38.010067299860715,35.64757050545374,28.427975263722995,13.516223169913049,-6.279337170012407,-25.681587292090875,-41.089379238995,-51.700605927083416,-63.1305463509263,-84.78113402307622,-112.83883369741554,-119.30934335020324,-79.44846637000947,-12.988727481039481,36.27902269197127,54.382642406932014,57.801602427806856,62.747215263554324,71.02973919946264,76.07171225008221,72.95458083095674,63.97612016074321,55.84194044013454,53.25180407657029,52.61929304040524,45.5813605879017,29.453387013520405,9.100420981238955,-9.289221520617557,-24.02925629013565,-37.48158732976265,-53.38593529577635,-71.58699292277834,-87.3200606419542,-102.8842476428381,-125.10641580667043,-140.64353574138653,-117.27168572383333,-51.90464063684587,13.455987228412933,44.78733633598392,48.89917265115149,52.49593519381916,68.22413568199514,86.72833063430228,90.74779267556171,76.3772236794772,59.052794661578915,53.051619911801176,54.07463311653795,50.167899220249,40.17160213750135,28.716343821971154,14.493987136892786,-3.376578669679048,-20.621296781637927,-36.725664587959955,-53.0941368251153,-68.17912132218423,-80.05958296226383,-91.572290506214,-110.21031438697709,-130.72486369361633,-123.22969614306197,-68.08002203603706,5.181182731249898,51.707277095808294,63.14252344107494,61.87490255972493,66.00368050098331,74.13918029470697,77.3989262917987,72.91023813061467,65.067959083897,60.30297908424986,59.36754624178515,55.481477705296754,44.790167414430904,31.056891449967775,16.244946307777546,-0.008238623856528723,-14.895698814894143,-27.801443616190408,-41.962933961887,-57.572228583060706,-72.32006426861753,-85.02408473322394,-98.72545141262735,-118.40111428884131,-132.96964093752146,-112.64865258459254,-48.43778426015847,20.912630647246612,55.576577368464136,60.67188094850464,62.93144760326561,71.20693437440758,76.76162703077914,73.3570260670528,65.13053793271003,58.83107693062981,54.69508057620674,49.34685575599679,43.95287509641959,38.95552478394515,29.32601611583047,12.804357690867539,-6.084101661301219,-22.599033623371703,-35.7064904622164,-47.234854654345355,-60.59520183957834,-74.1697772104713,-84.9493962378471,-98.99392933781195,-114.96366233628203,-104.91698677792859,-49.48631480252614,21.03200845840039,60.47569490591116,64.4806597840588,61.21749929282683,65.32378153529484,69.2554167385863,63.12699622594571,49.240698846366584,39.67485303760306,39.96754873884214,44.17197705427689,44.30443963956931,35.42745073389912,17.522880318686756,-3.3250210011658,-21.29738005244354,-35.66413279299423,-48.01157879466291,-58.27269855295506,-68.84246633509996,-86.12155953482794,-107.6936280269894,-111.37013461931585,-74.68966971653087,-12.185062436862705,38.03415208153225,58.55448769023671,59.18678426431245,56.54763880562756,58.80099604984566,60.7154550426682,54.248666442054066,42.04391448825937,33.33237837715733,30.95879931183434,29.37233976686996,21.803990571778993,6.640822885656468,-11.537700733655912,-28.375060909338362,-42.77648635762758,-55.12291344609789,-68.58087684206112,-88.06389156757697,-109.61880954540784,-109.43141785016272,-66.15737558232541,72.0,103.0,75.0
40.023307510844816,37.445145181669204,29.48836470895851,12.951170694097943,-7.689304062716509,-25.994314021183225,-42.388937425895115,-57.13418269068844,-69.5331982002336,-85.81991845801876,-109.97927992805236,-122.23526569398767,-91.26391134918276,-23.32900003614324,35.31491645526435,55.81020686873332,52.09729077389328,52.33549369969,63.47050152737223,70.69193688268568,63.66329887524194,49.84144015167013,40.56895321342601,37.4476214315392,34.29541004607506,24.88389863458238,8.062768825476432,-12.128833304540896,-30.649130184730215,-44.55832040023238,-54.472059078970226,-68.07196892014865,-93.05418342215464,-118.5295067034743,-112.68293601555642,-60.948039487600376,4.462841239892289,44.2902116258602,55.929157234305784,58.72691954793861,65.02162588683017,73.14659847770692,76.04887540755072,70.6994019773296,61.22913368360175,54.49701029288515,53.24478598698099,51.53407252786715,41.745647850307044,23.690321637634817,3.4043690950329726,-13.869139876493417,-27.88402421618892,-41.69573646704925,-58.60483666755099,-76.52485875874574,-91.43166917905815,-108.63018153055691,-131.6395866133841,-139.05446191140584,-101.38368500742602,-30.839024099776037,26.45895415142408,47.621936095896,48.97162996784754,55.86222784886933,74.07660949723491,89.97294455256026,88.06487409140607,70.7857827413048,55.97182503969154,53.222975528293404,53.769902838595726,47.66105930970145,36.93739947079788,25.05812079999583,9.548046738782785,-8.573024933548263,-25.283967701394285,-41.448424241387556,-57.698758225880695,-71.95565569417829,-83.10289296941345,-95.99601572866518,-116.88582985026841,-133.0172151197841,-111.84277939639612,-46.47852761295134,22.625886419887383,57.90012654856379,62.94007364796168,62.23718368969209,68.35796617988132,75.87433927472782,76.81002818012865,70.68058002766323,63.17071970893963,59.847184135033366,58.89088971210802,53.00897518979146,40.93569466755786,26.93598921994882,11.627483189138182,-4.593211922352076,-18.6975507939062,-31.659474309677947,-46.42344401525968,-62.01239211784044,-76.18405541221199,-88.58681630771017,-103.80825617252817,-124.28205384679512,-131.95388533925367,-97.65727470467277,-26.55667114731241,35.168831720819675,58.86609923331184,60.719534285406645,64.93664865535138,73.55961759698945,76.68571980766372,71.12170973728973,62.94337564514742,57.587710567954495,53.32854676841617,47.656962671772845,42.62997362859403,36.88600047605244,25.159722757841028,7.310133892970729,-11.201660261072643,-26.716627219039335,-39.03300072376511,-50.83366606420416,-64.73043456984338,-77.47902726511525,-88.29643137658726,-104.19514223033337,-116.30321612438982,-93.19989929511743,-28.29363626572434,36.85579860273671,64.20615736789397,63.101025975110524,61.70908010404198,67.04645814561684,68.70624259850445,59.4424452083273,45.52945967684201,38.85723242426278,41.179052172883914,44.90337588657747,42.7998993423213,30.988770735768743,11.478779271736967,-8.954391903647583,-25.732471927866754,-39.41456641458069,-51.196424544761,-61.02641997570221,-72.93220259360099,-92.51745241714247,-111.95622960024414,-105.15026258688779,-57.61210317630092,5.002210055887462,46.936317950366366,60.00186883926813,58.15356657014891,56.69640676077664,59.85144239062678,59.83918551043642,50.90403562619926,38.84477407462443,32.13069718013401,30.763793462831117,28.00926724000643,18.08101894040958,1.4378152692275457,-16.631577550928647,-32.795402289306935,-46.48683937957203,-58.66566827170264,-73.45560697724446,-94.75288640921582,-113.21115593494234,-101.38208908740418,-47.519890479547996,16.139648541597587,52.799701967359994,61.97881771260756,65.675397335845,74.51825544177211,81.91523223192847,80.76709361934448,69.40581291640068,53.27327205615153,43.565267517262455,41.296722453260216,37.72012655167966,28.161161505911185,13.192681001765497,-4.045564282050826,-20.919346198082444,-37.19852010322072,-54.65303739921685,-70.95571052354772,-81.38107709761202,-91.6158311144102,-112.14477576784218,-134.6990508724641,-125.64773133206761,-66.63282573036217,8.113994080201453,52.047084330805305,59.5963402095616,58.11454159452717,67.86927443266374,81.35156739141794,82.73832404235894,72.58931321559054,62.28136800802295,57.789196755808,56.62160646967146,52.78706627046433,42.892509614622504,27.690048355632104,10.465618536835386,-5.9831877039497785,-21.547387409507362,-36.59914880503629,-52.24982559118621,-68.62946309332655,-81.96616169907493,-92.55542593043229,-109.61296617940792,-132.06147316849317,-130.33586491064997,-80.02737531236284,-6.089058742027502,45.72157082452749,62.75599711360984,64.90418239873053,70.72947915651021,80.406009369894,84.87382702386228,81.00967292524345,71.85635305828498,63.350592385713895,59.61086045917647,72.0,103.0,75.0
36.15158399409421,48.749592804793174,49.663981137853746,60.30882448461692,79.75363775678025,91.59288603538273,83.97740247651133,65.46659601373563,54.04712054264406,53.67170303637015,52.803288742857525,44.7654911542474,33.66843237530067,21.058473617707392,4.353900361630424,-13.597721810677886,-29.912543389794287,-46.19863764298151,-62.13377391821975,-75.42732507469489,-86.26218962957226,-101.2223325311785,-123.34963055478063,-132.0120937217489,-96.37199514414829,-24.60643336827716,36.91850778041436,61.43042300166934,62.36192819654078,63.30702497549243,70.83487957422226,77.0015344333807,75.58960014377972,68.3335046719034,61.678491699867024,59.63835651876339,57.94835494745836,49.97246418402046,36.96351254180792,22.70482920986898,6.902093755977742,-8.961999987716146,-22.387019883625932,-35.706568239319374,-50.95644923342753,-66.3250020144942,-79.86173592038658,-92.37837678974955,-109.4880926143551,-129.21239288185905,-127.17725580294058,-79.24904311077151,-5.611118027034249,45.89125913407207,60.296207141524945,61.15175943231807,67.3884705658101,75.39333101219526,75.81351817845174,68.67532957730836,61.052594553447264,56.44154459728105,51.79377078955793,46.055447727633535,41.283328016163026,34.27346953442919,20.436313890605167,1.7826068410719715,-16.04731987955883,-30.54824294651035,-42.308372794079865,-54.663825463332444,-68.75598555237471,-80.53737757448026,-92.18195513421284,-109.2946381929738,-114.51925110975333,-77.59725488014932,-7.1126528210130004,49.134590357661104,65.43546008430177,61.88679076231558,62.88222049664099,68.43163117820517,67.14204418160591,55.3216350420187,42.51057222160836,38.85722010434599,42.494634349391255,45.13012548039418,40.4434639458406,25.87032364290045,5.374318657002765,-14.234826262762915,-29.90972166526758,-43.02359483445574,-54.1836246769845,-63.928271481751686,-77.75667199070173,-99.05515859114115,-113.96308853950124,-95.1979661598156,-39.209286799150455,20.235327572983053,53.27913416882075,60.206454923771176,57.22958537042572,57.326461865570494,60.618287366817135,58.12383266533018,47.279748930263644,36.16104468483061,31.423439347967523,30.44304828492008,26.00282597700822,13.7587230629242,-3.8627357382118026,-21.54733603173983,-37.0048793772526,-50.04538548046834,-62.41748662013542,-78.95895146498536,-101.3655304487424,-114.181292678859,-89.45291239063778,-28.043493386140817,30.291748276085354,57.40398185292606,62.71405692866678,67.8000469799459,77.23134648083523,82.62161435626162,78.47784878680572,64.73970192636777,49.44485245275364,42.494094800419006,40.74185231063248,35.615186335542795,24.281917712083267,8.291908267809374,-9.022534590703012,-25.615055191906862,-42.080465681472674,-59.7637289173563,-74.58356562938476,-83.80469685654397,-96.2958019993177,-119.61386092861845,-136.97339308894286,-113.18065607434747,-44.18328472426049,25.170059719176557,57.053484238064435,58.731563090806674,59.617933081781906,72.21847128029155,83.36307720678394,80.51327729736565,69.1869068583421,60.35806723387388,57.37419215847481,56.01837535061376,50.58877438557834,38.927611907158216,22.755110901069134,5.584278615095436,-10.5426477999132,-25.93354344011407,-40.981408509433926,-57.023795233948974,-72.96860951397761,-85.00769702611784,-96.40160491545615,-116.34862349464889,-135.77706019784605,-120.70468077404826,-58.88403338303722,12.596320046532636,53.66395265647404,63.80187946009143,65.84307850554873,73.53009158372642,82.53708350081925,84.55417235972074,78.68384454067771,69.0443541374488,61.78169858617269,59.09717484291928,55.857115564264255,46.14126808145596,29.942296801072704,12.100394589554364,-4.671165607735114,-20.434826933641794,-34.850830886484005,-48.071156807661296,-61.74892350346236,-74.54287415620664,-83.20152330483629,-92.48114207487615,-111.65183403825394,-129.44544209252035,-109.77624051350628,-42.91386834041298,28.554697641809998,63.63823165929514,65.30603299545601,60.79599212013301,65.62717533748756,73.60218281910501,73.67745457681666,64.0760443405296,52.117501231434645,47.74489911780403,50.824138964576576,50.18747629098659,37.220290101305814,15.542399080506145,-2.9272562541884777,-13.133154423599652,-22.087507436461173,-37.876874115843606,-56.74781453742069,-70.04302505163601,-79.78422977578096,-97.07456501020646,-119.37203017919948,-117.62928146007266,-68.85538664600091,3.46094191639862,51.65076091207488,60.93982877471538,54.07068495090428,54.2390590347019,62.882805066868414,67.39319035529165,61.1937684086913,51.83536148115549,48.05323761228964,48.283003859817974,46.219551594782665,37.98161195996438,22.50840737124811,2.804440892391989,-14.92130740751741,-28.336794738111998,-42.66965466520762,-60.701192233732975,-74.90569838529414,-81.8500432514282,72.0,103.0,75.0
50.13269705393022,44.58716248226194,39.761729750569536,31.036509368476555,15.282233509166401,-3.644111830797584,-20.600500490258938,-34.12642528063032,-45.64614241435885,-58.694239164479434,-72.53484172538947,-83.52606778704713,-96.71003988810335,-113.54246271409667,-108.90705475765415,-58.87059992772886,12.693360574036095,57.71055406171416,65.0039180690364,61.25405912893121,64.50638221505275,69.18586372336796,64.59505633832083,51.11212392229923,40.35656243892547,39.50695811636357,43.70278578320281,44.73026176249741,37.208004546481995,20.2399169343518,-0.6291348711118973,-19.149006951653504,-33.88628268050903,-46.4779029351393,-57.00541380143438,-67.17476505372383,-83.32919138678322,-105.18961819841526,-112.98467658997016,-81.82968799695219,-20.569709966808485,33.02800658004223,57.34362176413786,59.61331651556623,56.653742581016466,58.29809724761791,60.847141807224844,55.62511163856884,43.64862248886007,34.08203989864275,31.06037536167965,29.812736821088468,23.292947818784963,8.966544742624606,-9.138837537677663,-26.267283167231483,-41.002664332387546,-53.52153358757153,-66.52644553653612,-85.07437286707966,-107.30761115110867,-111.80257620714984,-74.13374633864296,-8.937303392968667,41.54547632234625,60.10826183869667,63.57927258138626,70.38061986130526,79.56599705608016,82.50621217599898,75.32785727515295,59.91282306679122,46.430919184109804,41.89035204301599,39.852034725747274,32.968978840772245,19.998556975071885,3.29332904259662,-13.9231254238758,-30.285082980496206,-47.115590900445035,-64.6337409163448,-77.64220611653295,-86.49863330152871,-102.05882558061283,-126.75879954445315,-135.58497204772215,-96.53366271522712,-21.779740657128535,38.7453829093507,59.3866410602468,57.93819313122212,62.30269512418718,76.43035643149082,84.05403087117611,77.55189704077263,66.05459765206167,58.976121407319916,57.10284275852428,55.047981543128046,47.84356929392888,34.57352252981557,17.74700889804445,0.8117877820969905,-15.04894173081694,-30.275594625366303,-45.46552085661798,-61.82109084966386,-76.92714564997885,-87.92853219880718,-101.08928290631592,-123.26894272691946,-136.45582273866358,-106.7646570078541,-36.92700018334511,28.42179018489889,58.86738551477471,64.25487647331539,67.39168695100595,76.4618152459393,84.01990922536807,83.54918353450915,76.02557587389603,66.4571181230857,60.65478359635333,58.53959175114093,53.86203448491681,41.9392991850402,24.757702609194922,7.123720846429703,-9.320194517630963,-24.77064107073278,-38.725947943778486,-51.9330959125716,-65.72424168288876,-77.47857313837228,-85.33954411051758,-96.85841249806657,-118.32933549239073,-129.10105184067842,-94.17402943784859,-20.26828283255141,43.15012184477365,66.45297567904139,63.503625740609515,61.179049294446564,68.19550086169335,74.72246464720698,71.7151684684087,60.375350879654114,49.79288449198508,48.251230263869324,51.572877677184756,47.81434622529212,31.35882518758251,9.408880644258897,-6.603778331989895,-15.359113343731794,-25.85236091609488,-43.46422640098786,-61.35600206605805,-72.77183031669075,-83.60911239533903,-103.87758607926303,-122.9408938027696,-108.33964098581231,-48.17926620095123,21.469315947917234,57.75104612511535,59.28121439768923,52.88925291265254,56.328662581601435,65.17307304274642,66.58906217093121,58.28360388710765,50.04044972523945,47.98898715546339,48.15779697290577,44.57232079662559,34.21558570275147,16.996269973599233,-2.774905737691483,-19.116178952991625,-32.08258051362686,-47.66876319381299,-65.64063057027317,-77.32817594540559,-84.26608732075418,-101.76461626134997,-124.62979794975392,-114.65674685415753,-53.82634407954939,19.87482706440455,61.612871369338556,67.79574748753883,63.91087647027302,69.21558386582853,80.46501025802174,83.66008934202327,73.82128612864156,60.219146656970274,53.31781871155945,51.997634081815896,48.38533827018647,38.158269635373564,21.47407108109995,3.1287989339176145,-11.294807158627792,-23.992273187531815,-40.44882603563888,-60.22220401589347,-78.46330519581281,-90.27411181400971,-97.86452852747266,-112.43620330600433,-133.73311026422573,-133.6143852822667,-85.55790631084875,-9.6008311030461,48.148292971399634,68.53073265392484,67.70539357954655,68.97929660693192,78.67780151811466,85.8818635920675,80.61688638462346,68.7107606425471,62.825771412820295,62.84407218425461,59.50608911070652,49.245575478591256,34.455666668842376,17.375459034502544,0.6350761667471007,-13.092381766726465,-25.535097813498805,-40.1646676377864,-56.93802694546908,-71.75362865295226,-84.1875961956388,-100.11034966756831,-119.65272533317572,-122.1591722331271,-81.31471921376806,-8.925548397941334,48.087143166511275,65.37918119112945,61.09514794336008,60.110669846468305,67.30300174424258,72.0,103.0,75.0
-56.291076572236065,8.723487595417073,49.87787850058371,61.55595832475983,64.88440423240246,73.20525430450954,81.33172824894112,81.52156199765143,71.41723197543872,55.26480455964739,44.283242458266706,41.48690013083922,38.51017659788739,29.794236351210888,15.396154563134873,-1.7336120431748157,-18.73205682108834,-34.99479679838791,-52.26645901079745,-69.08409785155206,-80.26030920669322,-89.80374385679367,-108.79651589138838,-132.67020023240264,-129.85144042331797,-76.59750577669989,-0.777942193045071,48.664596405696244,59.81205826242856,57.82297498584544,65.95871504804185,80.01992524202497,83.4296233920271,74.18762972480182,63.35346826427764,58.073461658116805,56.808819588731325,53.61845293516159,44.56928050483888,29.914834225190823,12.748703778678284,-3.8586733640634545,-19.508060977441076,-34.59958763776789,-50.07970189836474,-66.52699474589355,-80.46609327709025,-91.00170995677993,-106.72047379785444,-129.60196661747057,-133.26488268923015,-89.13310801606652,-15.476429214621753,41.01754742475376,61.905387722167326,64.63793131106267,69.55602474971327,79.24460777148897,84.77607829858825,81.93381381416592,73.1833963423567,64.23037369398025,59.88376314208683,57.754492979690845,51.21073017725843,37.27756181467212,19.564247745239133,2.2602585916905986,-13.89877329301217,-28.970371981631086,-42.52783112120819,-55.88055913492017,-69.53206139678659,-80.0086596588715,-87.768134983372,-102.27639724105656,-124.2663738371263,-124.61139075814067,-74.96670148734798,1.3189611035044693,54.066410367377294,66.99723854513327,61.900998104109206,62.4814490623341,70.70252436703451,74.97082615186855,69.00528961214576,56.73277342635308,48.32402038794813,49.221717632520246,51.68141767245822,44.28588953551253,25.003471102169605,3.851392356977171,-9.594275654241684,-17.756236169826973,-30.315492373163575,-49.072416378608956,-65.32274972495007,-75.40574204825495,-88.37488566286518,-110.77007823833796,-123.55716352620561,-94.85986936795605,-26.660593951977308,36.353019450450425,60.75340977599178,57.04609897684436,52.695343497563556,58.927492227777265,66.75882451107488,64.87593472844145,55.41476284059343,48.84275644804414,48.117071591770994,47.693448570141044,42.34670062636846,29.843504330537666,11.253597354776176,-8.02176414568149,-22.976178607888922,-36.095747965153585,-52.948016405788316,-69.9776141926799,-79.21710325040392,-87.71362718755103,-109.13087994958775,-126.92860976312784,-101.53676340391031,-31.356929879014,36.25933225748795,66.15758995697666,66.47941526327669,64.22713854871576,72.46457938170424,82.73180624238489,81.959221540794,69.67716480340873,57.333546050726625,52.70121774139072,51.48744063784469,46.17258016755818,33.88859804586994,16.023358804112792,-1.5251212544531993,-14.847434126252185,-28.24457979797594,-45.99444470048669,-65.90562180632332,-82.65404504882585,-92.49108836044523,-100.89232003883001,-118.65350047300521,-137.59402116226536,-124.81701429589121,-64.3935230031428,10.603811695653357,57.65196925146736,69.2887772588951,67.15578523550111,71.18649927430938,81.66571711620571,85.71737658652249,77.22558524568086,66.06501101983316,62.62022201487677,62.5559608988165,57.19746464295235,45.30654677186904,29.68040843797179,12.337489542236641,-3.6568537593531247,-16.647666398367893,-29.435688822620826,-44.93862483910498,-61.58543885790587,-75.40280047069271,-88.15013917127476,-105.84741168551201,-123.54641539583683,-115.32285561000297,-61.79356716420169,11.104312157708605,56.96595251345415,65.01133870889602,59.828436601514404,61.65116313220552,69.53041480999067,71.4671370222749,62.202806786931816,50.135182029628005,43.33613400613598,40.46239005169224,37.04211003914009,29.628955646039596,15.415993458751956,-3.0017891533949785,-19.32489445037935,-32.20313889165099,-44.75145013088274,-58.48291895280126,-72.3424406047094,-86.90248517229915,-104.14753479414148,-114.27913591410075,-92.72044005318342,-33.54342217880412,29.55449317998738,60.76080598066145,62.39238825762697,59.612670529411574,64.55928138474823,68.75092882265459,61.838520905194365,47.942139183035266,38.54604605558644,36.482011067441675,34.572447746856476,26.155944053239377,11.577446537021801,-4.805324131688896,-20.990048670993207,-37.31059310103854,-52.19068541869456,-63.72124799597894,-75.27702847197654,-95.48385182007576,-120.57273522049871,-121.81707644453247,-74.72008730135691,-0.2345789290678748,53.482181984284125,68.39058326802507,66.48822616679355,72.02917726793684,85.7039841431778,92.77732910413945,84.91908970828962,68.74997279821181,55.66922543715261,51.30819403791178,51.374901875846646,47.684724780073005,36.50441625933711,18.64499320198378,-2.403600523955572,-21.496563239743097,-36.54992118438516,-51.55469904281754,-69.04731500446161,72.0,103.0,75.0
59.32817982611209,56.57406678773913,47.88826556891046,32.30195384817018,14.433082222539637,-2.503371895013168,-18.3953784266908,-33.026547970057614,-46.31436277837556,-59.89368970856731,-73.04821600491455,-82.23099226883534,-90.80062445384132,-108.56961728110782,-128.42653419558457,-115.52447098448033,-53.32563420301013,20.652820448590518,61.381227534146284,66.04004526330341,60.94332687977967,64.51875216209852,72.8265525852759,74.2956205177722,65.72202290558816,53.441659653657176,47.738706930048636,50.3464612805314,50.89946036556483,39.669883089763786,18.497939829839883,-0.9710036826426781,-12.084953370450377,-20.583634982215095,-35.38559026708966,-54.42817293739418,-68.67210382530817,-78.28150455692672,-94.1292375672755,-116.9845565895073,-120.45654294546021,-77.7324780368974,-5.676864706770702,47.66593394635778,61.303698685570296,54.8911808848827,53.5333515462473,61.67267060807269,67.42558675903035,62.46395758845228,52.855394322553416,48.196043531110405,48.2590871564898,46.797685974888616,39.50508348933846,24.92954586551337,5.451068751217884,-12.84698544151795,-26.652529514973903,-40.496825838252114,-58.291228181553066,-73.53942404615987,-80.96116302235949,-92.47971418251524,-116.41129535998263,-125.32416392554791,-84.2750582957169,-9.22775603155119,49.16355084117242,68.11034716636257,65.0624614731966,65.58116082660703,75.91039611794517,83.97995461939566,79.20399044417675,65.55946678134278,55.18966496102546,52.38658670851351,50.59375919847342,43.35803214621398,29.11380346566761,10.609692912930655,-5.753674330540568,-18.411106515679315,-32.91387372639958,-51.73623477956202,-71.32233153932523,-86.20072345299644,-94.52605385805425,-104.83976889641134,-125.18052878487728,-138.69881730082426,-111.63604586177135,-41.95869871900583,28.19783973137914,63.991523240939976,68.92433837099027,67.26884300667396,74.02939554333123,84.06362770539064,84.37639314376727,73.60667711908764,64.19040518135488,62.72244764376016,61.76050776453027,54.317056010859375,41.07218228119539,24.74672257679891,7.419348590520937,-7.659368557340898,-20.186920644748795,-33.59617709954287,-49.833688179054725,-65.94820808832937,-78.92164589502626,-92.59574760904184,-111.75853247491014,-125.25880325941127,-104.33818817592804,-40.489021088929235,28.58066116552315,62.422651384115724,63.59966271315722,59.30570012956153,63.77222073635431,71.21189625280397,69.76258599667848,58.48491027987188,47.532296249173186,42.31456961746367,39.69250801677029,35.46601828096931,26.256708432288946,10.229900747146138,-8.126501896814496,-23.296460086671015,-35.719923964013674,-48.6291154806256,-62.51446430685677,-76.35591489581019,-91.66361912259573,-108.77447189983396,-112.3085289246642,-78.63102564281525,-13.66106569442549,42.560493854168115,63.22890227555623,61.050339397426754,60.334152763053346,66.48317954422428,68.02090801067841,58.01113310122865,44.38828648801396,37.39782854951516,36.31593379387462,32.93117741129186,22.400178685627647,6.857516533422561,-9.4867336117963,-25.709207640404927,-41.87940397373169,-55.86722251011858,-66.69934757925022,-79.936243249336,-103.09365394932522,-124.99526176569076,-113.2738008547847,-53.88080193087978,19.165936883297118,61.306126903704914,68.17859766065169,66.80359058836385,75.69654529656205,89.07710056860208,91.99100269423872,80.56612383366982,64.2360744257605,53.5207908801867,51.25633293236708,50.978571261918525,45.241139476191535,31.93256939172938,12.664414747521548,-8.323080399641576,-26.17848705396228,-40.6484567375641,-56.45085957743588,-73.95845656050557,-87.4485122666336,-97.2830879606375,-113.10194885624823,-135.23882387216506,-138.59559507531608,-94.68041415430032,-18.199651569420038,41.19610180799943,58.46408088638147,53.83705915868848,56.44265583983387,71.2614510139234,83.03596921455956,80.56261579341171,68.08737040243173,56.858277619048096,51.60495860778284,50.00726575907314,48.01851684056977,40.76899770212446,25.518697652314973,5.525181602958107,-13.56842103340769,-29.564368611066904,-44.139801045190964,-58.50870545657382,-71.89853483276475,-83.68634778235031,-97.68629819483382,-119.29514076364894,-135.27206822809615,-112.77102248090867,-46.233912906992806,23.781775707913102,62.16575470842957,72.95818605030456,76.38407315283169,82.18612631863044,86.99997793337022,84.3723600346593,73.47501842426328,61.202855225628475,55.478714247321804,54.833001036461916,50.339019568893065,36.93692012965793,18.148410626354302,1.5444509671025273,-10.043974600678848,-20.377628078685323,-33.36232168946234,-50.2830498815442,-67.15225130957924,-76.65523000460121,-81.82378582601193,-98.05767762080163,-123.14590619969624,-123.18349301078686,-74.145633209831,0.4220336455910299,56.123900622756196,74.82203145237692,72.0,103.0,75.0
-83.04898937329837,-98.57950388717207,-122.52903831586538,-119.13334217680594,-63.90284231904197,11.268179773361553,58.477270473665584,68.18445824889324,64.09436331136081,67.88998961088332,79.14907115958697,84.0447164432084,75.64517271104236,61.779093020954974,53.76397084220553,52.14486831886517,49.208842882343156,39.93652691044435,23.94663515856552,5.412152914668474,-9.609733717623843,-22.160913413437825,-37.9883986663576,-57.55214570047321,-76.32909967489894,-89.11638804233772,-96.7092972410928,-109.81596353720221,-131.29697072448178,-136.17781282686093,-94.53355650437209,-19.56724165798276,42.631487410113984,67.61342057128967,68.08929666714737,68.23474766761622,77.20368200682356,85.55901636562047,81.99510803954452,70.15232077526373,63.096977698088075,62.85031388695988,60.36277939524314,50.943006331433786,36.59320058587645,19.710654783788215,2.71373882211242,-11.419323614154786,-23.810769840810497,-38.03261738449155,-54.72301348401002,-69.99130051886178,-82.48019571598536,-97.61079262556765,-117.35684264831903,-123.96499069208782,-89.38746808996022,-18.73225053483171,42.76496504190676,64.9819766318426,61.85135473158784,59.65697728891527,66.18485292604488,72.06428673819767,67.14660198506087,54.84159771738594,45.47505872343603,41.507206486982085,38.780532315986285,33.474573971173285,22.2593031771651,4.841806992301247,-12.935109313159307,-27.018107564081788,-39.30440615437174,-52.599077808729675,-66.52233251478089,-80.48035268775239,-96.69668712293003,-112.3628186405777,-107.00732872976084,-61.64939975351543,5.380962503135369,52.28376947367146,63.72033339599764,59.98522776897889,61.754768739747355,67.98113535394594,66.20636496645295,53.86780194861869,41.47743519607893,36.79772448729642,35.92646659926163,30.64163693844846,18.211292852904997,2.101342210746967,-14.15076371425765,-30.446390686372983,-46.26062466942825,-59.23149785731333,-69.84258022193937,-85.55966703698309,-110.7819546099698,-126.49144386303693,-100.36338746304027,-31.820507176785288,35.65789693723242,65.95927714784523,67.36132520768771,68.16037998936302,79.80091387417305,91.48768122651192,89.90582275805062,75.8064234659238,60.240770473431226,52.151813726955716,51.372724082425684,50.08268902968744,42.14559501513903,26.844000058059027,6.534699719430197,-13.950599189255016,-30.531490716592526,-44.89472197897086,-61.54622134799737,-78.48520134621664,-90.32438134122602,-100.82643929297535,-119.46626968491347,-139.76208041532493,-131.21096595071495,-73.9146170963351,2.7560191653902635,50.29567560053106,57.841654403904094,53.06105259098233,59.95625234370219,75.74112750850853,83.87669149169747,77.48297625871609,64.31154217533219,54.760060531008556,50.930264842700396,49.678280475977985,46.67312407375361,37.15972577289299,19.959295406372995,-0.2759910433264742,-18.477791590117167,-33.8220187052183,-48.32223896796899,-62.53580073656642,-75.42446304585394,-87.17713878665896,-103.17334732593297,-125.83972837934807,-133.96836724368524,-96.88529992395686,-24.146764246514145,38.62681455506974,67.21732258154138,73.96058170859166,77.79343736494597,83.9968617932101,87.19841349216655,81.89504761416333,69.63424341953171,58.71280926880725,55.117915154535325,54.310616597389846,47.379383280267454,31.730396248907102,12.843376555103452,-2.2267536692651198,-12.94411200912704,-23.74000269661027,-37.89322021550327,-55.50476746616854,-70.85670998622872,-77.9906692339818,-84.81013047314057,-105.46644251912248,-127.50019694008748,-113.94877749193657,-53.15822505256612,19.99417013264242,65.15512722504845,74.8930764457695,68.58249509816909,65.21343957507,66.22772850334407,63.04326597284462,55.29059262683385,50.32257023748114,48.60150233826912,44.411593271216034,37.22421854436966,30.495178840956537,20.418437543463565,2.8017755740928028,-16.29287031989312,-31.456530067828325,-44.23693336143368,-55.653120904031574,-67.3507323907109,-83.63883128197529,-107.01205606653365,-122.42036455782217,-98.72126844197348,-33.24996285201135,31.25979831447546,59.91599970275093,60.90287125212702,58.652966171344566,61.73139427970563,63.1700717429218,57.63638081605037,49.267773002006095,41.96673664186503,35.909526671887775,30.501729466463765,22.224337694213133,9.371121439865274,-4.912271549009768,-19.264629411633997,-34.95901678475913,-50.740466340942106,-64.48847819176478,-79.77269766467639,-102.35446364179924,-123.00943875334565,-112.74439023489366,-57.87956242662316,10.81676405844754,55.23363551713982,70.38433501193077,74.3753670757306,81.28737793699972,89.35032986219576,87.83280299990378,75.16122766020041,61.05864584387382,53.522139029976934,52.646599160891974,50.169670565052066,39.17033474231834,23.087201415930323,7.090840353220286,-9.690439285343826,-27.22984975554956,72.0,103.0,75.0
68.55158634806233,71.90327570913009,63.860835917293194,51.51483100331392,43.91462472675484,40.79172118557777,37.653924231478435,30.975106862313226,17.68725769901894,-0.5570565712432651,-17.388967485341777,-30.58369784512242,-43.00328084572069,-56.62170316058682,-70.50650494091045,-84.8119325983034,-101.83226516542798,-114.21324457948569,-98.07042574670648,-42.66711451150168,22.524970469659067,58.7707920273917,62.963915687502116,59.54983463002385,63.63151495792495,68.7277727292511,63.40561806402104,49.747147104665956,39.30129206084837,36.54535356847083,35.12284785932803,27.70981166201165,13.717090330864684,-2.6349507040423457,-18.825316145894572,-35.16095129584424,-50.38790225427836,-62.341575412231016,-73.41259434648585,-92.15831707771729,-117.80363110058119,-124.2616529545241,-83.5539738813917,-9.915395642205565,48.69234665985255,68.06629527455353,66.63647625726773,70.5871183011302,83.92031552024766,92.67949977466859,86.70228984165294,70.94603030278876,56.932565801379646,51.45228796789077,51.42838269472333,48.58957741090877,38.42256896873185,21.314928666708788,0.39391744485163405,-19.207676949883957,-34.672003858069345,-49.38770445528894,-66.7006182318436,-82.50962403736044,-93.03079997966603,-105.16220407327775,-126.16723254699811,-141.82604986779066,-119.35769105248409,-51.382987793994786,20.975214158088356,55.766540732050785,56.240593284431554,53.464719504979,64.31119658596859,79.49722825744091,83.3967942401297,73.82068036244637,60.90934473186171,53.169787264737394,50.47442208529196,49.210527346662545,44.76117961709998,32.86041273781201,14.147939674821563,-5.875258397608958,-23.1262138231518,-38.024999978780635,-52.49093563809772,-66.44948450725914,-78.8119846197489,-91.01850654857152,-109.4031638784747,-131.2837641044919,-128.5695029027718,-77.7272740258288,-3.0870620796298405,50.34032111664607,70.41978115925562,74.83137866148427,79.471790267786,85.55569010618353,86.63423627173806,78.7863910686724,65.9181638321129,56.9179601051603,55.023047738827614,53.22579472369554,43.633579005439,26.2403794978367,7.909771029566151,-5.597661739606716,-15.866595541923154,-27.39748287596839,-42.758407482179585,-60.55295111937944,-73.76555308797664,-79.22381264927444,-89.15996009962325,-113.2045672722264,-128.6901377527442,-100.40137066818511,-31.1138398259511,36.97127560510664,71.04192544650034,73.63630424918395,66.88256778523717,65.41341268806305,66.02682656649462,60.95274906912446,53.33873033736663,49.727434590945876,47.84256123218347,42.44911279772635,35.22528973363741,28.262733542015575,16.012518571789595,-2.9641419760760885,-21.07766243752757,-35.303158800610525,-47.65797143406281,-58.857458013439725,-71.34743210002746,-89.83781842187538,-113.60987279631351,-120.70787113810293,-82.78952665591657,-12.242289792656493,43.61772803181965,61.88808719447227,59.78376092031299,59.144512716336926,62.729355448482345,62.24325358934813,55.22877413684071,47.02010653630362,40.08367127130957,34.38079480364338,28.58996856396904,18.89177521429214,5.242037053984975,-9.00028894986148,-23.637357905753323,-39.653304816611254,-54.903991855855274,-68.42213782173525,-85.50178711615307,-109.5699323290017,-124.57053894893608,-100.88461648655945,-37.37134427219618,27.081063131722473,61.98992102887699,71.8100017055024,75.83554840078966,83.95431370536281,90.27155278566337,84.98731698191976,70.76045427828434,58.029635090200514,52.82383705489805,52.56097385477053,47.90117267604513,34.71966029611419,18.403333575739794,2.4166644834846807,-14.798705075180056,-32.090602643795634,-48.408049760810314,-64.59843547251451,-79.06642645341266,-92.53857329169243,-109.60354367772868,-132.1609355897262,-144.03561020345396,-115.10401861355137,-44.73637411535526,24.637642089773774,57.98321086312452,62.00937420927133,61.83463389637045,70.21831020786071,81.59662051587291,83.82083557139745,74.45502405263446,63.081396829145724,59.524350990845285,61.70133281316626,57.91148839815399,43.96132463028012,25.094308166848567,4.460375175709468,-15.760354805922697,-32.5786357958858,-47.092216805201836,-62.07110875725658,-75.68958226503082,-88.04941701040072,-106.75865974875943,-131.89172920783466,-140.92290928018332,-106.44659013620382,-36.81982571246931,27.13320413783014,60.09695410911665,69.74555416205506,74.89612311508081,82.04473043565322,84.41502695216315,77.08545757273514,66.29205000504906,60.664750750470134,59.24614788398658,56.0474438839838,47.74740805332176,34.86986439864102,19.6304617725014,4.211726743473337,-11.538721320811877,-28.054449021063636,-44.68160932161302,-60.865423848138164,-74.99698036971985,-88.16198958813067,-106.52126884936516,-124.13745767685316,-112.76326143976175,-56.351172278803276,14.622791238687237,57.6827085091384,72.0,103.0,75.0
-71.7323220671457,-86.00150814771696,-95.85523780878819,-110.39726972777925,-132.58960802235325,-140.53030009143782,-103.30794825030094,-28.487364013115634,35.69833244501628,58.17389206293768,54.49413018490939,55.202754987345635,69.06720076405799,82.20325403949204,81.70042222848794,69.89840841741717,58.009843827788295,52.01455747417311,50.14437831453745,48.47966179357216,42.191347755018874,27.95245687540485,8.241088163722528,-11.207953544005695,-27.567982868956797,-42.21076245757355,-56.62338393034879,-70.21708363936423,-82.13853117659164,-95.41970079856863,-116.14129694142933,-134.67155285414762,-118.75987264610157,-56.42133021651942,15.918405066200805,59.05890868241767,72.34801700474318,75.83475648796755,81.31863808362813,86.67695001141321,85.26805414736901,75.21696748578995,62.5682231217523,55.7967132214092,54.93955323912737,51.430800132184125,39.18634956863453,20.678986541602757,3.4401090579445315,-8.682248658544516,-18.91051007330021,-31.396169186158506,-47.87537745615604,-65.20252052511451,-75.89528352721669,-80.82573465078009,-94.9515251637964,-120.34631555153109,-125.92761717554983,-83.12198939582663,-9.263944132794233,50.843394551834514,74.16788003338503,71.6635078972674,65.76107631313027,65.82139293115254,65.25119779508043,58.625837811581825,51.79937822204542,49.299140820670665,46.72707813756605,40.32644352532703,33.32494855120511,25.554758687555633,10.959162367168863,-8.60642221767962,-25.498129212269628,-39.018945561624975,-50.96261936034847,-62.15336916101411,-75.8618294641261,-96.64245316978,-118.9063325643291,-114.91531800926563,-63.84532090423659,7.325210763268083,52.52922724414875,62.14877746699421,58.941971078404414,60.06534082177619,63.335364989242656,60.70340653930652,52.76058554614344,44.89145063225007,38.30566833756929,32.874230144821084,26.31840037531716,15.198719395279449,1.0965011351786795,-13.111170438182532,-28.156919709438412,-44.27692936795721,-58.87065528606927,-72.65069194080485,-91.95997922680755,-116.16089908696985,-122.69254787240986,-85.36515278913575,-16.876075938941472,40.60842242751548,66.56019865740201,72.82891468531004,77.75416185867874,86.5048463478666,90.1166438790435,81.341463096061,66.52351574757765,55.684090583051145,52.59652596654775,52.06671376574135,44.84018173402649,30.031156704109613,13.7945543225926,-2.395684714821807,-19.90966189138949,-36.846060600565536,-53.1331957636518,-69.02120470865671,-82.90446094684937,-96.86257882618769,-115.78749943841233,-138.03413848358494,-140.87059071951276,-97.69240927486096,-22.362561476334527,38.43785326763319,61.04312878022727,61.44989295609612,63.327615275667846,73.76853376223379,83.57176986088162,82.03448772091711,70.82047643075758,61.05022843321116,60.02902439332386,61.68115140748991,54.75213916895078,38.78962392361795,19.256205729434054,-1.5793872907188184,-21.02832803881515,-36.839885218829,-51.36071024254909,-66.29236024457063,-79.14262887516443,-92.45847699656603,-113.90603457730238,-137.63668392798482,-136.00128650754834,-88.37248720577392,-15.9734722961495,40.01875858735441,64.39831465010836,71.0635733429708,76.91437286214686,83.6120179954283,83.22769787540156,73.83488193696691,63.9742304403915,60.08316990864047,58.73781012187898,54.20266020197045,44.4197213250652,30.587394595761,15.153503822743316,-0.25714988305631137,-16.25676743834947,-32.868686397101456,-49.4478445811621,-65.23828987037993,-78.65362680186591,-92.7498721434172,-112.62170890156784,-125.25066660460818,-100.62167289060187,-35.10414306867956,31.03367495189518,63.11560516241263,66.84868696748443,65.0699715013105,67.95425207583781,70.33352360571261,65.17241319057325,55.72634546180986,49.238111932957,46.310364938722486,43.10785999556482,35.631897765709844,21.37850132027373,3.029513407935725,-14.952555060144588,-32.104026714529695,-48.27577970264152,-61.991637115584325,-73.97164592847778,-89.31459829024087,-110.58747990214275,-125.48482204081382,-107.7106574631842,-49.8332562068875,17.063901079092766,57.5388655837316,66.50424028890743,62.26575652274979,63.29666886518313,71.07132532491045,73.32125680555602,64.43621421340927,52.44627178271209,45.09207349578465,40.418544443121675,33.42242041360594,21.285651180824136,3.7945986548045254,-15.592406556904752,-32.906587059871335,-49.36023547432589,-66.14211967768952,-81.59147772541577,-99.67829533994188,-122.90014569532622,-131.02273051217506,-94.11243572336423,-20.410530468220458,42.36688660829945,66.54491465000233,68.53261439573306,74.27468588411159,88.19735022386645,97.59466419628444,91.99130047339808,76.65547635980107,64.18074004588527,58.26865689605753,52.697918988828995,43.126131943212506,29.860044543979583,13.123542203202152,-6.932774342735628,-27.602905870639002,72.0,103.0,75.0
75.06358001905653,69.51302076585657,65.25865055929381,66.1646819863853,63.8667214899572,56.30061142292903,50.69758992519034,48.85788956623773,45.224231811222296,38.185814948853185,31.42063199084441,22.205490094139787,5.438609915041906,-13.953913478490456,-29.6275251296232,-42.61797850025364,-54.18233483079811,-65.64345315027023,-81.02050269655092,-103.75869593715966,-121.99314850626395,-104.80076319685057,-43.07133973492964,24.4168488791508,58.23407606801222,61.40550613281063,58.610317086313145,61.20332001071747,63.372733848733866,58.682343308443684,50.34557312441129,42.86750387204828,36.64085919485846,31.290662724010662,23.618918685471176,11.247974778964211,-3.0233644030731077,-17.296444268977677,-32.79612676602517,-48.74730650931527,-62.71862740863933,-77.37733618587546,-99.00001250761896,-121.33783607949873,-116.84352571862887,-67.00539577612679,2.5070424215510503,51.261670899007285,69.45984526923498,73.83392777733314,80.10008639968822,88.61432971067848,88.81069721576675,77.17532477945679,62.663911329760026,54.04717214323767,52.62192979317841,50.94247157688367,41.08812244943552,25.272112676425245,9.21382066632708,-7.3594203537189795,-24.946560263371097,-41.54435548911561,-57.851116054917206,-73.2405351570742,-86.72811234606095,-101.6281265114542,-122.41634201918697,-142.3530404935475,-133.5450065004846,-77.33056398320791,-1.3980699528527905,48.74366762945076,62.21917486671038,61.14111459412649,65.65124026192233,77.27582808800128,84.50211798998444,79.37275250563751,67.3317721831443,59.85318698122685,60.80304007157544,60.84605888602255,50.799047627961414,33.358854149860164,13.29738572021329,-7.505717048791194,-25.950200372442144,-40.99802730182485,-55.7087975851126,-70.29766445876787,-82.57840505421649,-97.64195531082999,-121.42214454857088,-141.23508888440904,-126.90553354734887,-68.07528115633667,3.281880960472859,50.0565784208419,67.21017166301215,72.43627251243048,79.07273947505627,84.53940501566153,81.20147436509957,70.56435842697029,62.237707711963736,59.72220396504294,57.934120162853915,51.89812644720724,40.74675186389993,26.174459125454923,10.70022443997856,-4.7838444833645335,-21.030552701518772,-37.67702716785277,-54.16337851616328,-69.3768705996934,-82.32946871772849,-97.95358123427087,-118.28053040642664,-123.06145722953106,-84.70164014129664,-13.865017244915576,44.278303112511416,66.07299712408665,66.08697183010189,65.44651956250529,69.11948546130877,69.69467855125156,62.505798992050664,53.36828108648709,48.17124032138992,45.595480464280456,41.554538206714334,32.21206540042324,16.24693083029348,-2.2889347272090195,-19.966507368121732,-36.9314576285352,-52.54718327382223,-65.46663927563888,-77.79669433683635,-95.01269422248359,-116.61090412711636,-124.76537020440804,-94.34366714917397,-29.502362985532812,32.35920706113629,62.7974676132751,65.62989043333816,61.55843669170615,65.28761013203739,72.83188189721186,71.72739556214435,60.7909858540505,49.763715181508644,43.71398870755611,38.804950217380394,30.508941627511053,16.707032011442,-1.8504888254399412,-20.853883438010634,-37.612259464746835,-54.253070402338835,-70.7328519371186,-86.20298653655209,-106.21615930629869,-128.3186693933588,-125.7089045999943,-74.80633706063524,0.9630662764965835,53.26298388123519,68.02838641003612,69.12364411210729,77.84726684601794,92.0608954616367,97.60226981550215,87.9743247232135,72.33582918573546,61.97602151207112,56.94057303171748,50.371415976051566,39.637073374299504,25.398148363298684,7.608971697299657,-13.015689761482074,-33.20874272683135,-50.921349906577596,-66.02592124308012,-77.72168410041819,-87.12448568451617,-102.29819337103557,-128.28552315108917,-149.890378678808,-135.2688138793549,-71.39440339545735,7.033781763302227,54.456708062692826,64.79231945528795,65.77373720109324,75.69220937467404,86.56974907645592,86.46769877627752,76.99856904039461,66.6229396932259,61.31692805000819,59.84775795125013,54.46238785895973,42.17881222522413,28.96825427676548,15.946681106281707,-1.9639912433169915,-22.567776824713693,-40.35542666848804,-55.96366976529728,-70.93678515300013,-83.72538187062003,-98.13362212171556,-121.45153568594179,-143.03175967325868,-129.90062727653114,-67.40504221444542,8.867556254463382,53.75907499075097,64.18488038754002,66.53386427836784,76.50349970581281,87.89657611167027,88.2238875376443,76.36361052735103,63.21213824510534,57.43860066760193,55.725989971334464,50.55640426082168,39.76201162949673,24.43590669353045,6.910765799846561,-9.244712089242576,-22.341858620803713,-35.11938152981875,-51.19967966064073,-67.73300138057135,-80.33744123614409,-94.08879531091702,-115.94481949722987,-130.78869063812496,-107.08650194572726,-41.36378389067382,27.49256606852219,72.0,103.0,75.0
-29.864759838568972,-46.23710414275866,-62.49912467073782,-77.26454092678847,-90.65587392785066,-106.94763236338007,-129.15761647097804,-144.23089410834902,-121.88515057235337,-55.18415972417645,17.12668282147246,55.74678347212557,62.21962512212512,61.435132339613766,68.66316774739832,80.3866543547446,84.29562356737807,76.0928500350617,64.27712389425366,59.46594982944676,61.50163386767367,59.061271315703536,46.22800322117378,27.73871160760879,7.256499704009185,-13.220539664059835,-30.549273166552588,-45.154909346401794,-60.07662677216354,-74.04375407754686,-86.22581821305468,-103.68985801681127,-128.76183838469845,-141.84640112090028,-113.75151473687392,-46.705273900742945,20.2273667169976,57.46423205673274,69.07061205673007,74.0517420340269,81.16700721169637,84.65910462836328,78.49677623794535,67.5421778025856,61.052430621892604,59.41439791221004,56.743329930379005,49.15279106499856,36.78061502242545,21.69914885963601,6.260824435926756,-9.388268581053651,-25.83508449738711,-42.47489442766753,-58.78364711452558,-73.27132304290393,-86.22960373589082,-103.72721588697124,-122.73215343048484,-116.97156940311983,-65.78451884609824,6.122658160627351,54.19528987255534,67.1870745839286,65.4004373069603,66.2696605467724,70.00478907033796,68.31685373492448,59.6826899462025,51.399816444468236,47.335301572534334,44.75607653089262,39.54686315203839,28.191595580111898,10.90971577817786,-7.503694399843003,-24.932497409568366,-41.65517669359092,-56.567167224842194,-68.86195779905023,-82.06358582404297,-101.20363050632508,-121.59828096986293,-120.60152693566172,-77.83657128464085,-9.50348690164826,44.78263064906666,65.64510854767217,64.22288458496193,61.6455209874128,67.66386778198031,73.77367520840454,69.22715419658094,57.18192993559836,47.569140855382784,42.42413394989578,36.893350374881116,27.119167018363974,11.701233048435475,-7.5220117967722935,-25.881870020615203,-42.333113633376044,-59.149693719190864,-75.17013472299182,-91.23708542062958,-113.13284401310115,-131.68227312207466,-115.98476533650577,-53.22191979774196,20.088464463787286,60.74106813976976,68.41335359260032,70.5341377749086,81.95812215581797,95.14347569940128,96.21797934940426,83.44517807108875,68.54587986485053,60.26932768186299,55.43966695758551,47.675520945065465,35.866517269618434,20.63686016672161,1.8316662237022454,-19.048885233966917,-38.59219545553772,-55.568887429035435,-69.80167453292759,-80.45243407008927,-90.45277572300787,-108.90004220940932,-136.24986671503237,-150.74994755248494,-121.19977007582312,-47.84151844709409,25.142174349544185,60.32746182818076,64.69708192822885,67.6857756410333,79.44256689744613,87.86588118317069,84.33492628356014,73.74010101431824,64.45110438715554,60.782561043594555,59.03586239839769,51.44629689503474,38.189031290128966,25.42038409781439,11.378271358899678,-7.949935667250334,-28.093324704282495,-44.94622915606483,-60.40912773437517,-74.87305714488247,-87.32144656064087,-103.88585322664152,-129.08942286229157,-144.29113451038998,-116.23479557255477,-44.33867024812317,26.151182811259183,59.318133801584985,64.54440155107055,68.57096810725884,80.26793251154501,89.48682375496907,85.69836571055598,72.1306215873133,60.705050004293156,56.90894952765138,54.800152881707334,47.98465929432915,35.732684351772754,19.44218454959014,1.9633045963293083,-13.314395825421606,-25.844049151488548,-39.40523450167076,-56.20919406030928,-71.78383493757997,-83.71247053076083,-99.66403918808743,-122.34226802357195,-128.99665004871275,-91.23743432039676,-19.697376227347295,42.19411169970821,70.22010756839485,74.9028704852847,74.31013683864563,74.6147456555698,72.59937010953655,63.88668391625336,51.95876258793104,45.81896757205407,47.866670910966555,49.237313031441076,40.788110894063664,24.954165290295116,8.127584949158559,-9.572926686663049,-27.376335293243894,-43.18903198558785,-58.12427026094065,-71.88615226536191,-83.87239205228829,-100.51294039302695,-124.25164328109425,-132.46140783277696,-95.29330338676222,-22.678234106646904,40.28998813696764,67.44267456413421,69.73678818050546,68.98021689864234,74.4904537541203,81.00819745074564,78.44574161662217,65.08019586133385,51.456500720138806,46.7852678011952,47.02014542614328,41.6479228519173,26.2797914238275,6.489843743929916,-10.53119870530268,-24.682172691313937,-41.41444130547091,-61.00144971446067,-76.28702834082415,-85.79919056615016,-100.24924243438353,-124.6511630228718,-135.2583748593599,-98.3247484233229,-22.687621322702537,42.783256875118965,68.95287177563927,70.75606688308187,74.20748620910831,83.35193815089188,87.31415648059566,79.86344589415299,66.13854772525465,56.27716553645498,53.93929314570357,53.97115474148408,47.66239874828515,32.134796825263344,72.0,103.0,75.0
60.95337030710056,67.11343467358117,65.06507208030659,67.39284911319783,70.38064984043952,66.28490452052353,56.924405932190105,49.83450123787591,46.62488168843262,43.69677809143145,37.002640184725706,23.63217373876206,5.509632134586225,-12.620474409547588,-29.853460759465918,-46.23021160984843,-60.33252402761263,-72.31598947308592,-86.88680130672427,-107.64199119899499,-124.81191481818982,-112.65916676552936,-59.0124851431123,9.150895272662279,54.193169069270326,66.57175440000394,62.802595429354405,62.59176895872368,70.06318822994724,73.70958981227155,66.0504285733625,53.84579859881047,45.798126585072886,41.08528572858398,34.61347339662704,23.238911084080765,6.348521268188133,-13.088814430781373,-30.71930027952857,-47.12389384416261,-63.96786747944646,-79.54810914764919,-96.86388682336656,-119.96305067170431,-132.07236973539213,-101.92348585319155,-30.71080269140859,36.13760943295269,65.26758884865649,68.45344416322577,72.88516545643533,86.25911735516878,97.12054622687687,93.57121784411697,78.76828995843829,65.40409481452097,58.86946335508022,53.644404971566814,44.63512758478749,31.819920104994235,15.565984379344576,-4.13969036901023,-24.946484165015686,-43.756077583481314,-59.997608349474525,-73.25656038467892,-83.06610938940725,-94.54438380539487,-116.40918323320228,-143.23674988942665,-147.70912027527055,-103.11234901222862,-24.386662627572267,39.75059544765005,63.46031467844339,64.65741217727823,70.4995874107723,82.87234673895526,88.0548137830124,81.60039710450103,70.61550409506646,62.80701579733389,60.446170574365986,57.67058146174528,47.90012716543691,34.3181477111695,21.788168600753355,6.285080731821642,-13.993695866131514,-33.288883947681235,-49.441828882476955,-64.79276954649015,-78.57433276763814,-91.25402772996492,-110.53549988514189,-136.03497761638263,-141.69874950426933,-98.53088857183292,-21.477744059021052,39.958514682234906,62.43288391397918,64.95685359852921,71.38446513566824,83.82471133640409,89.88186860555734,82.29237706574236,68.12633822135905,58.928638306034195,56.513703598744236,53.43404209338373,44.95268717235679,31.35533390968881,14.34383538074225,-2.7824639109367166,-17.118464356892215,-29.44059762812698,-44.02230262306428,-61.1033300529904,-75.44056427812684,-87.44319887074158,-106.0078844643978,-127.4717573313073,-123.19045446563355,-72.30430154798688,0.992520012800645,53.80288015640725,73.03594047802368,74.74909209131667,74.33127733896104,74.53286058416062,70.80991501547997,60.382023534032164,49.25946031373747,45.78695110157751,48.8805959154549,47.93872788175971,36.61163315010533,20.082243306885537,3.163560364780589,-14.846786912424614,-32.14668016210933,-47.52968626322611,-62.323963441523155,-75.39591517887494,-87.79518166383576,-107.08838111006821,-129.82673078930878,-126.99517506400878,-76.18877056314143,-1.5666503669934637,51.887842901249165,69.61612057307003,69.09318547094095,69.94316700661892,76.73894165148262,81.53624189731235,75.40257415964665,60.567976004525924,49.11009051505729,46.810016851361226,46.441596726024464,38.13926360299586,20.627099744640876,1.1134240080296913,-14.70467465041491,-29.045501688874708,-47.03374033146105,-66.16811090399534,-79.32948598557313,-88.88087345920559,-106.69660376558014,-130.89470584049664,-130.23554086072082,-78.58231907082472,-0.5798001333020005,54.425814127457706,70.61419359139356,70.90674667987506,76.66222943368905,85.50893895352982,86.31326867886283,76.0786193732077,62.542343367415796,54.91500700614952,54.0966999673454,53.11320918305932,43.99115568627217,26.621968485417213,7.405341397360425,-10.048269683721957,-26.746395239188242,-44.160450219827254,-61.242215610090845,-75.06078721338129,-86.04985539800388,-100.91483603605944,-125.11717448188706,-143.46436195069006,-122.75349998438263,-55.41893713245863,18.662950555695208,58.54551375665175,65.22341685569246,66.35272322780415,78.98173264892066,94.4753508204363,94.15844235497214,78.43869103469149,63.83588768812589,57.96613247585441,55.35885388625069,49.33888386190695,38.467772381590244,22.62215062258744,2.7190993357536346,-16.958717555001904,-33.69514460231228,-50.23513811898567,-68.07072975887903,-82.5058466180781,-93.15191566484383,-109.43797500513661,-132.62546881665028,-140.06005565413741,-104.0177343883197,-32.8106365363824,31.904252938598407,64.34821318766598,73.13716923398648,77.55231295687304,84.82102982175589,88.29457204261993,82.15261881553721,70.93774280738792,62.221660176846555,57.919728430319026,54.454605112086185,46.78106783760678,32.89533667301256,15.513013726370799,-1.6770218808954072,-16.74721567480537,-30.011216818667926,-44.165229526772244,-58.6985052059544,-71.56783654151994,-85.07470505819882,-106.00673780911544,-130.2251228489247,-128.44396921025532,72.0,103.0,75.0
-30.651545158362982,-48.70817263104282,-64.18523525814422,-76.38288770952462,-85.77280829404081,-99.60676589939598,-124.49689504237438,-148.38533187046178,-140.25235477108902,-81.90045925788542,-2.342036994234546,50.64862891622002,64.65481348286845,65.21939334741083,73.97017295648403,85.61485742580741,87.18642604343398,78.49427129918156,67.78863672872524,61.68122723035533,60.086672143708974,55.635201557929506,44.02009148201302,30.62233695866284,17.884372187655252,0.7227021643199909,-19.916672471700753,-38.18197159649634,-53.9074146101513,-69.04277564908246,-82.11052856734413,-95.7828207720686,-117.91032364660119,-141.37837385218376,-134.68762752083168,-77.71382398321282,-0.1456478015600285,50.187100507100354,63.870436880927556,65.8688455538845,74.80098775594591,86.80661727647802,89.02524341933061,78.30530354266907,64.61358934708923,57.79268206993336,56.03075695507943,51.57906352598327,41.49270429510942,26.676805909606152,9.239668790162606,-7.271123415461729,-20.721307649470077,-33.25810774174788,-48.89865233795591,-65.72587288028308,-78.8182099656148,-91.80733096262594,-112.80443656898736,-130.41577282163493,-113.12736878167277,-51.359558109615975,19.72228388074235,62.39559063228207,74.41830614299427,74.51322990622378,74.45042742458737,74.11418368053928,68.38870131745513,56.79855492305389,47.27067151512067,46.379565825257664,49.52537937985207,45.674006739884284,32.01293501830344,15.233622975096813,-1.9301102948014883,-20.051634221347836,-36.7300229146071,-51.85155446566275,-66.3681358304627,-78.78174985826948,-92.3595659852468,-114.1704711939837,-133.24098360150208,-117.14675905246037,-54.93663053960743,17.522017830392798,60.27167799246531,70.269322814076,68.67943072146292,71.48784389141314,78.82986446272747,81.06760241627559,71.55166878704347,56.389567941778495,47.6296722406399,47.01212201874246,45.13457804000509,33.79693122336397,14.821515405621012,-3.8937688620779953,-18.726971759251242,-33.77866165003201,-52.791007904509314,-70.76166275312868,-81.98389753149651,-92.74205396783279,-113.92022835962712,-135.0534405061823,-120.54370025074714,-56.44950437047117,19.331362212011584,62.53468050098715,70.98191562431018,71.70641013030954,79.42664274385935,86.9283988848244,84.31235511855091,72.00632240933871,59.50588344658408,54.17405101594212,54.25200784512377,51.51421293023368,39.58022587836548,20.98338447730974,2.1741218554484534,-14.862317879696741,-31.68515826279137,-49.25954000638914,-65.66434256883389,-78.34149182604233,-89.53663194948564,-107.0712964995113,-132.4066948952238,-142.76730566737263,-107.03786907635299,-32.34574224160746,34.53831159119169,62.808662206238424,64.92114078016577,68.72679944459374,84.0789449796578,96.51664819523339,90.53551560598844,73.45050064677896,61.32584569049204,57.25201846595486,54.12713627168734,46.67805925701006,34.42370727000369,17.14653083668817,-3.2050657133496134,-22.062451265776595,-38.30935535275682,-55.38123760657032,-72.82544257861613,-85.66150058835646,-96.84743980725489,-115.96901472820774,-137.88420500212487,-134.70097611647407,-85.4658373885978,-11.609222054715662,44.738507971632366,68.4058328232358,74.20635778828219,79.48549183438202,86.63531643682235,87.49410919453771,79.04685879384567,67.94332669350676,60.60937486183636,57.06892361763678,52.847490540605364,43.36661554071922,28.036626353859752,10.418463734325229,-6.305012355170481,-20.647149994069387,-33.93978720268495,-48.44510998774257,-62.60761656192627,-75.13324040550401,-90.11926792664184,-113.52716714061053,-134.03268990241102,-118.6457992270304,-55.450430349500046,17.856447176746155,57.27629505684751,62.223360961005405,61.94070783026544,71.20180641956162,79.99683571570185,76.53829844947302,63.27728992860643,51.651558970132456,48.926495769082585,51.01177944195044,48.139353309225115,35.5189512494005,16.348613371090146,-2.566776461694704,-18.84742131019309,-35.79649796224489,-53.3779719427864,-66.42501128341823,-76.4413166533748,-95.66424670998964,-124.08362102523144,-131.97914858135806,-90.27980039371991,-17.611193329506097,38.34824056785902,59.452236074666715,61.76374465428668,63.03774534898738,68.19761075447578,70.71974802601773,62.97353535844339,49.82804544221375,42.18319221271672,40.65426686731745,37.44211353767481,27.401723304470462,12.152059979816531,-4.405728583508573,-20.9400795510495,-38.06521621148436,-55.1606528334632,-69.88280554837951,-82.7202991242773,-100.29034408790304,-124.00872862608277,-129.42160255109533,-85.82600302160104,-9.647671444530644,49.33465421789238,70.85088644601299,73.34703914488915,79.07236072582937,90.64807932340895,96.12102083704974,89.37231481810653,77.26891924261926,66.89483346876597,59.7520727339044,56.06906502152299,51.56464274579829,72.0,103.0,75.0
35.794393416553,68.28698482126539,74.879349623729,74.34513842109098,74.58274965317372,73.21111055815611,65.40913558420962,53.39610788240232,46.08852956717286,47.3623324401055,49.519643317109754,42.508991528402824,27.20016159861644,10.381884559713091,-7.143723915513684,-25.108737292139878,-41.17212021375263,-56.15549231047121,-70.19856859210218,-82.21270576181635,-97.74095931070224,-121.21859386482019,-133.56903175340574,-103.0645648866485,-32.81213004689804,33.83318980249535,65.75724738396187,70.01000274431489,68.74761348783102,73.47846371760612,80.47515838619731,79.51957910985908,67.17834390701384,52.83157872792338,46.91125664355172,47.09831982563602,42.96010633120537,28.77194007702462,9.072453555985048,-8.51694189580413,-22.766227916849573,-38.918562780170014,-58.47162387477566,-74.6945110789213,-84.54869608861982,-97.62525991372536,-121.36298154434911,-136.08673809479035,-106.28806644354664,-33.304646300945215,36.18764026137408,67.52597299430833,70.82462164040567,73.25732385635277,82.1785102726339,87.42581730797428,81.43360252279439,67.93750134876417,57.13495635971107,53.93057607216834,54.16120631867449,49.07652672111773,34.584105538855376,15.368722006534444,-2.8860485903240036,-19.66348445225445,-36.70982864339777,-54.26884736337055,-69.73959122761029,-81.4536469341941,-93.57763230626318,-114.06937067956514,-138.5407637993559,-137.93035710449348,-87.74647019600536,-10.065680118865636,46.854575121406434,64.79320966533942,64.89987861097559,72.24865370681299,88.9461467067947,96.82536962752674,85.92673315683756,68.98806049396376,59.55955006367079,56.59609610780005,52.49195814140452,43.628664753199395,29.942072451911823,11.389605651224091,-8.977839489451945,-26.90612219457145,-43.02572451347981,-60.6053527850891,-77.12951324276352,-88.61304937714938,-101.31207221273365,-122.91743694833815,-141.01937523454768,-125.15809105600239,-64.69786172096538,7.902401368308822,54.626691523993316,70.96927578552211,75.3484197255519,81.65331528221394,87.87962555077038,85.83778551067915,75.72800252634077,65.31262524623979,59.342889873110174,56.16271326409749,50.77287976745302,39.42972992505368,22.99591143570492,5.407319488636499,-10.713697547346545,-24.44653004128264,-38.00802056568355,-52.69263768101559,-66.34085152343876,-78.87264443589089,-95.98435412020787,-121.00354941442232,-134.6991588579425,-104.45363611336063,-32.87368737427486,33.72662809403196,61.110501087459646,61.46050496895714,63.75653362766047,74.50361681111997,80.44283618293959,73.2607163965379,59.24942334846212,49.91020341657435,49.464515028250126,51.06059142412852,45.489133097121446,30.35378801179172,10.606637600312153,-7.446439768875587,-23.530977603692484,-41.0115099667678,-57.79980121797468,-69.19184782273433,-80.53805753168906,-103.72334869487916,-130.27465777421278,-125.30269587204602,-70.34865236874732,1.9785084126785946,47.67290894238982,61.07493584612839,61.75750156177067,64.24937363912704,69.65606794758472,69.61442882756918,59.185258566352715,46.76501528672941,41.398728738817084,40.25618315839782,35.28008658664049,23.34650363473516,7.374518742668073,-9.163179292426875,-25.811547088295825,-43.097902792720035,-59.74614032556056,-73.59505340096234,-86.94670209942751,-107.0054215834383,-129.18659757602222,-122.32697379645177,-65.0035250066004,10.996367199050871,59.060374211493055,72.30444192525376,74.11858461969202,82.23190120577728,93.40445556114442,95.29682470712594,85.98953180043635,73.96251766409691,64.47750042454523,58.37748671308732,55.223583575590716,48.9359172606846,34.12918572673455,14.930342233358404,-3.2854774593858593,-21.129779612479975,-39.6611365385294,-56.63613723337688,-72.82728646238154,-89.56961898860949,-104.141626138411,-118.96312404677974,-141.12244831502701,-160.76512565912597,-144.91211064234037,-78.0973971563544,3.5065875984167927,53.05200283593696,65.83444927161821,69.08149597614452,82.08655237471753,99.96009420815861,106.9802195497576,97.80254060179035,81.59764026670561,69.74610521292124,64.99172452779811,63.152498093158,57.33268043388284,43.85468476325701,25.209678403775037,5.711726617358666,-11.78018711968363,-26.19899976999894,-39.121448619395856,-53.287303708466304,-68.81913348476036,-81.88396185185623,-89.98945405083762,-99.3534131997363,-119.68545348409822,-144.17268586662735,-138.70583327010158,-78.26649652527804,7.356247358844696,64.20453708092812,77.02183859080598,73.12963830326072,78.32928588417825,88.43329726714755,86.96585252327601,73.78388464525841,63.09178250245797,61.417345595136766,62.67534843832429,59.729988129346665,51.363190676116965,38.94646573378982,22.430301489119593,3.6322037736106108,-14.278526624611658,-29.0380230423764,-39.22556223265504,-47.93781320563954,72.0,103.0,75.0
29.189774400333388,9.878906164013198,-7.810508947119251,-24.496966424972918,-41.802024847899645,-59.09932732226175,-73.45793483247402,-84.56184468583373,-98.39183536778422,-121.60338516385255,-142.57543712433056,-128.58395960651248,-65.95267842758511,10.23388778493488,55.61782311403965,65.28235138787154,65.65305936933382,76.7101663248625,93.0127118344177,95.37407027521635,80.82379275503001,65.2705538155279,58.37377694367381,55.80884585605249,50.43046836658723,40.18947914297845,25.02622920771558,5.46815838117659,-14.506721270433687,-31.572525977023783,-47.916090062760766,-65.76270960717838,-80.92187617313088,-91.64263806447144,-106.67097987910512,-129.72861678119042,-141.18529119462937,-111.54097115598462,-42.88436989577179,24.981046928781662,61.82354626151327,72.57855814833938,76.774394208441,83.85878948253118,88.36238764061532,83.4494346567687,72.41276382341043,63.09922983099411,58.33131340966707,55.06291093638098,48.16875469130281,35.042427777421494,17.876420311861057,0.5216978484286532,-14.892485292325611,-28.23990050037357,-42.20223092078281,-56.83746020726515,-69.93511717512,-82.98970666679836,-102.6809672382823,-127.6738215765688,-131.42850707126996,-86.45603661251708,-10.8189062576893,45.95756929146559,62.573424215742534,61.05254431315329,66.42328213565166,77.35406354593597,79.68148355522624,69.37964731591872,55.66405265082838,48.99700831937608,50.187388876486565,50.45755466727248,41.989323062668554,24.791467187533563,5.054566284391248,-12.128262368553653,-28.38112950873862,-46.19620255869927,-61.693417691215686,-71.88164282626953,-85.77377072896326,-112.28695306845901,-133.72912957767204,-114.0366963634872,-48.884969236065956,19.019984470670863,54.134646170143135,61.69378454253518,61.99543850753555,65.77256879914448,70.64046795074466,67.52704257933489,55.22835633316318,44.39026884246915,41.0009226046014,39.4967961811801,32.49249037301367,18.95222307604029,2.576341521077826,-13.924390392000628,-30.749740541789745,-48.089743949373236,-64.06548614175821,-77.21708981224192,-91.79976847392437,-114.12657934660265,-131.90030826371435,-110.57350169605527,-42.51621016436964,28.977612581386865,65.6673128191745,72.86302597381611,75.57627573325107,85.7132023857293,95.29678024204708,93.4557441147749,82.41933396463159,70.90053272963593,62.33644911886214,57.3000055807989,54.118037531696594,45.51082487813358,28.709225252425654,9.483623210600896,-8.354278867390192,-26.494067749801083,-44.78983210601498,-61.26034463099556,-77.68913475431648,-94.09219335020227,-108.03561163807139,-124.51491271315376,-148.24703744079793,-161.36324085116314,-130.16996338151782,-53.53098364237176,22.29152941910314,59.56115589701678,66.4700001504685,71.62038453603746,87.45107138552846,103.66156122104728,105.79412024863235,93.24046334612049,77.41890139078073,67.73938797787784,64.45224405603508,62.16121899225804,54.21454135436206,38.79049848916332,19.509138524928115,0.36244880966424564,-16.24573068241226,-29.954534457347627,-43.00357179939594,-57.74150167252657,-73.06620067517042,-84.64968257001485,-92.07460530792133,-103.87833809748805,-127.41589950157291,-147.49897912301984,-126.71676692039344,-53.53886021508279,28.478041223713095,71.7211664966448,76.02685938035933,73.3058163297196,81.55259929515049,89.64880783109314,83.81566029431052,69.84895523040471,61.798347430558614,61.874588246274776,62.430320851714264,57.7928287231604,48.17861080731941,34.582720663716785,17.077328134386438,-1.7391391419220847,-18.97081652242393,-32.42404476672379,-41.62725128031508,-51.06172216385926,-65.32988681575189,-81.39831452263472,-96.52542084976149,-116.07667347880901,-131.84739241999358,-111.79610360817853,-44.573233791797335,30.76562225929244,69.87137906347054,70.78311533239166,62.509156578887485,64.37501667776232,68.87814589650093,62.87474479035178,51.669550055745226,47.12164538543315,48.05703773512148,47.47293971063607,41.93252259976349,28.796377033398993,10.447899044277014,-5.7999540843843915,-18.68964834809083,-32.87193427860909,-49.1765306723139,-64.29777557108989,-75.22359883606698,-84.07746159924642,-99.15666474923573,-120.81890332883596,-124.85157051634116,-81.20190533697527,-3.3872904407180027,58.453475091382494,79.2599180247424,76.77978145009261,76.06702547388868,82.36068982373504,85.48495310466046,79.88200582081018,70.58558666545481,61.47986680732669,54.495687367043764,52.32951961615441,50.177590701163965,38.109255293963145,16.85540004413888,-2.9830589664491955,-17.41866499532797,-30.12186326542215,-45.177247395177666,-63.13433881136646,-80.18981509669187,-92.91816845679507,-104.58646169782232,-123.78788930783372,-144.76835061105118,-135.71965277828815,-77.90440102575941,-0.16193739766263598,54.227798771754216,73.39497357857537,72.0,103.0,75.0
-123.72774626758357,-65.64545450912686,9.426354237091015,54.500738564040084,62.51985961596978,61.43582737761023,69.64053885031558,79.39955498239348,77.76711706158859,65.2091347593055,52.73745182260216,48.8132461342989,50.821913931063975,49.06736149021241,37.71625899431161,19.02449427528059,-0.22843515746757437,-16.72370101900505,-33.419950426237854,-51.1878547194947,-65.04196296133713,-74.86083243886841,-92.26764549496296,-120.59684792013871,-133.51312700935713,-98.58926810016436,-27.26649287271125,32.99242546159563,58.216581194427285,61.787054027689734,62.61218123999118,67.44087676808337,70.89941570199177,64.56970284286247,51.438077909220695,42.727949141803464,40.76905256778197,38.226907465052335,29.126410471350606,14.330661466988486,-2.207613293198323,-18.715020556999363,-35.747387442204385,-52.96948394984322,-68.10606079030889,-80.9236902430919,-97.42660593195754,-121.07928035668064,-131.15646467821762,-94.4891944789615,-19.80759814459555,43.707135774282435,69.6871472006876,73.15595458538795,77.80392471461339,89.1675187410962,96.12370081356254,90.8008271052448,78.86329222210591,68.09852589976899,60.494382394978295,56.435648568470555,52.52086933035689,41.3295946909233,23.108472632067706,4.201649972960473,-13.469983076470136,-31.892269006527886,-49.72449487462959,-65.89751750768083,-82.58264256793476,-98.34054259567107,-112.12356789193326,-130.84308880230301,-154.6395895279741,-158.0228766633862,-111.24258697200099,-29.116928049208237,37.4964471751161,63.4005503003363,67.09463007427355,75.21870541458229,92.87314378816859,106.0774353140536,103.29439862076319,88.42581190532076,73.82470013343648,66.2976901042782,64.00978829699928,60.65996307597461,50.430268808261474,33.408051084630834,13.82992044430788,-4.762157006356488,-20.449139649268254,-33.6534769930915,-47.051314276851976,-62.2735437368135,-76.97553356944775,-86.99539259718884,-94.51925958686725,-109.54197472773174,-135.05789289055403,-147.23830305628766,-109.90093320866372,-28.055401152181936,45.98602593905506,75.7557664235534,74.56671315720507,74.62935681053415,84.772432868722,89.53879643901722,79.92557513543315,66.51208412158809,61.25212363921005,62.3514731789361,61.703422526236196,55.43993827724412,44.675747489485026,29.865771818216412,11.617578077971052,-6.9731100031197935,-23.342457351220375,-35.41401150297,-44.041475440780474,-54.657824131293324,-70.07010329388045,-85.7091219296372,-101.54250226393523,-122.18231580549609,-131.16124061004413,-96.30803091427303,-21.176739947912047,46.81344975971467,73.00684977424638,67.99680219563763,61.879498920818975,66.19338783481852,68.38081716488388,59.5242107657278,49.4365740215119,47.17980064123184,48.24867739545509,46.50619408496958,38.974552843031574,23.712719115160922,5.289033920276268,-9.682046610316265,-22.493693161196877,-37.47806168957406,-53.83569175378648,-67.94325953561751,-77.68449328587165,-87.4435055720743,-105.28487184868128,-125.44746186346899,-117.68114024306348,-60.20428726837035,18.17000738450594,68.48827100454174,79.60866132405629,75.7123565127664,77.48474814161827,84.08351056085333,84.65511650009633,77.29654202114077,67.88488411732637,59.08828054408256,53.377631605318236,52.17486274885375,47.99389757368371,32.478751962842566,10.582695525236767,-7.616441925155609,-21.05213815681716,-34.112235396656104,-50.174701374928304,-68.37424662708227,-84.33320461443483,-96.0344834200994,-109.08903874721976,-130.7175001549863,-146.82904904835175,-123.62259611154589,-55.32196288036704,19.260721914067414,62.919842282189386,74.64420479561299,75.08095787323849,78.38269263233673,83.73444231810952,83.01242436578349,73.52332645825513,62.80037367535819,58.62072149894039,58.88166287028708,56.26490638614828,47.78904726479708,32.72337434996346,12.595921646398446,-6.5988504785236834,-20.965432545608728,-32.33407377524408,-43.35715970945615,-55.24715789111634,-68.57418188643244,-81.71802600093434,-95.09100493951084,-115.24006884561751,-137.8767693042024,-131.3458543905406,-72.84268705448476,6.135072275111065,57.3718727562631,72.21140114027361,72.49051659955109,75.76893088518288,81.95968760102019,82.12298616944658,72.18459270711057,59.95256758084246,55.52272841751817,55.99485316173296,52.6353174772327,44.514706463137024,32.998064741814886,17.979489630717257,2.319168002230604,-10.69830494688663,-22.318905548474323,-34.218190565906,-46.597987302014864,-59.47646650595099,-72.29353405237673,-86.3414077817856,-105.54295501382616,-125.11970155777212,-119.59178502793485,-67.0928011228888,9.236774905273947,62.122358333431436,75.93716797858627,71.68965403988126,70.42021209912771,72.5809929525652,67.7803093142725,54.94496385168483,43.1347373609696,38.84035782665092,39.520391169491134,72.0,103.0,75.0
50.24561158612151,36.51499843277729,17.49114671875744,-0.9425592037543696,-18.686580327390534,-37.237934501514744,-54.484406355846446,-70.61600975464259,-87.4032108724304,-102.34612727788544,-116.65870656040327,-137.79947312814912,-159.3961920756118,-150.1452973805923,-89.0692446959528,-6.219942033006307,48.96972994593102,65.34757093114341,68.2573985645806,79.75334090409355,97.89741104828802,107.0401136302449,99.72441084278306,83.68327754596893,70.8817259808433,65.3205580665795,63.47900395444451,58.53810834440085,46.048473538287496,27.82355830103534,8.240893916058223,-9.628656010115925,-24.426302055010584,-37.376515754779206,-51.28000243948002,-66.78231896301556,-80.44676966051077,-89.06757826995602,-97.62371954867244,-116.28396268843133,-141.71891673338618,-142.53077275481058,-88.98299855458968,-3.3662233940561266,59.41295163862869,77.0770080898767,73.40507970415156,76.98266366300018,87.48123890724152,88.0677687294317,75.71500063776836,63.9718200424403,61.274928745992085,62.64669196963085,60.46742264354624,52.72546023618695,40.83606722809349,24.83589924708161,6.141265247056777,-12.024534012956064,-27.335622545359247,-38.07749753304896,-46.636766972860265,-58.72727392204094,-74.78824946326212,-89.9691346903791,-107.12673323842041,-127.47736731480421,-126.53857377251201,-77.09884831533776,1.5055076083401764,59.02337918311707,73.40514292823221,65.26885171399265,62.31229242996789,67.79492379878046,66.80116463864239,56.085903070845774,47.976284118088145,47.511141778001985,48.17634564508423,45.06575306730109,35.31455005151766,18.344563106057322,0.48848659584467136,-13.361852603564252,-26.526163208431967,-42.21416884814687,-58.30097506476901,-71.17637395435142,-80.1069459970401,-91.57277012336678,-111.81105012312753,-127.71420718073217,-105.94776773751596,-37.30312030762952,37.06821030875669,74.99358502744181,78.75253546340258,75.2830168928525,79.37813259589507,85.22154509261738,83.10133003259182,74.58326360644638,65.22906951033994,56.9489907801518,52.71322511152771,51.787401422184736,44.74991429345738,26.276097752074932,4.700956999763635,-11.820247668896716,-24.662923070522414,-38.38345177945995,-55.37792668323186,-73.41273751879255,-88.0644536210114,-99.22935113215398,-114.4637732081183,-137.37411097470547,-145.39379245341033,-107.40039866819379,-32.24737334898423,35.81860780708823,68.79839210566067,75.01632078995442,75.52203800930863,80.04771060452933,84.47238304804713,80.99270571453012,70.08621852722744,60.79756415702193,58.58194293930332,58.65372527315101,54.45207306076061,44.13422921480244,27.21951327929137,6.668979601951037,-11.249930013187296,-24.405833755753132,-35.488640976699095,-46.65513659061393,-58.9788049336193,-72.48665241659096,-85.3479414475201,-99.9402162268521,-122.46352219855345,-140.74156907640892,-119.47325427140674,-49.618587075559745,25.084602452858007,64.6874331176191,72.69257060170753,72.82709994889899,77.60829389739997,83.00527940113415,80.16370217217853,68.31313212071605,57.70011991579378,55.61211492599466,55.62001911068605,50.67120882002316,41.548689823684185,28.97278762193699,13.312478495725854,-1.7375928155585794,-14.082612777526094,-25.710622836201864,-37.73905849517609,-50.28391670896473,-63.20178346434081,-76.06272043060297,-91.2426311833635,-111.90318019962872,-127.57804627964155,-109.23778894334534,-45.3092559698021,28.540208107230168,69.61303202401825,75.3288024165515,70.5862354429882,71.1479160040237,72.24202067935421,64.58544050776814,50.98818960058395,41.06939061219002,38.82368357709573,39.59035882470424,35.69665839351179,23.179903463258295,6.211426688834307,-8.654172348085554,-21.741749150575856,-36.33190820543598,-50.91241340217479,-61.37107291774714,-67.95119502469426,-77.10288728273822,-95.84517807425306,-116.70290792499722,-109.364028360816,-54.418901490249425,19.256699762313037,66.88289008155061,77.96497248622155,72.49021838870439,70.63129696760282,74.82358026746383,73.75565102076266,63.536686141958654,53.426746261285565,50.291730498977564,49.57762220386316,43.97139296788074,32.75326189060793,17.505928727436235,-2.172744749419798,-23.576513271802206,-41.49221114038278,-55.74056490428324,-68.79265721935619,-80.93838375452835,-95.13570682252644,-116.84156110865528,-137.68842347295512,-127.11420074230004,-67.54839488747287,9.922398559678573,58.293561081103526,68.22755497631609,66.95558834041718,76.60997481215894,91.24347551538241,93.22453054113416,79.02059360936386,60.92865801504023,50.62214284020031,48.797869390682905,48.225450642734906,43.10158668004996,31.38513579601745,15.134105283551483,-2.66264289433131,-20.463136173590456,-37.226598454506686,-52.1152868608641,-65.20008072174706,-76.90704714041192,-91.10961637243456,-114.2659642033284,72.0,103.0,75.0
-49.566056047180794,-63.18480972761083,-79.35699011520441,-94.37897439406717,-113.19645268225062,-131.05145532666552,-117.49160847260116,-55.20939477860503,22.192354760703438,67.30865994475205,71.88875799677257,63.16419418068787,63.59653527477362,68.74791776893133,64.27905982194143,52.93784136080028,47.24844778633402,47.904141275251014,47.77933404606775,43.0662762779088,30.987884169176404,12.913707424441986,-3.9047628436498827,-16.99213621357449,-30.81407041080502,-46.98873995367741,-62.48494924562605,-74.02063224437879,-82.73004295529739,-96.5677194541352,-118.1616699591073,-126.67034267199834,-89.88552326956534,-13.926703379703413,52.56320656226621,78.48094669827796,77.40168403784465,75.63932517075433,81.44316455816585,85.59357183624408,80.99002957216565,71.84292820662985,62.639039481691036,55.16981731636216,52.40276387917515,50.86306787282557,40.432104787613405,19.82545092802414,-0.6795816650644569,-15.703066396257158,-28.360747867663544,-42.96350281045241,-60.685335038883835,-78.13909601402273,-91.44491202165705,-102.76582692196007,-120.69141865891727,-142.88546576772592,-139.7990796925956,-87.7967443623476,-9.910054667584326,49.17054868903042,72.36708654651453,75.00741718242297,76.39523582207873,81.73083223496252,84.4865843101603,78.28369854857834,66.81375614689053,59.46773413420678,58.74271531715681,58.02456209782812,52.130592346591186,39.9041837351929,21.379726089992502,0.9972586638988908,-15.464366732918,-27.685094992598184,-38.65714005908376,-50.05149673912539,-62.832030714462874,-76.31559068298058,-89.06805317722133,-105.58034084094697,-129.54819500592816,-140.12228252279465,-103.09676362836248,-26.04892103740818,40.760071489595354,69.23440261348433,72.61812917431976,73.6702413528763,79.53039806976253,83.30358974396583,77.36313059886173,64.56438688504653,56.27862326776027,55.87208830603859,54.75919547656835,48.37356441837424,38.30121574024142,24.656129059789773,8.70950956071583,-5.530459033709351,-17.422982794896125,-29.140828717875326,-41.302650981569585,-54.00882392522978,-66.89951025089242,-80.00650165603405,-96.69103206500337,-118.01367941850025,-127.09043563814544,-94.68586270064944,-22.65091879249579,44.78150537147567,73.95705766905805,73.9359871417084,70.08192971322745,71.95028476173995,71.06849455827758,60.8474786114966,47.38426460446263,39.7088370241351,39.07613979028061,39.24885595243848,32.93603922915871,18.38629922215846,1.5533035398743653,-12.432044668624238,-25.7579805466593,-40.740588033080975,-54.4759433272539,-63.4854039157055,-69.93977723887934,-81.42280737110829,-102.64614057283116,-119.04524875276145,-98.04118219178515,-32.79900156920567,36.99900686733842,73.26581543766092,76.96644513145749,71.0759130255207,71.61763263391033,75.54463740598001,71.48000071570245,60.107585223386415,51.8058709676983,50.235831739671944,48.62640002894224,41.20333705419829,28.761946546491593,12.267536959556482,-8.43562735704724,-29.250477533325242,-45.84905942973114,-59.59492630579822,-72.37163914432813,-84.55525950458033,-100.5489584025825,-123.99977280913299,-139.37061412366964,-114.49970350828875,-44.645572429163046,28.265681116262755,64.29253891181406,67.56892398730915,68.37179514206292,81.15004934019778,93.67993127328589,90.40931850358626,73.53226941583607,56.87650303239034,49.49308013601915,48.82746368548545,47.383530054562726,40.36561554266767,27.005578694826152,10.053832370635531,-7.843866684849915,-25.469578660747807,-41.725004163107485,-56.07725317744341,-68.6616931380451,-80.43482257780234,-96.74713511259519,-122.34071369131132,-144.67725468579542,-134.11558112100442,-77.55345712349313,-4.144109946454669,46.08162705158479,64.11207105833346,67.59140884748722,73.77089056390349,85.07311927875642,91.89190616702228,85.9188941165043,71.76518404720706,61.89270534814439,59.97012163693755,59.41695335296275,53.62184169120583,41.04950461533306,24.155229511511564,5.68855815731289,-10.651519490018782,-22.454730194363,-33.85794200649044,-51.288736407131736,-72.6118126310559,-89.60037885827074,-99.6008210715017,-109.9980749549143,-129.95028874890238,-144.05947060301634,-115.5389629205979,-42.44626872069426,28.15619865953421,59.95879668370078,62.97856873773917,65.82112845384192,78.69347318684903,89.25427043021558,85.10354789408952,71.81746982530315,63.25089867717838,61.51285531530229,59.60754316530556,53.67043221795507,43.48644021244477,29.732178220342067,13.639965318078145,-3.131431456028254,-18.21887404073247,-31.8890041196785,-46.55914896833317,-61.20398183619607,-72.87049367375919,-83.80267668185179,-100.37179975397655,-119.78748536202971,-121.74112907150344,-84.74155979936214,-18.4625049346312,38.70699321706219,63.2006137778873,66.37698791474946,68.52143351880972,72.0,103.0,75.0
