-6.757151564437279,-249.17920206538747,-292.7399623065668,-208.06409362273746,-141.53798994406299,-116.81233329640492,-96.79370814664206,-72.54119590250004,-53.224440881154116,-41.454976417243564,-35.56239070821767,-33.26057834334282,-31.276602340813245,-27.404369200598698,-22.927360845939752,-22.262462421509625,-26.380745337749538,-31.472100967094434,-36.768788011007324,-44.162626199652756,-52.853622211089885,-63.269922009158954,-77.64340497048873,-88.9684170200735,-81.29486044585273,-47.23950838786304,-0.05826963225040349,38.92371722111267,62.97206593328782,80.39359599425478,96.2880147336786,106.75718513028181,106.93928205862437,98.67185577290356,88.71913037494163,80.84465991408047,73.9885357888744,66.04451555069843,55.87782043158508,41.354754665128134,23.026123305274496,6.794593289203428,-4.967369286387197,-16.74755370641997,-34.98421134642762,-60.30709050949592,-87.2748957576465,-103.57021895758467,-92.17952831470679,-54.42877292061551,-15.29688707591967,10.66216252818971,29.641367923610986,46.1480880531298,55.95492723114881,56.58532436741064,51.729715528784816,47.064493226584126,42.379924806384345,33.513847768620025,23.455589422972494,16.582248112442887,9.546257542682586,-0.22068965290580778,-11.637187233405507,-24.357744196043978,-38.00155471443171,-50.670504904066306,-62.77904357572666,-77.34554484761652,-95.9259791288925,-107.04083273895611,-89.4710145765169,-47.26379629109439,-8.549737803941563,15.088035024308937,32.80870620733956,50.438249343872386,62.84404559424862,63.37630033566652,54.70824087888687,46.04053090808937,42.25028337350347,41.01134180918021,39.03753085991609,34.388280127900366,25.759886595583982,14.555116510748809,2.1066020388788202,-10.355435556505432,-21.225007396337247,-32.590966188004806,-46.40397861696037,-61.44499558225737,-78.88185128305729,-94.81077318014692,-92.19550393980785,-61.57639319396969,-19.535908123559743,12.560017371954974,32.5510895073986,48.113587514184836,60.15077198396979,65.85009897115971,65.63571183740123,61.46794357577389,53.65629553814066,43.994191744860125,38.00098865754491,36.94201390675725,34.55557035408469,24.301113056332678,9.384486795543552,-2.3680482575433213,-10.17738978301626,-18.208956597996096,-30.108518400528137,-46.126302164735485,-62.79606574953905,-79.22745759780777,-96.34680548775395,-103.21472519687423,-83.14980989957829,-42.06423742189321,-4.550586987582541,19.478988668129393,37.12096632067344,51.213246300403775,58.241932895284194,57.957522879366934,54.336913533369156,50.47246162308066,45.169099790347765,37.42933355259075,31.292441428321403,28.7662813763233,24.457599096595494,15.61188584309182,6.723338836805291,-0.7500673519714192,-11.386300757582092,-26.206760485055383,-39.528611482671714,-48.76381628385071,-60.27106719672456,-78.97294964472292,-96.14001838869092,-92.52054743699281,-59.96629235665838,-14.858089756167706,20.77883403508127,40.54101806014927,50.815097103597246,56.9801641360119,59.40579727066676,58.342042040596034,54.6471012128527,48.172230770077746,39.64593452251286,32.29040763294216,29.725889342530646,30.44746230890695,28.138849305612904,19.38074448964447,6.687847637365666,-6.5725590673916505,-18.992530435956326,-29.42414647637053,-40.410025639833755,-57.57123894402671,-80.58633142609528,-95.87571944247708,-82.98323287020203,-41.87723116027039,0.6682813158928876,26.004350050956855,38.920622893691785,46.79425982678975,48.47155727306665,43.40033802273869,35.06445638238361,28.294602673597534,25.548118761615555,24.874915879340968,23.430908137899728,19.487230310507,12.058198173336969,1.703524916019378,-8.929076892579078,-18.39807980029039,-28.48887744743917,-40.44911165529477,-52.498916934833126,-66.58252714153112,-85.88316210579032,-103.14760111107314,-99.86120900522903,-65.59332402533863,-15.713140416743308,24.896693929050233,47.69401191607398,60.1702918690959,70.23625408161648,77.1031911193896,75.6741733315087,67.60799177553886,60.17452856910184,55.73189196914264,49.8974220914888,43.02212374332639,37.74456130916211,29.49259759929414,15.810614996608741,-0.2501085790737715,-16.643259577154605,-31.096275916102663,-42.594029264579,-53.14937624688423,-65.77314021316134,-84.56869262981078,-105.73002373692067,-108.30352049693552,-76.86072365758145,-28.16053613380666,10.791061264200712,34.558888790964744,50.89861485510819,60.554864968963855,62.65427509656613,60.98471010603844,56.48631532491714,50.12408262219283,44.90326063641257,40.03285845139939,32.35582506005295,23.763576726366303,17.000745356885492,8.670915179494465,-3.721015182548158,-16.40577837732456,-27.843381010460362,-40.41344914243151,-54.45481831316949,-71.07415833757858,-91.99750903979304,-107.96867990604478,-98.79875091924364,-58.99616373724576,-11.26201223213501,22.13638234082964,74.0,95.0,59.0
6.981754247855513,-3.39874129866359,-15.162815732969799,-28.277922783472437,-41.82384868711618,-54.11345084943666,-66.58337736899134,-82.43061775077922,-100.9081302655111,-105.49020626355018,-78.66467399114528,-34.63265652349712,-0.39527850554629185,20.331986981944777,37.97249982607257,54.94675003487429,64.318527306266,61.43731137601993,51.829491128385285,44.451447765109904,41.81203126505932,40.6089943428127,38.057691161133235,32.2917610229771,22.693437232476292,11.06195146239876,-1.59295541456359,-13.652081710574548,-24.291686401934605,-36.37032817681632,-50.63766441956583,-66.16375557753693,-84.20135707534308,-96.81200791055042,-85.94720335732409,-49.435166087252185,-8.73544325643852,19.222232360670194,37.286415846061914,52.10166329807021,62.504265080564146,66.29665112306478,64.78962722079606,59.58961747379798,50.845300395901326,41.66270073014969,37.36081428079588,36.76766758166506,32.49129703707769,20.073612565447757,5.459632093585206,-4.872537985392243,-12.280249530583676,-21.147545454087247,-34.429889527680174,-51.02988538234347,-67.45613592140467,-84.26512931708533,-100.25120297969588,-100.53909493236135,-72.41104074523379,-29.927213386737208,3.586238403774188,24.90364436851428,41.68441105143794,54.097584421546784,58.774095650117346,57.05580226890466,53.216112149656276,49.214157168339966,43.08517775222401,35.26097508062249,30.329570746874737,27.992401724274607,22.247165553139393,12.827944422078339,4.568593493815592,-3.2969109946957142,-15.413427172184686,-30.493768004156955,-42.469403476445706,-51.472749690389854,-65.008392273414,-84.87178523815624,-98.03098251126039,-85.77647216302931,-47.09468787379086,-2.940223930682435,27.954012474015936,44.13328173418307,52.942459933145244,58.088371319405866,59.40690877166449,57.5354454952532,53.071518997643814,45.82467027741617,37.20584012787251,30.981691419052645,29.847148233989202,30.35713742759001,26.253757701963007,15.922716745998015,2.8381831431150286,-10.311926446774097,-22.207578393554343,-32.29190875065673,-44.545456642491274,-63.94215350991734,-86.74395711682536,-95.69700607782413,-73.11036304316491,-28.422317450748864,9.871382967942576,30.52524739870949,41.64927082358093,48.036962901123864,47.59583122519128,41.11998389563889,32.749215645511114,27.110614382560797,25.28339940720258,24.63312648445538,22.602536562658084,17.72210225613244,9.271081573872735,-1.4594123388191398,-11.763069615149563,-21.120529983097335,-31.81843073648258,-43.955334433147215,-56.13933322970752,-71.6654622359727,-91.7737242637488,-105.16869339996458,-92.95504200145069,-51.58143310099182,-2.224783683585313,33.15522210241748,51.89321760299939,63.17622735436596,72.79900708329181,77.65669110406041,73.72564670654995,65.11141357545475,58.730958120328665,54.34850972015061,47.80716112504683,41.415362351625824,35.93349132940279,25.993056540767064,11.29032963470668,-5.028708255579658,-21.128143365551512,-34.672065299974214,-45.62104471387103,-56.41387083538408,-70.43631505518641,-91.08554322793606,-109.51968821779812,-102.60602309784174,-63.168298828026415,-15.167859372322779,18.88850761970906,39.81457113143452,54.52652634878416,61.7944219508878,62.432480774509216,60.002178484191916,54.69868010710266,48.42278734858884,43.62761673788194,38.145752372599645,29.75936852931651,21.661734163522382,14.992724049636022,5.414757289785505,-7.547750111846061,-19.743276714943285,-31.291395727818102,-44.33596635838504,-58.854988171393465,-76.77016030007819,-97.950029788235,-108.70186771163037,-89.8584244959038,-44.68756173027981,0.28206670597137107,28.58087348623947,44.1348861955993,55.59647752856054,64.25906339667006,66.5091032634244,61.896842433092445,53.64421982301648,47.73529049461861,45.46177124028752,40.927179448679716,33.185919386398965,25.445859296324464,17.265656309089273,6.152423009760053,-8.239719158625595,-22.681726240246306,-35.17345746646976,-49.26077738573199,-67.68836523552379,-88.44361417043307,-103.94745047329901,-99.02735765305452,-65.14411128474765,-18.848574275545257,17.153117595150352,38.94239912632204,51.93299744891431,59.072002738223325,62.04500859431515,59.02260911648813,48.47287663996808,37.76635923151124,35.1407532613172,37.07686448275783,34.323714469771446,24.52199822601536,12.30353771907938,1.2005436496266293,-7.723151457448838,-15.55537784753108,-26.755388610496446,-41.4650062097762,-56.0272738623377,-73.7627289568366,-96.80057238138582,-108.64285713448933,-86.38826346164208,-36.37130371272089,8.984749386751915,33.12396902857269,46.238236220544266,58.301775377586026,66.70720256751098,66.67925718810132,58.12544826574594,48.42452287536131,44.06285381126204,40.88557948385691,35.001074171546826,29.608924047725882,25.28351393655465,17.016727634369612,4.665727733660207,74.0,95.0,59.0
10.629738094141613,30.025612148968168,45.907323256704686,56.29350095186402,58.75301048440066,55.99225787443633,52.118410844017674,47.75757878631509,40.81944763379175,33.37405607388089,29.637627315024982,26.88090828027739,19.684156338267368,10.193712706108784,2.4807367659733766,-6.25009688962052,-19.72943360396457,-34.471496060926576,-45.0986019737318,-54.60117447304791,-70.38548879409757,-90.26598888866127,-97.66772551111698,-76.6513842279878,-33.79494050213264,7.735881197883,33.8420049832649,47.14779600718954,54.7938319130161,58.86291030640348,59.14313270623518,56.52243001715352,51.25051008981685,43.34410694271035,34.968901044578736,30.14756072789803,30.127192651517557,29.84579010350591,23.806985380812545,12.2488760165979,-1.006580046817565,-13.950862423227361,-25.23184974098377,-35.32821641782156,-49.338280686465474,-70.69572248118351,-91.77579267088238,-92.66937192068482,-61.23518898835845,-15.656740488542688,17.453370248370554,34.29715237541633,44.042123234287146,48.67421863840483,46.19663283529103,38.6743830087924,30.69018671079248,26.27277794469923,25.11195237744112,24.26826790228682,21.53389878821514,15.644463761741793,6.28033898058243,-4.569718362341356,-14.492678073597233,-23.974623308881775,-35.28764451214843,-47.4180053301485,-60.068178191113056,-77.2255191092542,-97.17382041018558,-104.9423339029405,-83.41656327159765,-36.904936109006464,9.942549780693259,39.94477084876902,55.50105585529271,66.11377572974818,74.97330128720564,77.4060222923322,71.36471324915573,62.859862901092775,57.492740136460455,52.7150663239897,45.744558936161134,39.948708476482345,33.69431629372294,22.073777678599438,6.655298845451697,-9.803512830084596,-25.379051728701164,-38.01278393744628,-48.63601267044297,-59.92965547465366,-75.73750898632349,-97.55012856343582,-111.07901814438628,-93.93182554381106,-48.790133541660346,-3.532030403299231,25.8564636629473,44.63810236314176,57.500768538812295,62.45450996684977,61.99580236674272,58.756757112803655,52.821772095048026,46.88659745790213,42.29890665918263,35.961931270980514,27.2065703601213,19.73049917653148,12.705753418765626,1.8336233929023926,-11.266880078628075,-23.011338501344564,-34.89256485837209,-48.35882055445249,-63.53843728080048,-82.84702606055066,-103.09286716055765,-106.79346420956323,-78.52562419269262,-30.49592878616492,10.280564986416685,33.93755389795871,47.63310817357331,58.538805627312875,65.68256390643846,65.79240441034169,59.660174936805575,51.441488632362706,46.92665329069702,44.59640879587576,38.86468108085749,30.87571054804316,23.247506544968783,14.433047557368926,2.2516292023725466,-12.599098883993113,-26.412141361058996,-38.875088848379306,-54.14112936226087,-73.64731730476828,-94.00854041335631,-105.36558591899981,-91.96635794239366,-51.82500302464303,-6.825866707455999,24.668741531937137,43.417171201558446,54.50449744991288,60.34334102320561,61.965882998137715,56.60457549792973,44.892247434888674,36.08244890671783,35.663653162259116,37.0634053364518,32.07106468284372,21.012457006591337,8.912952229136605,-1.6240959681680067,-9.933009452514968,-18.274668156544397,-30.846004385860425,-45.70890530460394,-60.524577743437426,-80.17754351119002,-102.5790283698187,-106.22058673243181,-73.51425430252333,-21.434201945786523,18.015663607753993,37.354661546863206,49.769795215863915,61.372315569397166,67.68422288947292,64.90518822480973,54.98101907393923,46.62801958036044,43.338003208789004,39.41314797558026,33.209029954488265,28.445715021951838,23.46971822203184,13.682189649064767,0.9448260513534688,-11.70881113774679,-25.321250378138128,-40.36935419791343,-54.78653750597034,-69.01035209494842,-87.43894025865364,-104.63806737125996,-98.40914842996264,-58.83909210069979,-9.57265378912631,23.471735093401662,41.40852245723065,55.64186327680271,64.84010446123857,62.8359019992255,53.94224393008047,47.00636644727937,45.363621482327275,45.34512158312964,41.780119412373445,32.598141283996924,21.71002280648074,13.054761655850234,3.9202166607732662,-8.12861468804457,-21.462336755061127,-34.457166856078686,-47.8366394154359,-64.23786958008188,-85.53329519177028,-103.68072684039606,-99.59941993310167,-64.12348937629496,-16.548349904569857,18.74219762548303,41.02595867144834,57.62221040590899,65.67553624742331,62.9886232119345,55.2996327845986,48.69054248820861,44.99959587347654,41.42894897256093,35.34828603743378,29.61897398969294,25.211627880621865,17.504928996918416,4.466066327182758,-10.286172767551161,-23.197098524252223,-35.70326735038371,-49.31230148243507,-60.7313562008276,-73.2594608652856,-96.66734816474491,-119.48241630413231,-109.64491313407355,-60.97975532505165,-7.794743038138869,24.47703153954542,45.19992271264809,64.66045119228177,74.0,95.0,59.0
3.16195626277066,-7.58116999585272,-17.165622100237986,-27.01700286347953,-38.81987168425494,-50.879112949228514,-64.41345818412479,-83.11978578188592,-101.59022933555639,-102.10538676809735,-71.63158180773378,-22.26945690762875,20.553165215932648,45.48652735563778,58.74617245478236,68.96916485741572,76.58862054055169,76.38081197492122,68.80066500457463,60.94172775535228,56.30604943238774,50.83081950751419,43.83281915820384,38.476144099054785,30.940397844486572,17.84007683316216,1.9420569938272998,-14.513570115580512,-29.357229958025766,-41.176448119928374,-51.701183754301994,-63.818253669734574,-81.66284290722605,-103.41068257222106,-109.87985354452701,-82.71210051817528,-34.51725302936977,6.609487908036625,31.964425247119376,49.03430762055186,59.75736541560124,62.66941687745465,61.35472892412078,57.254546258191944,50.95563876546773,45.503859102962394,40.804361562558626,33.53195993607647,24.803383867143747,17.8712576260711,10.039519810628317,-1.9486283647962162,-14.822665675671155,-26.298657877369816,-38.64161884510758,-52.49651879211848,-68.59682765678365,-89.12148016896847,-106.85780132253629,-101.99433577940678,-65.42439200122375,-17.063527563298912,18.73039889773409,38.47183218523727,50.9652986874259,61.18220638375703,66.4812457822617,64.54060351474949,57.22198116035496,49.61201992824076,46.33723011265563,43.37998540761685,36.6076064731679,28.633699205790602,20.950799740631744,11.301204636257447,-1.9016503504846003,-16.84327091656427,-29.990109958839618,-42.83766654640088,-59.40609883348996,-79.71418747935742,-98.88552798020926,-104.62485703195377,-82.46958521416319,-38.140810491682544,3.90905022273508,31.110168505585996,47.278855321390886,56.63457142236908,61.303220271583356,61.28060562789843,53.57870452145654,41.583043268639244,35.198701814020026,36.34688998184412,36.44568678016427,29.278731488308846,17.443239406489333,5.660725914608669,-4.2449464783205935,-12.118176076527202,-21.406656435081878,-35.13503595228024,-49.87424862968544,-65.46887188292257,-86.98772674049091,-106.78050395378287,-100.48258821051607,-58.90422759179004,-7.7618008621771,25.21166043080698,41.08545595931198,53.31406882682747,63.984820043914574,67.87050755341566,62.469653678733096,52.01130986067771,45.33626315222952,42.517104584584914,37.70081925046634,31.589573077897835,27.293343477745243,21.19120580727755,10.097140061243339,-2.7312542290028903,-15.45933684954389,-29.592364922110924,-44.68273979363281,-58.74368558120039,-73.77864421425211,-93.31468912840332,-106.28262626288723,-89.90372034080322,-44.07566663369081,2.1165629393768635,29.606604962314933,45.66037098894871,59.19261763225795,65.44776613796667,60.55078799095695,51.43861662940252,46.04763327073506,45.44803569521129,44.85625762102192,39.65341828004548,29.341361721616614,18.997317590525785,10.659579277100143,0.7176957762563345,-11.959689405513032,-25.26237171630664,-38.19926989785651,-52.112322387195334,-69.96496441431951,-91.83364955615225,-105.6405742099775,-92.24572429799684,-50.25583872932762,-4.577919569649577,26.0643366044263,46.35248001243176,61.08712964774109,65.85379286077361,60.94724473244447,53.111168178528295,47.36507094922282,44.15929371478879,39.88758026534488,33.48334698227456,28.358453312021584,23.537217062598796,14.203223538278245,0.15347341406899268,-14.238342428490379,-26.699221930054957,-39.612123324762756,-52.956325260730004,-63.73686898809511,-78.77427019003625,-104.65864485976766,-121.1878199459399,-98.54989124980392,-44.26762076460897,3.760633653763324,30.85077400358785,51.02451016920176,69.2656431586652,77.72720638869896,76.37132292567648,71.22492021164351,65.97217347097352,61.64234737827357,55.16901344617817,44.48187545000546,32.790127544385975,23.74260974505327,17.12552989408492,9.817204727695067,-2.78561317479155,-20.126809113266397,-36.05702904963841,-50.093262482597204,-68.0770290511384,-92.68905248436589,-115.56479091626002,-117.291609421165,-83.71106042731329,-30.80308289488643,11.296609018641892,34.92276745145401,50.72296342550964,64.85647596552273,74.16093718425296,75.1686348221677,67.7948326930095,56.34565239308376,46.60159997309917,40.046217374771324,35.20278605381324,27.993241358613865,14.489660288990182,-1.5563100502369218,-15.423751345604298,-29.051460159724822,-44.34018873171022,-59.957364859048624,-77.74090302947542,-99.35196750509972,-111.8301613429694,-94.81191406573598,-51.10010414533015,-7.613412056730835,21.37697776624277,41.153875904776164,56.66713636359744,67.20191414827623,69.38336496993361,62.689436840891375,53.47838825926357,46.7225520028347,41.53828863862913,34.114023699242956,23.74000714727446,13.330190891247495,2.7712003986136917,-10.488338115491782,-27.558722256120557,-47.988713628028194,-68.47014268888586,74.0,95.0,59.0
25.76045301186206,42.437436548932006,54.169250792266524,63.40620874371399,66.64312687729243,62.82287054947975,54.74701206803361,48.22734460572514,45.76995959380025,41.78243411042823,34.26692185850407,26.44740259598991,18.480859389844824,7.850576280552446,-6.222056691841825,-20.89124145895617,-33.5235945673322,-47.144986022944295,-65.010041136938,-85.73672954160897,-102.68243750142328,-101.40018181859192,-70.96282307395363,-24.760449723485017,13.27903629680951,36.65004596115749,50.584335615926165,58.38107752458488,61.90849678214744,59.902108383665016,50.132991285367765,38.809338708259546,35.02741452342239,36.919461212073216,35.15007690897556,26.086602665566595,13.906078969001957,2.5675214382108873,-6.665564949658452,-14.416705469015646,-24.97532167768967,-39.477463946053355,-54.05326524695822,-70.99971139621962,-93.8052628757316,-108.6981337839843,-91.51110035764279,-43.488247465698926,4.153431968133693,30.897494317769034,44.620384832586524,56.77429448565514,66.0051483289542,67.24126706415562,59.55941138699927,49.4379555782951,44.41461963324661,41.46677090220467,35.857511349482984,30.187879295628015,25.98489028634853,18.434686765148808,6.388162870944783,-6.370296305668807,-19.347267917530328,-33.95859768471342,-48.879158124219586,-62.751692179965914,-79.0343134073033,-98.75888996131918,-105.30273680090266,-78.6947682403053,-29.37803448515583,12.029529076846318,34.79094004789097,49.82462352257085,62.122236692346924,65.02941948122893,57.91556908593126,49.29629243266481,45.53350985908459,45.525332762316886,43.960171283804485,37.04690409739921,26.111074843579114,16.501647789393218,8.10226835050516,-2.7374887800600267,-15.831555580427532,-29.016240936562266,-42.01078962393967,-56.725167773343905,-76.12050300807573,-97.52765350717135,-105.20656142230767,-82.2825055305638,-36.138981882645695,5.934877612439427,32.54632416432777,51.30187079911763,63.66893417020543,65.17516306372265,58.6813654475052,51.125087970617706,46.286563196485524,43.210027483680975,38.12366776781443,31.766385479568214,27.157395702460306,21.444496294290207,10.47322393358742,-4.171165119530187,-17.98734077050989,-30.258886542390933,-43.599931318719825,-56.29541832362342,-67.07229661151177,-85.41739957210451,-111.9695524556364,-119.32273425170732,-84.56210508326542,-28.287200347273853,13.333772810427853,36.754642585138036,56.79590562070127,72.96961985723584,78.06551968115876,75.06419821600983,69.60665652380628,64.69240436289247,60.1772605635935,52.45612029794002,40.99340892360603,29.83620952765419,21.676805147436532,15.285744889494175,6.872819671463229,-7.570583845777677,-25.07457908070181,-40.10350927494288,-54.60990100084787,-74.63788806790039,-100.16725851847643,-119.22464887194494,-111.17449625632685,-68.95453872946337,-16.60705357612008,19.666102102296065,39.80085731354842,55.007171411570305,68.25786596759549,75.37185881084204,73.80342311432914,64.61022310519749,53.19349706028875,44.41764500534012,38.58257432360149,33.621058019275814,24.73437565245514,9.797040177421644,-5.805105656106239,-19.22157390450474,-33.33458353245281,-48.85235843021398,-64.66394096610445,-83.80729996399714,-104.89103748179323,-110.50084159582866,-83.90461692284839,-37.369652464939016,2.2122531163070316,27.682876419487606,46.03473628268072,60.33577376423399,68.85572888168431,68.16105321646307,59.96725301059346,51.20288817498422,45.22983672435078,39.75651905822244,31.312190178937456,20.634350799111488,10.420875109235334,-0.7082913572518482,-15.004266876512567,-33.22188866208955,-54.04471691666971,-74.15034243910657,-93.07493521224706,-104.00618946733071,-89.45088326010693,-47.14610539369479,-2.4455268395528584,25.748794101157404,43.39580212484374,60.08330360168315,74.04941545647141,76.51383829704419,65.50601324357629,50.66352678654178,41.527534707637855,37.84794666431865,32.979864072794186,23.149953884386957,10.80334210338656,-1.9856741677533845,-16.654370220782912,-33.80453713867641,-51.88717232544286,-70.33397522527,-89.88645003312837,-104.06613449942984,-95.93267223002427,-59.87603374663428,-15.56325220844839,19.89847420125084,46.65840047017362,64.59691057272056,73.04501245720192,75.46644976062423,71.17803891193286,60.10539013636095,50.309983607070684,45.344665398013056,37.993900401055626,25.505681830541995,12.213199915522727,-1.038675057851414,-15.145345229525104,-28.529895337613734,-41.55567127258864,-59.55391487859881,-83.7338773051509,-106.84403150121514,-115.24932579103125,-95.11441525719412,-51.83492028212525,-8.425249351871576,21.64024346266854,41.41519274914651,56.36657335310579,65.36278991316495,64.49764615140612,54.96351977081158,43.23605066672975,33.69212197901269,25.054916909999484,15.70015741539602,7.311729436454367,2.9755117207033637,74.0,95.0,59.0
2.655810521194771,-10.012730705564108,-23.39867851129367,-38.35325760763753,-52.94681731658757,-66.95940095924031,-84.7239122034387,-103.15356549370652,-101.30808624146309,-65.42519183827869,-15.516122458036694,20.216748882156587,39.395530512225676,53.86265152844881,64.20829276219443,63.70151521015463,55.17714903715002,47.61414674035338,45.3630552158555,45.45842897135422,42.586379223377115,34.061288572927296,23.044979230289076,14.135060082977802,5.30334186568142,-6.393367981475291,-19.693991983570747,-32.741337633475084,-45.95386131560685,-61.7588820286654,-82.5490405616527,-102.10082887241495,-102.03273995853783,-70.2112666518151,-22.506090805731375,15.001530829084702,38.448874725021774,55.769279400160464,65.27220755981345,63.8026946547531,56.35502762257922,49.394683063606095,45.3843745673474,42.0507484773553,36.23111954209839,30.250610064831264,25.87376913687559,18.86439456754331,6.414299440294863,-8.39538279600151,-21.575736489210268,-33.94886111101116,-47.545935785949034,-59.36574528551201,-71.0901365957291,-92.98752723458111,-117.66238345364205,-113.58274614122743,-68.65404160922881,-13.818972410021201,21.252974823786257,42.529391322947035,62.29382944733672,75.64656968057521,77.72444879534324,73.57122624509648,68.04999305880476,63.480067711263466,58.417722959072684,49.39271944066563,37.543699876275035,27.16357537043379,19.770255039893485,13.290744237456332,3.36425902634207,-12.63448972883424,-29.75035040827836,-44.07571290168201,-59.63129492669844,-81.73882818126056,-107.181749684007,-120.54019270012054,-101.94574014927184,-53.3406508825051,-3.9751293108972185,26.620695752130423,44.34144180679636,59.182014907192816,71.12362848331759,75.84026677755557,71.76467551488648,61.24452629109183,50.30118534210307,42.48542584711541,37.21790185412293,31.698184566916545,20.899423023588458,5.076629217606715,-9.821521080184995,-23.10278729908785,-37.755662056874236,-53.343648823142814,-69.66962829454134,-90.16997399932197,-109.15399484257257,-106.2463756959306,-71.21245809108594,-24.401920948227747,10.763394062226403,33.443889714278725,50.603888087589034,63.54043658937676,69.70016022418835,66.26826992590347,57.229284685443126,49.20237200715154,43.78763630950151,37.6925626742231,28.3035212036269,17.60971164359538,7.434605246883124,-4.4632398474848305,-19.855867032324188,-39.13077493806789,-59.99887858762718,-79.77554211138853,-97.74407994863122,-103.11139443102206,-79.30960262856237,-33.15340021279262,7.500045222429329,31.345870501457085,48.167023419728274,64.7494094625434,76.28637778858308,74.44511003026517,61.06114900806489,47.241573892107766,40.159322075520876,36.85444660470287,30.630295715451396,19.66900544957186,7.179863742316089,-5.951886436686611,-21.39954216551614,-39.011092028132914,-57.13032597268914,-75.91666962489946,-95.17198955251446,-104.74915740975486,-87.87910085125596,-46.79267709826144,-4.2117513543861715,28.400801401377997,52.879217078055625,67.87627909903378,74.26763985198757,75.0629079996996,68.43352875280712,56.741483283443685,48.5845355698534,43.80898852965071,34.748384023260584,21.6013789719214,8.452833436613457,-5.054216028523056,-19.178944526329104,-32.14357480895067,-46.0208826655844,-66.08908554897825,-91.00786217305362,-111.5245145469704,-112.65088822799841,-84.07837918283109,-38.334400808295996,1.715964410638393,28.082065547209485,46.146460399024086,59.77499892015059,66.21576763269157,62.39691266319791,51.498012957740094,40.22521855394636,31.23025790181753,22.409823928626956,13.039195376424335,5.524382082257046,2.7540978658476876,4.258627709623134,2.7607367221747605,-7.331766062318832,-21.63851252306578,-35.47764853653018,-52.941653991038294,-76.20648589715859,-90.95195510558199,-73.92486756382695,-26.80265418066279,18.337062737862382,43.58252214012793,57.462590098917275,67.08813547732939,70.52719737790804,66.26793727668893,55.86319746603165,44.23602825592396,36.79719675534813,33.56717756695319,30.385548014688585,23.19441736333017,11.255142897822479,-2.7359532836921434,-15.12194318011234,-26.495837963713896,-40.55694388691551,-56.036896357767105,-69.04763433758608,-82.43160527609795,-102.10895111356919,-120.06245338853127,-111.75185605750549,-66.8833986896603,-11.752868102251085,25.28051682775916,46.24731197950494,63.72823004407996,78.40527158070341,81.47119057509273,72.4812653412544,63.04130598053973,58.932585960624216,56.11174484101162,51.02184419534257,44.89270441504854,36.79401583566807,25.14732296128271,13.305532636476837,2.3029510706005554,-11.817075014493016,-29.09324004239975,-45.384571617581386,-59.97180208646518,-75.89369898780798,-96.36558900345406,-115.90912507293143,-112.76563061571085,-72.41216029359639,-16.284609909904585,23.583643564590673,42.450673282420155,74.0,95.0,59.0
67.24260382526039,77.29152923066127,76.88382569419885,71.97521051371281,66.59955634687337,62.24784659315247,56.28681982599912,46.069499271392544,34.240296007386064,24.765001804648467,17.954497104468988,11.006068256114744,-0.7227365916935343,-17.779502279963992,-34.12822439286511,-48.139438140430464,-65.26275543258146,-89.19929547775354,-113.24339665646168,-119.03145280355632,-89.98032855794347,-37.75635131655266,6.886012312869495,32.48891492704933,48.72655290308538,63.14096053911126,73.36014497535034,75.55362412259808,69.15354691941336,57.86654028018356,47.70149901017165,40.772238574915406,35.86014194910421,29.293057464093405,16.591075219167944,0.4867608128795867,-13.674799901775355,-27.133932830579337,-42.25607876097571,-57.85054636185001,-75.08813146852427,-96.53441500789849,-111.52801558683467,-99.05194703343176,-57.52312793248322,-12.602459410842291,18.23304122080457,38.79894252675713,54.83823834750158,66.19359015690576,69.68083798690216,63.891789967695914,54.61433675672649,47.45702121871715,42.28304580512982,35.31441866434302,25.186034386281076,14.668895172346904,4.291349305717283,-8.515392456636555,-25.050611094814197,-45.182750825551175,-65.82370376218971,-85.33215301642947,-101.4338126691919,-99.59692317703416,-67.12050974409684,-19.772206144591955,15.878413949307944,36.40129364291883,53.001816725658614,69.02771129220903,77.32205266580372,71.3426505606494,56.61264710281199,44.46036974909764,39.13072999956874,35.57926070447815,27.841976782839474,16.086523711974593,3.523401407957595,-10.129555057341225,-26.33824844554414,-44.24298734262119,-62.42163409683649,-81.61231356108033,-99.72341551364072,-103.07750411838583,-77.62613493454285,-33.70050774943952,6.201404335975122,36.28155833525946,58.2799696442158,70.4123925525457,75.0795090698658,74.00326097727586,65.20243176215828,53.749377528611284,47.21019536286304,41.83585841858081,31.134165248650657,17.743917233160744,4.655690837622599,-9.143443024027462,-23.085184157958427,-35.798374667000125,-51.060237209780695,-73.07890647070376,-97.95524725447346,-114.57719333421379,-107.3857697314529,-71.52975873102433,-25.43831002166474,10.61842921074071,33.85294640374168,50.560502490410066,62.58571036599943,66.16165249370842,59.67724686215969,48.03476474268426,37.444006524983934,28.766584286128097,19.695725683200866,10.530404640540494,4.1501341616698815,2.9498006358454236,4.5481671114936795,0.700630007281337,-11.372173964033827,-25.656474367640403,-39.85223960815799,-59.32680850883231,-82.42943365205353,-90.0087137246145,-62.25233992059162,-12.120209966932968,27.58656447050512,48.206317301011474,60.68633163989488,68.84399858298107,70.07613327282704,63.74061628576068,52.340902422166096,41.52867408262535,35.577748878467816,32.857592206861966,28.83032891792474,20.16723098952023,7.241044076968928,-6.57386977304921,-18.336068751742555,-30.197394115589333,-45.100969098162665,-60.09733649075724,-72.54724653016278,-87.41426660514364,-108.39173529287959,-121.45569795265764,-101.99247834551005,-50.30742419338327,1.2769872600338372,32.33552373025609,51.33844448035853,68.58428268471066,80.83188641382891,79.68469591524247,69.30614280448484,61.370227612891526,58.24574530067005,54.8722577145225,49.298156254043676,42.902788281395736,33.71799678938801,21.564887390386502,10.185886175312186,-1.3133217809629223,-16.660526612838154,-34.03787472249347,-49.67996585730338,-64.26078953965698,-81.29312725608918,-102.80405661383958,-118.4824375586854,-104.68945197336384,-56.14089893210866,-2.2534258519545616,30.66561607032191,45.96488837425617,56.678072329285285,64.51624192840504,64.28292189663985,55.72128287978711,45.54566196236399,39.5099907277662,37.21161551270412,35.86723319344453,31.990268607082676,22.90468985032784,10.964771263769771,0.14990688574836708,-10.378514087335283,-23.307233944983196,-37.51643565089743,-51.52735376410645,-65.70763423732355,-81.8011444203712,-98.89453930663457,-103.62545426832094,-79.92349917966217,-33.160741582332996,13.986961871223492,46.834214962101896,63.74731340131975,69.51017304403767,71.06234576686566,70.43973933520728,64.28519580946383,54.6930602832795,49.35282798270764,49.05353561881215,47.595858673787504,40.58280002373011,29.28855163149149,16.26634793204703,1.3301925040938207,-13.416113163230937,-25.09097741556048,-36.413577201994926,-50.24525525691962,-65.04000492582638,-81.38283359953081,-104.21241684409311,-126.66417292989114,-123.00020722722061,-78.61654046780647,-18.150553062961105,23.710012395134267,42.92584366295932,56.86727985711221,72.20066922574205,80.66821353539255,77.30102717777545,67.05143320849767,58.14400375528054,54.25381296976128,52.17242427436837,47.31335476004736,37.70818775465331,24.24357141192893,10.588994235795784,74.0,95.0,59.0
-71.5399389241566,-90.71270195966595,-103.63739632204276,-93.28630630900096,-53.60134370470931,-7.571522814725253,22.89088775803683,41.20593658008875,57.863204837162506,72.66286010401731,77.06510886698176,67.46815193453463,52.43616200482238,42.318930166510896,38.25406777739751,33.90521065424732,24.693582811894938,12.471608749856175,-0.21680866888335637,-14.541151619683076,-31.42454705821872,-49.475301801545356,-67.8076265608772,-87.31235629252633,-103.0696914123044,-98.79876346656707,-65.72994214311124,-21.106678382226885,15.752174378664394,43.538821338799394,62.80563690076945,72.3328827003293,75.45813933096852,72.23176075722435,61.72038153500185,51.269718999374945,45.954933534748974,39.33003331991309,27.304017270399523,13.948576614623608,0.7804930687300524,-13.257761313208514,-26.84178469383215,-39.65841356194698,-56.730145875536756,-80.34759739222547,-104.25665260599281,-115.58013637482749,-99.53154225928144,-58.1221875609305,-13.523247404253198,18.39075641962502,39.120784824890045,54.628307999633854,64.67385329992138,65.21569083437403,56.51661505353293,44.70346243310304,34.847084699373,26.24530501389468,16.95549740491198,8.257727057475371,3.2356728214419936,3.4371770446193874,4.337290887172267,-2.120819618877092,-15.564719489827176,-29.59494436919326,-44.71852316069856,-66.15131590904734,-87.38881232819121,-85.8527065285655,-48.54208068876603,1.4709697274599964,35.09680639261743,52.236320730456356,63.59081092029349,69.99963972821445,68.97606242043052,60.764983802468336,48.87384437294414,39.27658102816957,34.64426416698033,32.0316737619627,26.85955211042102,16.764630228896777,3.1507147720632274,-10.196503489763417,-21.548573886829598,-34.20803699707215,-49.651511869726185,-63.87950800691773,-76.2453720064343,-93.0432502268947,-114.11737709129781,-119.94837264686956,-89.27055382392025,-33.85455364237984,12.357396393752953,38.396594991522754,56.38754407838939,73.0717058790192,82.02963056658133,77.0680158354956,66.41801451289653,60.15600104184618,57.50679772501277,53.41555784100192,47.54784008681884,40.66276548829919,30.35403341225249,18.091363856907495,7.082744979073512,-5.302534562510441,-21.688674273184457,-38.79781621439796,-53.87079355021658,-68.75417078918537,-87.14894417375194,-108.88315367774216,-118.46762078948493,-93.41910164522325,-39.464234059537134,9.784682872470412,36.220497817732706,49.197111856912684,59.45544369155294,65.45447150979341,62.4540578006219,52.58767906198348,43.292399059216606,38.5792193360116,36.85730169253761,35.18248752212556,29.90774155381593,19.525053727952795,7.65402889726321,-2.76814489214928,-13.835760994704572,-27.398554903291007,-41.58130365333825,-55.57001885115645,-70.05144389881005,-86.95491166018671,-102.41593367520387,-100.00622317190846,-67.87183113322766,-18.623321590070155,25.19533960630347,53.233615743464185,66.24185358005366,70.14664715747263,71.22536395489217,69.33254984669969,61.52495480853758,52.46968825943263,48.97116848196905,49.04048740665027,46.1890419291477,37.596431945243495,25.685659977273936,12.140206892707056,-3.1379250287883034,-17.10027490492988,-28.17916056283461,-40.17027809303903,-54.511036026821266,-69.3973713053369,-87.19988385741595,-111.64036881285634,-129.536097815621,-114.0090814740914,-60.96516425237728,-3.254050435527459,30.92055821695053,46.7997440694855,61.38572277861086,75.76932907926283,80.8495749829093,74.66546468760805,64.04083184491044,56.53837535493,53.70958042569571,51.187177266761935,45.05221274422359,34.08350069807619,20.14630501034656,7.004973511259786,-4.899112811274119,-18.349267700345095,-33.31765268451262,-47.908472780849756,-62.31815474176429,-78.37837753327463,-97.5716346777762,-116.82516262335754,-121.11601730258117,-90.971528022744,-34.262966213221425,14.791918268758737,40.99991379479811,57.65366990698944,71.89035859955786,77.09652441651845,72.48440167411312,65.19450069596061,60.84086036830838,58.075379210198214,52.23573347418249,45.110514438810334,37.924294309792906,26.387394122031584,13.353251871106599,5.483274418869994,-1.4158382125191409,-16.37320873473584,-37.0155365487649,-54.01243601559323,-67.33313627424765,-83.19922637153454,-103.8785661335426,-120.72586212888524,-112.73318093094917,-70.66726311732884,-16.192497607815685,23.946617627190836,46.32830115790093,59.797640419348355,69.39497352499083,74.56798155959952,72.2308300322469,64.64014541924176,57.54446390392505,51.961912102737244,45.761843953747515,39.66295340921661,33.530169962612604,24.974650480545854,14.923134679502558,4.046212407413027,-8.342560357388871,-22.595260894428783,-39.253019794935724,-56.09488772335817,-68.76063323973365,-81.78005798472513,-102.91189962363102,-123.32023288054204,-117.40162708450778,-71.63644283394288,74.0,95.0,59.0
2.79948770630272,4.021978541556127,3.438666372978558,-5.575576979163615,-19.74475102095636,-33.57790747239969,-50.19779116976985,-73.09274797688605,-90.40027528052033,-78.40515586069135,-33.72955941948457,13.440949832213335,41.167339930562534,55.88164404620157,66.0945177264439,70.51268930092267,67.2564206722648,57.45927734655951,45.62330674106078,37.48189625996935,33.888295038698885,30.97656553484335,24.451080679129277,13.050181075249247,-0.9054411685564313,-13.607203266661624,-24.88468124035253,-38.502871539831176,-54.07270393807589,-67.44363956533682,-80.35154390762125,-99.18424444992742,-118.60858769996788,-115.13121246445829,-74.29533662614155,-18.378854375852097,21.579977653929408,43.84912607857942,61.42641246876767,76.92269098901369,81.93283067165738,73.97150051237308,63.98643567131984,59.27215612157352,56.60301128802975,51.800053418654,45.75262809403488,38.09677745127501,26.808048196152747,14.779423733899646,3.863393065863836,-9.679510385608829,-26.76858788975877,-43.35094788608292,-58.035928448438895,-73.5526146523934,-93.39877793403666,-114.03222640389087,-115.3418271632614,-79.50190019197552,-23.323283732748035,19.701352939940964,40.66417436351124,52.30373040708497,61.89608112295788,65.58484516824817,60.01153740635691,49.5310836262926,41.46523590689456,37.898819058035905,36.51618120663958,34.18590379833061,27.353589084050903,16.027859773057024,4.507481924942421,-5.7426623444088785,-17.53909204722953,-31.522814475781697,-45.62698022020733,-59.635482934424736,-74.63013850251738,-92.09715091818481,-104.42421723419444,-93.7053807859938,-54.322253329053005,-4.648277259934541,35.018012298661304,58.347128163873016,67.96834482409194,70.59938748553097,71.16977809876767,67.66152146326297,58.6398471292015,50.787634538723566,48.91608527146544,48.754834569836106,44.259460411591334,34.343881150155596,21.967818370822595,7.834994559272787,-7.487408929502995,-20.49084161781016,-31.37146221927531,-44.15040732472775,-58.78911721513741,-73.96505232799788,-93.70323174612604,-118.64760527720601,-129.45584400789667,-101.57754379450489,-42.97557954417519,9.408800902618315,36.52514984462178,50.70744534119751,65.96130360773486,78.49601946478012,80.02634752018365,71.65723063221027,61.33452992501301,55.36958567875578,53.17990049985488,49.88401841348063,42.36636953143784,30.193206403502867,16.143031358968877,3.5530075027684833,-8.53919653351504,-22.61760004658035,-37.61233559641742,-52.025264062134056,-66.6949875748413,-83.59569144200469,-103.50616326091153,-120.61355805002695,-116.3689688988521,-75.96258998078395,-17.908313666787542,24.406030051467265,46.086159515208486,62.22074838564587,74.58688936527803,76.52029930235129,70.31202034094954,63.53676813396352,60.128490502920776,56.772376510448225,50.1062181129012,43.21599724034464,35.135316150738994,22.39408243403725,10.474091654813963,3.86421135846355,-4.720508487828386,-22.203181488532735,-42.547837561951184,-57.96460279269546,-71.43185200141944,-88.7762440990393,-109.9319654485637,-121.90776663569979,-103.65414969407645,-54.7386281902839,-2.4858372858199624,31.861082204898015,50.802952541337746,62.8868627461064,71.4996693375193,74.71418539253078,70.30380235917549,62.36581069250767,55.88156876079706,50.26943555817172,43.909785836893086,38.019478340425756,31.333441349931714,22.14209855076053,11.896420289491417,0.6406166898568805,-12.245308662435392,-27.16227723739923,-44.332330620299054,-60.22928222352259,-72.00977288359257,-87.01714098676035,-109.83198520876451,-125.51013928755347,-107.87598625145804,-53.941816260046515,1.9910486273985717,33.42795454995059,49.21048405860622,63.89666799431331,75.9188020475846,79.50541985470979,75.78801151370291,67.71912672241464,58.025735360395025,50.993790749842596,47.537243971936775,43.12698683992023,34.69457383900645,24.047426219483796,13.340425588688948,0.6631133181293274,-15.701519193099823,-32.453231756948696,-46.62884848795888,-59.02253682479474,-71.0618385884027,-86.54709274378814,-107.91093535077277,-122.38177955754996,-105.25838467058632,-54.2714184948586,-0.9867136484616104,31.33105469781805,49.283071433464094,63.75351491911377,74.34680410813189,75.99331501165912,68.85962924782217,60.127206533967296,54.10235833773347,48.58289994171462,42.71583884150941,37.71336588608208,32.56405161681269,24.921664197445413,13.905218056717894,-0.7661877271968706,-16.655882535288207,-29.115997902323127,-39.53972275203188,-53.441183036582245,-69.57978739861,-84.7317559922295,-103.36346779579111,-121.37836430352324,-111.84097272491374,-62.47557857193818,-5.447438890465541,28.735944739499555,48.40406396054483,67.70464788467599,80.93958154731304,80.94668604490163,70.74024900541954,59.176945602689244,54.480347669512184,55.426088821059295,74.0,95.0,59.0
44.393641004404934,55.32584617916475,63.83501294202512,64.879874014279,57.13603043858564,46.72242649958709,40.04316280469116,37.39930021919693,36.105724615219074,32.788184273655716,24.385435064599527,12.540729845367476,1.5032808949311167,-8.867056259673111,-21.451440072395982,-35.63236925084394,-49.665614854319855,-63.764880308143276,-79.4800653031814,-96.90604471234252,-104.42087620361995,-84.81470130119817,-39.91466135182302,8.377087365093995,43.42776122491154,62.28710667227896,69.12053468251992,70.93983568626278,70.77273568053911,65.45434251419775,55.86928154364352,49.6810335052078,49.010529152576055,48.07071475018688,41.841835924766464,30.91333159570788,18.105285460063282,3.397823009686825,-11.611812631873697,-23.666270527179922,-34.76588787695928,-48.29675839067429,-63.06264851935555,-78.9190456871911,-100.80516211490229,-124.53759858834361,-125.89481233116084,-86.34135122632091,-25.66417996680753,19.716628736471183,41.05359388959878,54.85724675359218,70.3329786988956,80.22708585852041,78.32882556284557,68.4993593749025,59.043437332739025,54.54892149039267,52.53657101959401,48.215643349773536,39.266728898879286,26.138047284364827,12.299466232661427,0.1562839457078627,-12.380739077429638,-26.961735620393185,-41.839565224141694,-56.156709906564316,-71.26291834574765,-89.10055856145094,-109.3104651550139,-122.62181050924325,-108.33243629309987,-59.35136351550133,-3.116289114762299,32.14257483557996,50.84730871994653,66.53562814668075,76.32736993446883,75.23017873444584,68.11946950321361,62.217943248425996,59.424121290699546,55.12463555403424,48.00202911013317,41.253648654465685,31.86978635769808,18.475332648441935,8.141248707166435,2.0791009992109313,-8.88004406443192,-28.285336435911535,-47.571046917471655,-61.74333691501645,-75.89011713903831,-94.76044324966767,-115.30418987902543,-120.41242976297112,-91.78683273722135,-38.59218019553322,9.530495690691502,38.46973451021212,54.74505953211443,65.72392872876634,73.16130598135048,74.16599142448091,68.07700908274595,60.2618255460129,54.297234071501464,48.481145859850855,42.12542991380928,36.31610489206781,28.891675794912548,19.243040425203436,8.787137944821925,-2.905430489851012,-16.311413698144772,-31.94894753125637,-49.314506074090204,-63.92341342558381,-75.54444010467239,-93.05361229750982,-116.25723535129585,-124.75980592052197,-95.00300681244485,-36.156239873295966,13.74907662798063,38.710287545239225,53.34950918400902,67.9892712608152,77.89786649033728,79.01985850297656,73.8130835460814,64.90679358295627,55.5589828918229,49.759268822453606,46.59845179221269,41.0940936381432,31.69986293949819,20.963685767181403,10.034986637589679,-3.7471665912818133,-20.714211445296122,-36.81938830185925,-50.33611599719878,-62.43898252775042,-74.94194963059881,-92.28504420675625,-113.8739220613951,-121.55273434557,-93.01465500777763,-37.49206925572696,10.64618846530591,37.3293983081854,53.642784153182546,67.43930873252212,75.90488923395155,74.59170651905767,66.15613476608371,58.1400301444703,52.57541525903624,46.86380468808874,41.1630933396443,36.35949043259015,30.675051547373016,22.10848721583242,10.018821990762987,-5.4546898741986745,-20.72294446936602,-32.06347810522852,-43.07635934722613,-58.11768208393934,-73.99033538244726,-89.51408602401618,-109.49216211961904,-122.79760952227359,-100.9499031497722,-44.79465171947762,7.056490635940192,34.96063929290869,53.95411306861965,72.65510568992026,82.33398659416075,78.72449505648781,67.08242655122896,56.94052061421087,54.50412995835498,55.569101125168764,52.4790382887335,43.820397850611016,31.849181033973412,18.86464175152996,8.654452447707513,2.1882816159636866,-7.681603512519192,-26.283841897677227,-47.257609774386864,-62.67453778354936,-73.13411174757728,-85.76240769770301,-106.48971904982842,-124.7495100861185,-113.48188524515854,-64.67299268188945,-7.833053142755099,29.526912356461267,50.070707340677664,65.17752197505986,76.04222729254737,79.82948416105326,75.72090617598329,66.21111700632721,57.28486679869207,52.2402960423445,48.96199048779184,44.689488442516655,36.83162012724808,23.1880388109252,9.21271771000264,-0.12275264695578769,-10.5049879402234,-26.555104749358833,-44.21617314169746,-59.37631957695472,-72.95888866186579,-89.10661115509605,-111.92999383308637,-129.44125745153207,-113.53234312437255,-61.55516023323121,-7.23022735549521,27.377520253851788,48.88190587092069,66.39227287121551,79.03566935514966,81.44340232447458,74.00992464888334,64.42925719774884,57.710398370883865,53.2155899936122,50.151279681370475,48.153927892480866,43.51976079845963,33.125915857408636,18.544800539554572,2.132092721620377,-13.841640104803481,-28.155386938007403,-43.50790548062229,-61.18577795300713,74.0,95.0,59.0
8.637369572058724,-3.2780960185123345,-16.425225110090683,-31.318694189572415,-46.003999378666734,-60.34995654167053,-76.0704888128386,-94.85637312173412,-114.6464820929173,-122.24344836327599,-97.1099979904657,-42.12945728651785,9.64485028211719,38.441302051055665,55.514314249961885,70.35968708092031,77.07392049940998,73.42860941755367,66.06265166680353,61.21734440055264,58.562986752493295,53.191472577036365,45.99882824157921,39.05828086819486,28.18629521161202,14.863780101825729,6.255271420365052,-0.16120933841265847,-13.850498510077571,-34.321631040912926,-52.08194653750465,-65.53416074755813,-80.78457695607604,-100.99373710940792,-119.42124938453918,-115.88359074224195,-77.70212436924595,-23.008653740203645,19.786136756881074,44.04100245489572,58.27959283105661,68.30406097628448,74.26997366747935,72.97092177128185,65.72400122505951,58.35883300851236,52.71181462887272,46.62521541630305,40.42510702740648,34.45915693299548,26.245983344108755,16.297462123180857,5.570801145743208,-6.593719969180947,-20.564465296440343,-36.91996838385785,-54.04066355690786,-67.27598590356585,-79.64253519008611,-99.71696192783043,-121.50363946796364,-120.56772936042815,-79.4514237240663,-19.316989163864317,23.181989997468545,43.19409216115794,57.611352636199285,71.66782898527438,79.08629797288765,78.01859227516256,71.52354731626605,62.04374031744832,53.428019754354175,48.78083937636217,45.43020874990673,38.70689452410228,28.603289699885877,17.900324196020303,6.47106382806307,-8.463423878676947,-25.630412601667242,-40.94728966429929,-53.93045288045807,-65.86051416831978,-79.24804871768842,-98.51596729855797,-118.7363184362512,-117.44948968533033,-78.30885159674096,-21.51300545260674,20.29225459747353,42.515338930313526,57.871645879963104,70.69116775734031,76.58980311841734,72.55352577859014,63.537328705207166,56.39536754329094,51.004186695265865,45.141969205297386,39.709076147470235,34.931645827595,28.532800958677207,19.002863475682304,5.821781880188311,-10.136228381878146,-24.395929827270173,-34.97522900392703,-47.021893161686435,-62.846661465652396,-78.2980512090147,-94.7866544267453,-115.2425398119098,-121.05093615054987,-86.869910020919,-27.648839178492086,17.271901825673325,40.526656402168584,59.628773111970204,76.79280393262235,82.55512091905372,75.80345890220927,63.56633327160337,55.43230616436137,54.84488724139117,55.30885208111489,50.456677590708274,40.60854755633554,28.069823037247723,15.447095513282646,6.585802607202605,0.10206908483948224,-12.231129380530373,-32.570130840164296,-52.425280331368626,-65.9763117830017,-76.1647834319079,-90.93664460584381,-113.09560253581019,-125.63185234802489,-102.47496176291317,-47.3550839347288,5.363600827268122,36.56297156911965,54.74799508584212,68.89115060726625,77.94914136540896,79.42186124722579,73.30077627548403,63.30927573378876,55.44930030225716,51.26348639415018,47.91635737520238,42.94876708521302,33.42231477333826,18.781429509138096,6.127139276449187,-2.645980896770534,-14.611691079551896,-31.770833863106017,-48.88853219436153,-63.33818982539226,-77.09881866507352,-95.05982273570967,-118.72535540693626,-129.280209471948,-101.10911648514339,-44.46997249689404,4.853412098611193,34.36937818188478,54.206275547882115,70.79036947518854,80.94739629475606,80.04034022999487,71.1010264698987,62.16184677703019,56.25271747609552,52.17358243289646,49.551219799317685,47.31308620234523,41.104120426207764,29.222489082513754,13.904132474279626,-2.643156459908395,-18.091840895986888,-32.32742873535328,-48.467910369288376,-66.30858209438756,-83.17570801427014,-101.72835030874238,-122.55131340475126,-128.39643267222905,-98.03730366009484,-41.05127172476942,9.500057942283835,39.79716645565447,58.23253725951072,70.50245084295857,76.3597360581518,76.40747244186643,70.86232450351864,62.88551669797986,58.395984494199496,57.582391945969384,54.04591463232415,44.22983482191985,31.67239063774545,19.901414751275187,7.19476323433281,-8.289938156659824,-24.03804078089746,-38.59026138495733,-53.043294627137676,-67.26707879140861,-83.15177580581071,-105.36359481059574,-128.05477898563677,-126.83859726541398,-85.72223843890818,-26.608049807946102,17.061638651080116,40.793499875830584,57.986699480547216,71.80115459886589,77.05514017439437,72.59735400753503,64.3459646086751,60.27788990957033,60.175165356255846,58.15250511657043,54.505385569983744,49.147180326521394,37.18292723674684,20.36333513996753,5.767046573376129,-6.897078883216924,-23.479171494430933,-42.09904887371149,-56.96635777274699,-72.3802750169201,-98.53675507534743,-128.965689817999,-133.74116920229818,-93.15838169115995,-29.971634798853724,18.414371214559857,43.47584047101213,58.53245861240653,71.44266298325009,79.22388316886547,74.0,95.0,59.0
-62.17901389421795,-4.228923187280294,30.57856385363353,47.32944841980203,61.92957905596994,74.74307427773077,79.52912061530883,76.58102770766013,68.96849279767935,59.25315251983957,51.6753723062576,47.92902454754903,43.93815740478847,36.01681759632516,25.480899325747927,14.802942508742836,2.5783252529797087,-13.391696079975718,-30.355251881012,-44.87416543460856,-57.43264250204652,-69.37634464506124,-84.10342953676889,-104.9723025092948,-121.78418266379406,-109.88291682307926,-62.030113641215884,-7.03265179208169,28.184744730862416,47.21451573138683,61.94774571959538,73.35632380378549,76.37973929824503,70.08264453025116,61.13892343290176,54.80815426092888,49.36208588509793,43.463929579462445,38.33352797802424,33.35664007966345,26.124095047266735,15.587844603290314,1.35902743653158,-14.66100859613931,-27.695813123224028,-38.03471569038671,-51.34648219535438,-67.49099536283184,-82.65306736955985,-100.56832626301946,-119.86530230869752,-115.62893143429538,-70.4924393626418,-11.985649347381607,25.48731083415042,45.90278321187409,65.22858495039962,79.89565421771627,81.68253955036751,72.40282315846628,60.434539619431106,54.63542488431821,55.26757721159015,54.546581201461294,48.012327169558894,37.173999869239445,24.263990229636036,12.381695173306076,4.778048143404713,-2.519211296416114,-17.542169010686447,-38.78457914990499,-57.00364326829593,-68.96199140720503,-79.6002788234952,-96.8774821523982,-118.99545744304392,-123.30350082636701,-88.54308095963604,-30.38231946543964,16.54364722839408,42.537431843352515,59.17019769982825,72.17916754991526,79.20628374821096,78.35725674313724,70.53256177231016,60.62378241885448,53.95415467429259,50.34463942421236,46.742102400857696,40.82368283359924,29.505936396619674,14.589423442425215,3.44473190030701,-5.485134906304788,-19.212108948159763,-36.95293188079981,-53.30805454743157,-67.224061920769,-81.58906970522682,-101.65065388901498,-124.51512400799876,-125.59293414626566,-86.09576084874467,-28.215356533166748,15.119614285043836,40.60477955334362,59.33017387246074,74.66265304076593,81.87458417326332,77.92394501660593,68.24082646758079,60.176696680197594,54.93517744790242,51.25309181847964,49.019221290858155,46.11516998869079,38.183996976164465,25.039647201229204,9.155715365764493,-7.31314214602474,-22.20804212522196,-36.6898623148514,-53.59564691666618,-71.29914463608789,-88.12080329813615,-107.88903644773488,-126.9555372017803,-123.71842509020593,-82.9035007368459,-24.545439804447078,20.14770914703781,45.895325676457695,62.39975648538762,72.84764527248599,76.94711611506037,75.34900650508192,68.5305297621963,61.04851091348724,58.00466776893426,57.14008748730622,51.80124574112358,40.642568439786714,28.177358726435592,16.480255472181273,2.9604242956081,-12.959435435519541,-28.322406048471056,-42.7531035166987,-57.186442001208334,-71.47041057695667,-88.8165302256821,-112.67256953569601,-131.41671201143717,-118.82995652307581,-68.75216092436162,-11.530727142450482,25.39495814584465,45.98794314422334,62.53533709216333,74.38426341921794,76.62865328974854,70.20069892820314,62.52943217478726,60.11953938909444,59.92757302096973,57.129301156685464,53.34329691877682,46.49802930275411,32.49455782537649,15.714165477769752,2.1870689117872026,-11.151839457923225,-28.97638594814056,-46.849291636809156,-60.862330695662635,-78.60093399735497,-107.90954998203476,-134.4765502733291,-126.5028091063395,-75.33593649950919,-13.398876909808644,27.602766948946275,48.24476643422599,62.48605077218165,74.45582797992762,79.85283698038307,76.1043942093529,66.01388677742217,55.14481207643942,46.096588532482784,36.06448203758714,23.952288838349485,14.383529688089757,7.210032021705186,-4.548104673082098,-21.858113966420092,-39.785285571179166,-54.832930548723795,-68.33291756376144,-85.74519132225807,-109.25722632545467,-124.68487968167031,-106.29371594026605,-52.23829609010502,4.82549673762326,40.21166983476544,59.58470556905644,74.6085289249991,86.23129255775017,90.6644384364008,86.29352069446745,75.42345490239813,62.01841449125239,49.98408974665474,40.622881763323086,32.000799883637875,22.907126584659206,11.102401717550094,-6.309535649503557,-23.483494007598196,-36.541309825528785,-52.683171107917545,-75.92049858292864,-104.34069507477943,-130.7203869657934,-132.04606655622678,-92.3188610828565,-33.48505184117432,10.499260027687825,34.74284129835649,55.47621080374679,78.00417271607255,91.13936277346016,87.0036908107145,73.19891790062054,60.92339040705383,52.92053336953196,44.42978738964793,31.74827110415058,18.24507205134267,5.902996035715163,-8.433186390261753,-25.33996251376603,-43.194030100384694,-61.168643242916986,-78.26837528356424,-98.75289126393,-122.43495226459227,74.0,95.0,59.0
55.544736892869985,53.250973591898855,45.21333386831123,33.56137115524185,20.529939635013424,9.733166384960537,3.0356490847670394,-5.864208143394748,-23.43725128430492,-44.68949203292303,-61.005719806129996,-71.81012993677912,-83.6471153192731,-103.39220986909807,-123.42347455432423,-117.41338414283125,-72.50502170249192,-14.56852299615926,25.817733264899175,47.80387548005854,63.34738736508235,74.95505312876257,79.78979853751619,76.68022840061396,67.58309346108209,58.255113285365944,52.73397584310059,49.41199227071474,45.39045000240376,38.21618754837042,25.22527171847987,10.797965089045807,0.9920136461054126,-8.796067098082254,-24.18302629637903,-41.976206485103184,-57.5040329774225,-71.12449821831596,-86.59071171482604,-108.66482950078887,-128.46758076213283,-118.17298247879798,-69.46890844742315,-13.43900642046226,23.810542019884075,46.34714900807084,64.23088925023654,77.84424686763985,81.80050945548221,75.31379760695904,65.57177613968747,58.44019696627449,53.733359837264814,50.46745136056751,48.45780383068349,44.45669928190364,34.812861851978056,20.635824496957042,4.350168790316987,-11.823509841311035,-26.27150416877829,-41.29766369986794,-58.79412599655431,-76.15727270183808,-93.35885260806904,-114.14480000124483,-129.47173667198496,-115.61064353987653,-66.21930024857414,-9.40849241481749,29.113276378017012,51.29589781111361,66.07931113477545,74.64737614540363,77.0737059627382,73.81513033515111,66.13528415312828,59.64181845213811,57.83063198061429,56.27968460464861,49.0236109770479,36.968956347097965,24.78668193326529,12.88886489241842,-1.509299263646115,-17.552999249631778,-32.51962756773678,-46.93482143329278,-61.286661487178065,-75.91181807024464,-95.13340670610192,-119.6911855738151,-132.02023534017314,-107.38836896169161,-51.21946833516223,1.5889466378660546,32.32040457656795,50.96487917856238,66.71220415053357,76.12043249231054,75.43012752194795,67.70022644704416,61.23410839711608,60.16212783083824,59.38945063167304,56.06824307080945,51.95054823328117,43.17389255191353,27.55907429998252,11.416640884528093,-1.3608811768432065,-15.866864673045788,-34.47391685779801,-51.18083454678118,-65.05304086010615,-85.95515368589419,-117.20821541097374,-136.93682692480718,-115.32104384146892,-56.63748069688208,1.1620320076072623,35.00840710009478,52.57095632367416,66.30846267649575,76.90263076973426,79.6785052032806,73.60713859341305,62.72854767808208,52.390567791217705,43.47229833456886,32.63390422501271,20.727994420861638,12.350583469656812,4.51851238031999,-9.163437045271952,-27.199163112823282,-44.47328016861881,-58.700556899054156,-72.69228428021728,-92.13518486570376,-115.69006320046547,-123.71911828730869,-93.31050592901894,-34.381945546361344,17.48649437106488,46.782944041017316,64.13521887373587,78.4769930667593,88.39742417052915,90.26651780823548,83.65734858057496,71.61987210879009,58.27197214111573,47.04848020224007,38.15826011323203,29.43612781884564,19.99022491558456,6.569705501903397,-11.693951434913453,-27.493942687073595,-40.51938928492324,-58.72631548913517,-83.70619572015072,-112.88566242565209,-134.92425503261865,-124.55968839575208,-75.53727546736057,-18.33131388017141,18.910952250432203,40.45124337426512,62.11143210605584,83.37128217827522,91.65302099561933,83.41234799011303,69.19316339212651,58.281331365497124,50.807043861394256,41.15206209053773,27.716045757289645,14.65762181741322,2.0942702938888935,-13.145073959807142,-30.426908078462034,-48.45041201496623,-66.14247275092116,-83.54085537007879,-105.83163925526789,-127.04306817743677,-120.5074322791285,-76.03903696892498,-22.24638416136904,14.595576712920925,37.81137848638813,60.605626448102264,83.07209874698701,93.5617694017997,88.76940905769258,78.02138271768352,67.95554169634391,57.819683632299075,46.4938899412258,35.326171122591184,25.955714997628764,18.905152227715135,10.999830205839901,-4.133175387167977,-26.206810640206697,-46.53519066685243,-63.969283562168606,-88.01658264438562,-114.37396957643969,-118.61520003457795,-86.71599668330386,-37.520096253599185,0.1686389106839294,23.47221155744711,45.11673140076712,64.20880068723508,72.21987239673055,68.76122450622732,58.05429970473515,46.37884518404363,39.00274499350678,34.34505337503895,28.51086693936254,18.476578931848405,3.4128838044027723,-12.903718105168997,-27.200073186770922,-39.855040457879156,-53.0087882999833,-70.20496070937004,-93.26202501280369,-114.18269869670294,-112.52815185969096,-77.08224414080821,-25.542495391672645,16.247194376907657,43.320554789265884,64.93238254136502,84.09532307250846,95.4021315829917,95.64154951352614,89.36332353080937,80.89717978972291,68.90828100690634,51.14963568705525,29.560202172805425,8.760094804470146,-8.272647380401658,74.0,95.0,59.0
-63.96077352349063,-80.95214695649643,-98.99340231336984,-120.07788097266095,-129.43179270727433,-104.24534305275273,-48.950087675291364,3.968686720872917,36.68637017379125,56.15399504994342,69.23350829044448,75.93172317434757,76.72962100317875,71.86876841403111,63.853540331830516,58.69134331419594,57.69035416707634,54.885109986904304,45.81628155036118,33.32288877336596,21.446795243149882,9.05498686393099,-6.133683678382328,-22.022622494384542,-36.6761141154429,-51.120072063058515,-65.37112857036013,-80.74742828242363,-102.03788008108731,-125.77196789877432,-129.30342622442737,-93.06967460284514,-34.11452057412354,12.634993495743151,38.26893544931289,55.80703298849035,70.34949011212797,76.96534757535032,73.60155618306219,65.33314900613006,60.470662092425165,60.20502739830756,58.587707620254115,55.00485721055318,50.155285818719825,39.20265137321846,22.60024963667336,7.480164116577786,-5.077131770586756,-21.00289637640059,-39.770065407991446,-55.18221845980656,-69.86737880186095,-94.37159181704293,-125.62817880468073,-135.68410886217998,-100.76719974400585,-38.15522540131092,13.484122677307472,41.04010070370905,56.678354162231926,69.900437955072,78.66564509717115,78.73083828164182,70.6958548880695,59.52282072384048,49.793252050068354,40.650906170463905,29.073750019905766,17.867421405089193,10.395538583512607,1.2644990142149246,-14.161227714685344,-32.45613139879437,-48.87069134213261,-62.52403066953853,-77.5449992827948,-99.00953521544866,-120.8819617773881,-119.28498943724708,-77.73255131675286,-17.29786829634523,28.061301841473863,52.39767426419788,68.51481892842536,81.98374537235244,89.86809280036779,89.1341429791828,80.56497151250962,67.7082694142643,54.72573987658914,44.33118442890472,35.68405285587473,26.838687720979692,16.733650431572133,1.546493791770044,-16.80690913967804,-31.197330350504807,-45.00256676213167,-65.34662603233367,-91.88697368031859,-120.97855657667833,-136.28646076567546,-113.54090071754652,-58.10184021107755,-5.110595917357062,25.93500222602264,46.311576581682345,68.80525358262193,87.58098566473744,90.67153841619628,79.34516525653667,65.52799415848584,55.97314862196883,48.47719382542057,37.50534132001257,23.756353669119214,11.14152465561148,-1.9791102159936291,-18.025515414932798,-35.5725584566637,-53.68315070512102,-71.0318123737099,-89.29110561519566,-113.01459437743516,-129.21789117901633,-110.85183518500749,-59.77564019430565,-9.509747460776781,22.04625424163512,44.081716307301576,67.57648291862537,87.79802835529271,93.46209138811234,85.8078142857978,74.98852475234466,65.13595980036206,54.64043441016491,43.16867786854945,32.37649126656312,23.72060559765279,16.986723564495378,7.581880078356167,-10.118650714904229,-32.61056272894598,-51.50156573974668,-69.93410174925239,-96.26510161847811,-119.01836174312284,-112.89567584214794,-72.79339437503808,-24.693752246768135,7.785679282327316,29.567517087918883,51.3378921886152,67.85406216321394,72.23998901524833,66.1835737818654,54.45617279967902,43.74377391505324,37.57266529516156,32.91957223564384,26.160534229156024,14.54660639585316,-1.3907148517281938,-17.279288394102416,-30.952116977353096,-43.474674042992504,-57.3903718824896,-76.35093864507613,-100.27028858035996,-116.984749246131,-105.50565945380606,-62.51967516556246,-11.747224629212383,25.217756228543024,49.776759611713175,70.8687708323067,88.45945331742482,96.52150608816761,94.20751784807725,87.1088904480619,77.93756036395271,64.38376079391068,45.103931704073084,23.28660742305109,3.3919222813026515,-12.415432744737908,-24.982699453219496,-36.46188175756129,-46.95782922470095,-55.44028475812369,-63.75579715651239,-77.6610902032018,-97.39558859761311,-105.09178080996756,-82.41980065024207,-39.851648508767454,-3.194925063794601,20.63378079248843,40.16102654164591,57.11882344867358,69.89929283832184,78.23072223006984,78.4360929107328,68.22373549613874,54.41976444072702,45.2936919727091,38.514985934873636,28.31985219898169,16.286850298683582,4.838975716438437,-7.892999529561975,-22.006638813552286,-36.96704254952525,-53.45808927453915,-70.07861379882733,-85.95473631080434,-99.905643280184,-97.88406686200757,-67.99812319701618,-25.260431234136288,8.971976154416243,31.390855845957482,46.371361370493375,55.30105553551281,58.470582123009784,53.927126763425335,44.73830691678283,39.403980300274625,38.59095618130307,34.15453902722303,24.46560625519641,14.942204575639085,7.055448000923488,-2.1926759174363077,-14.630829059698872,-28.512232087013317,-40.70951299445039,-53.47625712271372,-72.97700612740863,-95.15304727584152,-98.30611257557022,-67.67262461530993,-20.645223323021675,17.097666648698922,40.7461817464269,56.102973759463616,65.00758071654178,69.27548806451628,74.0,95.0,59.0
79.66288120189371,77.07769795936775,67.52252137074721,56.48060824746049,47.267584503308,37.57233237070901,25.53267417054994,15.401833007474819,8.29125496541676,-2.584114039615891,-19.400557350845553,-37.52906896663711,-53.00174133086116,-66.44670445187882,-83.00721008686926,-106.06631505284012,-124.08271730525837,-111.2086823488476,-60.475326517684756,-1.7166931598188684,36.74931070022895,57.405610206178295,72.73242843843833,85.01933991947577,90.5904389051175,87.32960120964223,77.1108023087603,63.79551228520528,51.42128927832454,41.77107651245561,33.17228099066871,24.176814619789578,13.005004042385337,-3.80010410528513,-21.487560910098832,-34.82307454756071,-50.108979657550805,-72.47664163879588,-100.3732672381946,-128.0226371021545,-134.23641742672433,-99.54800561982486,-41.0097265318719,6.033026985786517,32.0727118968422,52.503003403367316,75.23317008094673,90.37288123582576,88.4022057885583,75.12334768264733,62.277245631349885,53.86821834188502,45.80103387177803,33.59835569721983,19.94569049647949,7.586880549261242,-6.335553970959094,-23.01470657684187,-40.7776467215185,-58.833790374016345,-75.94725678271385,-95.6330115134802,-119.7142820188917,-128.27634078489785,-98.19661897634388,-43.73514846436806,1.459643602332717,28.700893182832477,50.601008779055384,74.3295906202192,91.19951223206597,92.18135110476658,82.64236531271551,72.07694887107503,62.246320122727646,51.36519639927964,39.90379205106998,29.612907089338982,21.678479880125543,14.864009324142813,3.3963389579645074,-16.552326885665963,-38.61492117950445,-56.36850457437211,-76.7233516434099,-104.33368268127124,-121.10034500860306,-104.09010375875638,-58.22426022754463,-13.415012210043143,14.478356912054483,35.81050637400328,57.118621407271306,70.4116245230831,71.382083467052,63.11187308325407,50.96248056751706,41.54577394956315,36.260464887988235,31.318433199620017,23.382971857076708,10.219982937664605,-6.1663264628259595,-21.447904212109023,-34.60270503256395,-47.196556680996075,-62.214502663943236,-82.99259556157682,-106.76648636648292,-117.30269481880275,-95.63416120411942,-47.33112725612469,0.7034318531786913,33.11170518226013,56.0201578225169,76.55917055493083,91.98401823051441,96.72069529893848,92.40231555598336,84.72228270578925,74.60290204612447,59.34323752558638,38.84030784569147,17.190628404881213,-1.614198422198961,-16.27620765604291,-28.349977317743093,-39.65695452603687,-49.615381123495645,-57.6600292401099,-66.92909237812064,-83.19869305963499,-101.98691774885438,-101.84435222955692,-70.96484913848636,-27.816037761264898,4.671798250404935,26.4388089469873,45.44647030913729,61.228618858233354,72.85153031297453,79.34729425338358,76.43887728350198,64.11697793639092,51.18297534345694,43.425526647464764,36.002527545886984,24.825947953726807,12.96930176334302,1.3610602693388678,-11.8848506634014,-26.21256237006514,-41.576783637367456,-58.358631944598955,-74.6790971169423,-90.50587928348867,-101.85793837805998,-91.9661668208959,-55.802763505856404,-13.989646386980812,16.437581103837367,36.38030145797208,49.53365478215102,56.86684502049476,58.000336585562174,51.376230007926225,42.514832829490125,39.017579713355666,37.98470310800338,31.681218838873725,21.49779096519598,12.596002560780903,4.662879312327263,-5.463915813956481,-18.65840745351502,-32.260953626467355,-44.05111218941502,-58.25924215398067,-79.79603366106353,-99.1657318473853,-92.75102114162189,-54.408729260489295,-8.125454068050061,25.10646851995775,45.8773784017984,59.303694518864695,66.59081661580409,70.00057034846066,70.53591798379384,65.454320768846,55.24688034763877,46.93829928139368,43.647323131620645,39.84212970822116,29.41627687602847,14.758526021738392,3.4493505750528213,-4.470051476541713,-14.867047731551542,-29.54003196042801,-46.95947817543464,-64.12603222113349,-78.00746152872837,-91.42358585695405,-108.95507028621661,-119.57511537283649,-101.75142925981504,-58.039054885491346,-15.097555136722447,13.425084315237545,34.60564544776929,54.48570297209888,71.73371670032927,81.71221549423849,80.09472454519488,71.13215698262242,63.32132318275104,58.4044806273135,54.05127314951419,49.34740168341323,42.83371772117205,33.22447187815468,22.954984824913033,13.305942141432109,0.5474355914280672,-16.49910194109688,-32.338356328456726,-44.31099619884161,-56.000833255759154,-70.6933382598268,-89.71058651645696,-112.18975827121973,-121.62332285016491,-95.36537275041024,-41.883025819341825,4.137496802060272,28.140056561795134,44.811107949258904,62.89328608422107,72.63799293247652,69.36574543062868,60.590202717168665,51.84239884315222,43.477074392674716,37.7572526883529,35.67649943034474,33.08701810029882,27.098482905812652,18.744958703559618,8.77719946755371,74.0,95.0,59.0
-125.17307760060449,-123.79675420010511,-83.35118940251033,-28.692631459051917,10.77988569621575,34.960434533102585,57.40176695367869,80.5129506519008,93.1509816522403,89.9965713969242,79.46099237178687,69.24833696553937,59.245408834753185,48.03479478196071,36.74021305459179,27.059063010696864,19.768509970065523,12.346048196625604,-1.584940585400323,-23.170360070523568,-44.13919072121084,-61.457744025231406,-84.31011620048228,-111.54264208871884,-120.14923287102249,-92.6718013317085,-43.86432815281083,-3.767996881975751,20.676114488375223,42.18009139990029,62.18055756405006,71.88735581698829,69.7476623071991,59.69680155817215,47.73903922328766,39.734015798231894,34.96257628033995,29.46861903201253,20.13523338269089,5.603185012041028,-10.818261282510253,-25.423895850047696,-38.19992725587162,-51.110984203793414,-67.5562654580736,-89.98587590912095,-112.20110916522499,-114.73925699955285,-83.36909156212543,-32.265616097637896,11.675158563807532,40.22526604904861,62.14447507874483,81.84518750331652,94.55381546458204,96.13220644416708,90.35972537417119,82.15867405996705,70.81932803181337,53.82928330794444,32.4863120085216,11.349996395903155,-6.253195455010068,-19.918366309164664,-31.674711744848064,-42.7394830154638,-52.08761785484636,-59.95088026037345,-70.7519301035365,-89.0980646620051,-104.93257375374935,-95.78023594585588,-58.456945432738266,-16.869794549782164,11.595548901284015,32.10196659922769,50.4472548858228,64.98867746327382,75.41062450114885,79.65044360003063,73.57845392602931,59.98197631105314,48.471103685263266,41.57415441048091,33.10836137267889,21.30404510663615,9.697509182197825,-2.282829775794676,-15.957847863976246,-30.496705420674115,-46.33263863922805,-63.19694589159164,-79.24922331822225,-94.8142675694332,-101.95091892442085,-83.63324001554783,-43.18344782512854,-3.819180357560961,23.030088426643612,40.82609438945896,52.209209800444725,57.94325224508646,56.815591170990665,48.617189779310884,40.82713904901015,38.880632949698004,36.85216097338761,28.85857697850712,18.68696498759455,10.349132415147619,2.068177071289095,-9.01703885674879,-22.72279459085873,-35.8036907635261,-47.57962355728663,-63.75695462997178,-86.56625671054388,-100.89422839751077,-84.28099444585675,-40.52269598877552,3.123222020715719,32.0644916441113,50.436075686381336,61.971751468488726,67.85832208981546,70.5222396949297,69.77558373186783,62.78802942807495,52.332253128636815,45.592668539078375,42.95731921659252,37.60783354780331,25.26381006680288,10.928408537184435,1.0692880455681437,-7.024033861687158,-18.716037583838183,-34.38202266133855,-52.12850256548367,-68.49655605300359,-81.6332075350853,-96.12171481054632,-113.75931706902605,-117.9452055305455,-90.75677855299145,-44.43124966284801,-5.469720624254564,19.857124899098928,40.44820464455862,59.897096431782494,75.62660294203422,82.46003231328592,77.83537140908277,68.5185620330742,61.706080609795535,57.15966070551992,52.7538250096436,47.75925654942085,40.33212251350683,30.174263255174516,20.197269125228043,10.13872227831705,-4.10672392248515,-21.462741028789154,-36.11041408253898,-47.508486511789044,-59.88081877384502,-75.66183177505259,-96.16846840093518,-117.46404594425242,-118.1593756530485,-81.29380512284798,-26.45252654454756,13.000978402856997,32.8917488669946,50.125654748320144,67.07287753222867,72.82327102401358,67.00228879652805,58.0146279002771,49.35147963684176,41.405762839263815,36.900033489144676,35.196368942418395,31.708933679393066,24.849652052210853,16.05872317499787,5.5016265290487105,-6.8549265578313205,-19.838373194429327,-33.989051666657986,-49.398213590236246,-63.057574393281314,-71.85870302990108,-81.00666809701164,-97.77022790941083,-108.60060279305358,-86.47389247445547,-34.07778569726611,13.438901433113896,39.58305988824866,57.0148197391595,73.67030202493375,82.76595722304411,79.90213042578314,69.75125684336432,60.553233975549816,56.527725939307764,53.26336062493888,47.302062840987,41.49638375514161,35.55587846214863,26.545809126471717,14.018125932170589,-0.025715657486086486,-12.530780941595884,-24.389100622452723,-38.86843496328496,-53.740379754570135,-65.46941686605774,-78.45622033198383,-100.89869585054865,-128.57747275814,-136.37913279698515,-100.24116789595823,-36.84388010555648,12.424924849661654,35.36131295404875,49.651126876816036,65.92754297679673,78.11846170813797,81.08320609153554,74.30963877358718,61.596975838094636,53.22889710798705,52.63960085153815,52.071791222591045,45.097006289121126,33.674789675032216,23.530268878096756,13.938040321763184,2.6273425631024394,-9.103470520615534,-20.932475976673565,-33.86448080067619,-47.40158304104836,-60.211877897436416,-72.22458814053012,-88.01581341056739,-110.69862203127892,74.0,95.0,59.0
-10.54391550068935,-23.40834820737887,-34.96274214458885,-45.668127990221635,-54.40650392529996,-62.468938626069075,-75.31293949412785,-94.90746565768833,-105.64233226756426,-87.14082186715946,-45.656709893307955,-7.212455265473751,17.876837046435202,37.65202709674258,55.09954333997631,68.42342585433175,77.47786481701266,79.03965460143338,70.02760594737259,56.0818277229763,46.21757215887846,39.548871307500875,29.886295511680082,17.846968803503096,6.394151927252979,-6.0899849806324395,-20.08669330045348,-34.89328815595045,-51.19668694458305,-67.93157373183237,-83.83540581753591,-98.52570993891196,-99.7483492638582,-73.28731018983032,-30.770627428971533,5.1919490194937294,28.897913701052676,44.74199905925904,54.427406287668006,58.45202885057387,54.96764228455184,45.904879776878545,39.72677058792755,38.73399602857136,35.13489386436134,25.86030616369078,16.078122444294028,8.110779544854026,-0.7828512834935911,-12.814884578019326,-26.718573603948713,-39.181113098695064,-51.49187656905501,-69.93906069898469,-92.71379102449548,-99.82573251821547,-73.35564756417429,-26.767179733214455,12.996277104911282,38.17129294618884,54.44210595810808,64.15054956737067,68.87654357057713,70.7893533976287,68.4460204129359,59.79093384661093,49.78694407380014,44.643461113218315,42.02342528045131,34.714507248078604,20.929473090367363,7.554327412395328,-1.1473999444483591,-9.925376039666855,-22.9026738064492,-39.41270513321765,-57.176605690334334,-72.5421679926696,-85.37424743942668,-101.23860298232431,-117.473629231068,-113.44286482450457,-78.0532790172699,-31.61728939015893,2.908140794086591,25.957234191123053,46.23285439221146,65.01383796547411,78.76953975267324,82.16752169873774,75.18540787462058,66.17839056486609,60.28690528847998,55.90950490394481,51.42267706408743,45.95837327596345,37.57015431966309,27.16600132664218,17.4708097825381,6.576887683909375,-9.063929683302208,-26.151113842855327,-39.575307024751794,-50.808900719339796,-64.05076899285666,-81.03626161715394,-102.84810502992805,-121.00853167401158,-111.25961413815492,-65.60958362674117,-12.555215881618702,20.06688720878363,37.56165202514993,55.52595811590036,70.21511577202227,71.97556243186314,64.42683238472627,55.48987637404172,46.887630478699684,39.65156737873265,36.31217557865528,34.53786794154743,30.025298301324383,22.455061388641333,13.227790349633889,2.0592179048530457,-10.556716634097272,-23.757664621804963,-38.37983052118163,-53.729584239771725,-66.08265148142257,-73.98968492279616,-85.12304199326228,-102.7745325635999,-106.38686393078767,-73.11854757667315,-18.369518034786847,22.919063157258044,44.80886218329616,62.04956717299447,77.45551719252796,83.10092781555497,77.36009899294751,66.66097111151628,58.90919020346629,55.814287417857706,51.7369599232669,45.50349286861191,39.93914513343071,33.34652813602128,23.238841005809153,9.971843552977134,-3.8752887080397582,-15.843608969856199,-28.266614208298414,-43.36264377272383,-57.44184199900896,-68.68235038628447,-83.77410768996249,-109.10351820601275,-134.33989529677297,-130.68986943211246,-82.83783615273754,-19.766928377379593,21.224826757045705,39.5081205745005,54.23583534684541,70.24156012167838,79.97675813920546,80.10360604829988,70.85256204878931,58.310019360709134,52.47921142188375,52.88927521156916,50.79792694595572,41.963762231401475,30.48951428324149,20.880917401763934,10.820376641344481,-0.7793942084142705,-12.466676368941314,-24.536789298333492,-37.77396259837173,-51.2316670356641,-63.66764417535156,-76.09762441332089,-94.03992059492052,-117.19807216063488,-127.10533344273037,-99.7843876684417,-41.218327984483174,12.272233015459843,41.233582533850104,57.05634091512976,71.52806057614899,81.70475890765314,82.1060445875233,73.46919505589874,61.04265900209348,52.19065778550399,49.38022231460119,48.10135142071623,44.698679518262864,37.33341676836035,27.086152745537046,18.681076152393548,13.518984223218549,5.807969521583562,-9.818459505969468,-28.64401413884357,-43.457954164994426,-54.9040565683783,-67.09785007045669,-80.2953431256127,-95.24402413750717,-115.35103338838597,-131.06925388123676,-115.6484906103129,-61.24928337421097,1.142865893912726,41.12904670579614,60.37286375331981,72.89455442458076,82.84928603353723,85.74694186037374,78.75023363524231,66.59556256344945,57.42956740794992,53.74102297320949,50.189425559207066,44.4879401214824,38.429224902219914,31.53048550674626,22.00241668796702,10.21116950969257,-1.3382388948843575,-11.792956288261088,-22.55563911695763,-33.93956867727586,-45.59990975284459,-58.18471248583397,-71.16354450839029,-84.95071695754288,-103.56794997731964,-122.66050941157735,-118.67185709839228,-73.5315610218953,-11.28540999708729,30.999180027653615,50.338633592803106,74.0,95.0,59.0
69.69005290520936,70.714532398579,66.52641458994421,56.667819786759665,47.7199683193986,43.9401793927392,40.658417627515156,31.207220720382647,16.651209392994915,4.649342302108085,-3.384513445091723,-13.217275283588506,-27.3849712617763,-44.565931085373194,-62.00037544573116,-76.32243815794675,-89.4171597279009,-106.54918491235132,-119.43302201151648,-106.05714180961418,-64.41892043197156,-19.99716764305906,10.282119461412496,31.895191166060926,51.91696309217604,69.72936710011673,81.01359825165486,80.93260893332493,72.40013354075668,64.1530252822219,58.98465934555373,54.642062210532885,50.026569639840986,43.88801643289988,34.62108025403039,24.25734311187596,14.664189266962264,2.5562322606413996,-14.156705987730879,-30.475575909285755,-42.839254072332984,-54.305281866698046,-68.52310904424905,-86.8667518023344,-109.37731149144572,-122.10912852409575,-101.05874364149052,-49.319396649710534,-0.6400421184664554,25.797690061962996,42.45027839657978,60.691541735714374,72.15781782754331,70.32543447739869,61.79573041639013,52.99185084209489,44.5151164239624,38.26794951566602,35.87010011367651,33.61525544420148,28.07402999803584,19.94178556856617,10.224712241340146,-1.5096356862674032,-14.287175184385315,-27.809247305933415,-42.856408410413444,-57.80250623858575,-68.65543271985341,-76.40350753042924,-89.9826830209308,-106.65149629520998,-100.77920228535771,-57.80597631872515,-4.046615672544195,30.626611172768694,49.76678325475782,67.01404840800026,80.36261862658378,82.43009524123248,74.39456521238716,63.85808683793149,57.721987099417866,54.97141852382245,49.99582454101479,43.80814920807422,38.29711354627657,30.82093738152297,19.656153173906212,5.869571806976575,-7.523404735605506,-19.192531743307555,-32.42364556786353,-47.75694659301641,-60.83681574939841,-72.20993808196687,-90.06561473393336,-117.45214587542769,-137.61920336877867,-120.94114617598257,-64.10346179264607,-4.842884038887161,27.990329906884018,43.49281790544056,59.021772119285814,73.97502622613837,81.02392475421743,78.30026395487806,67.07348201774671,55.675262120545554,52.31311551355068,52.88883034801298,48.89915735992453,38.60364867537688,27.528137265887047,18.17091963524829,7.554354065879613,-4.1764773465862834,-15.855627292681142,-28.257120653144558,-41.700951920815584,-54.96689097474072,-67.07761545163228,-80.46448309153016,-100.63839613698718,-122.65816597635872,-123.61451018559671,-84.69854873598153,-23.67156110709917,23.037368396913116,46.36441047720861,61.276053876781646,75.24537321135189,82.90778892141878,80.37362596696153,69.94915643472135,57.8352391139673,50.89174480639205,49.07529447713565,47.43471951722791,43.02147860586735,34.48999749207243,24.271771620471046,16.99344837207132,11.918434239449201,2.1012398421485425,-15.338150242553125,-33.47520079900545,-46.900317830219954,-58.256695540719896,-70.86215174471648,-84.26523756864616,-100.51295520644354,-121.38028342104067,-130.92506071992383,-103.14296788285178,-42.205579860310344,15.511340852125562,48.14077074266813,64.2502239000305,76.15207667084636,84.65875319881546,84.67157771438123,75.40547108043923,63.33864296155618,55.9630902277862,52.945243373569326,48.689106679370305,42.72908601794108,36.61577374383699,29.088370320980154,18.736214621859297,6.742645407633793,-4.41908285845942,-14.819495006477155,-25.81028689860344,-37.26279530165688,-49.121163776019785,-61.956518538169036,-74.91105893714366,-89.70707579319902,-109.7335745195726,-125.21366701576346,-109.67032552879893,-55.33065044825176,3.8772447920636033,38.23553604532509,54.03593257872175,64.62956863820101,70.95923782459923,73.2074409122173,70.87590799257161,61.23710887382971,50.66001479663354,47.446478974262355,47.51742575148859,43.708914017863314,36.47336326420112,29.298942468220027,21.085076440975804,8.851125727743472,-4.762508538696509,-16.628150186896434,-29.29157300659588,-44.401050470538685,-58.719680753248284,-69.93529890594432,-80.92518804365879,-98.12127292707527,-117.68251463174619,-115.47848109256157,-74.33163076081267,-15.289450572572,28.80939923956256,52.00431049155235,64.95360494910722,73.57060124424538,79.17463340726283,80.45174006770763,74.18204886422325,62.762062656390775,53.95776469057503,51.33407018697851,49.68649598450991,43.39122505188423,33.697688278180216,23.994171355182257,14.427571482890603,2.76562313217948,-12.015865982481124,-27.497663893132216,-41.053911462471426,-54.62386366095012,-70.822968954257,-85.90264945108369,-97.30075481934223,-111.52628910564343,-125.22800052989714,-111.17870140227832,-58.27513937564392,0.5680326707817787,34.56462715917549,49.19047327926013,60.54625917643423,72.04789152504125,77.93057955095995,74.29770063149934,65.04050583332398,57.23817029509554,52.62819602939593,74.0,95.0,59.0
7.034311357411788,-5.157591100141138,-18.06832467551247,-32.0062081433485,-47.348368652508555,-61.50204419085691,-70.88903356299872,-79.38304944520392,-95.2995163825913,-108.58061405190887,-91.72619722988846,-41.5746945615671,8.394323962185304,36.978352174131636,54.710321498520116,71.68615071186208,82.25378411949046,80.87345220644032,71.22303064630074,61.4819126458858,56.86282981242002,53.871827284113856,48.153604226486486,42.2121447453938,36.47692722855339,27.96865386783245,15.840430436676808,1.807773551924645,-10.98297404437633,-22.6954319696402,-36.803535261714806,-51.92217092853112,-64.0242782858502,-76.30936881642401,-97.29614309253104,-125.31990653160904,-137.63796873825467,-107.491513692251,-45.25605443902457,7.565930654094272,33.26658179106816,47.63939895551947,63.79825002889532,76.99074357223921,81.25460520364695,75.72549092142678,63.271014824002314,53.81809437043345,52.50306059298672,52.454680223683695,46.413421938692814,35.20730800442519,24.762638160965583,15.315323841249118,4.193509574004196,-7.552650260873518,-19.30880663934903,-32.07763367857629,-45.612433622738195,-58.58475865466616,-70.55529746878771,-85.47059689651493,-107.53449272969917,-126.35482230045139,-116.50347880417682,-67.61026517361323,-7.559704656362924,31.670479569882207,50.87438032936815,65.51969195325599,78.41012177439833,83.21518721577444,77.96067985799577,66.27420377138945,55.11617267123959,50.05853860243769,48.75867610137077,46.53483917054468,40.97156996654641,31.483449275421496,21.745095903806117,15.54096642753355,9.894489915458271,-2.3284995330035407,-20.89734249511748,-37.84604875489284,-50.16885949767299,-61.752906725477,-74.66765532169454,-88.45229309430194,-106.30560678414082,-126.57402940513374,-127.4285119927504,-87.6035575884248,-23.5650555355517,27.542612508710125,53.77287051276983,67.8684096740211,79.16605490994442,85.7248953260818,82.76664354744167,71.81635238866394,60.53484425247789,54.907082264154674,51.99162702021589,47.03573860297417,40.984231241087926,34.683266812747036,26.3909863520294,15.319917893741037,3.367976942286261,-7.427879364021078,-17.909943033784874,-29.10197469762019,-40.610257407627046,-52.74332651735754,-65.71743423930909,-78.78407953365515,-94.99022736189062,-115.67302119435267,-125.0562646378521,-97.06946010158005,-36.774329725691416,16.660491236156723,43.89846443243133,57.41853055151574,66.96657307993586,71.9526588222545,73.17136258549104,68.79750004583693,57.752650383516645,48.91561739097163,47.539497483470484,46.95035581078999,41.78785454908589,34.32357034533656,27.216261313082548,17.967710769026198,4.832191962043607,-8.35137298035839,-20.02572681395276,-33.49280830423936,-48.79232194166281,-62.26928713079174,-72.85255828427312,-85.05655330849646,-104.2720363159541,-120.5858666903683,-107.41068273454073,-57.404879133359415,-0.1386630210259385,37.23411229561799,56.38528186190261,67.79305152670783,75.4891979503161,80.14278155271984,79.47807443838295,71.09465060638816,59.63157680401996,52.65016056514039,51.113519118238855,48.4130869230162,40.75996253425549,30.813801422340013,21.297640532810995,11.375312220321893,-1.2307236791204463,-16.582530938166784,-31.62780825291124,-44.78343632075738,-59.07183078483568,-75.56725698069602,-89.41503946721188,-100.80013463016148,-116.42529102508087,-125.33611618642587,-99.10166405701068,-39.90471850518906,13.30894512806709,39.94537808336714,52.37115233257252,64.03673581627095,74.61706278110779,77.83773885472814,71.85998821839779,62.420117859515926,55.67115910315165,51.48312039912287,46.949859378519015,42.615886753255964,39.29705761216773,32.632933692387475,20.232728463844808,4.9063650128073775,-10.018112003798764,-21.497548455181313,-31.47225715060534,-45.43774399064537,-61.88963690870138,-74.87239999853189,-87.72169255959712,-107.9845226841698,-125.26803995538161,-113.15721328512856,-66.59689813960486,-12.989074014335582,25.06818810173175,48.37926921161915,63.57931404976213,72.65238305668835,76.8031038961965,76.06641388010368,71.47535185669621,67.31317054075076,64.60152335624532,60.915197274785605,55.73452478975148,48.329379900382136,39.557698980158946,30.133927263294023,18.74979576329794,7.2356716184570375,-3.0407763150307665,-16.471745281210342,-34.66039887812228,-52.21895115909496,-66.3341628228385,-80.19567815123405,-99.23283446604536,-122.03649287194473,-129.79165632097144,-101.84238247189809,-48.09960563430786,0.09879386284642948,29.484168853310727,47.558180472150916,61.17675981754579,69.70783820318624,71.2787374912442,65.95462966997013,56.610842629732254,48.387437530863494,42.12031178410354,35.57551195942212,29.43814635839638,25.121203885962235,19.46703060924601,8.51635110192765,-5.709844391036873,-20.403188925314996,74.0,95.0,59.0
-114.28913115778137,-127.56413652491622,-105.81659490458512,-49.56260801870072,6.53651480102538,38.53567247985451,55.12062344957355,69.68321942427976,80.85430739674308,82.64744678022527,74.98852577757398,62.64461377234005,52.976356026306384,49.548632780875835,48.34357624159651,45.35235229122614,38.55704019388861,28.45207290564888,19.566082244774435,14.173511929814834,7.262245609059359,-7.3546304440346955,-26.27476463081531,-41.7747805130536,-53.397552222934216,-65.3862391330565,-78.50600065723157,-92.99414936301466,-112.4711215684185,-130.17037937101054,-120.22910396743036,-69.87638204451765,-6.225013364286116,37.313133974689805,58.4426204573442,71.33777699993918,81.8029130186991,85.94500480319667,80.15091901238506,68.20616720085773,58.27932199406929,54.089478622255534,50.81213891677996,45.29937156244189,39.24168208860995,32.57487670160757,23.441165885984855,11.826248013447644,0.11782948746204595,-10.41242508741919,-21.073736771124903,-32.411058533388236,-44.00816892959339,-56.453641897273556,-69.44845408629173,-82.91783081388394,-100.77339869040732,-120.784085234232,-121.5412045865557,-81.47605823339282,-18.976442622349186,27.000472533485414,48.47548232639468,60.55678368142347,68.88481340531521,72.66146571705251,72.67729646051659,66.06309123885376,54.48497651938923,47.897999350058576,47.67771078728865,45.93783144072397,39.67479199386044,32.249979983156834,24.950538055530302,14.471826851789839,0.8314640265049428,-11.768542670757329,-23.605921928884015,-37.87664971120926,-53.01037607118263,-65.53721879976126,-75.88415727940362,-89.88027558940911,-110.33554436335363,-120.88882550056802,-95.9591645025257,-39.90868688879023,13.110446012720953,44.097101274801844,60.18222245880156,70.33445887909707,77.17524048542838,80.67797668948386,77.7985701146867,67.72806874946708,56.92367622821087,51.86205823087211,50.76649305461099,46.67484412717412,37.94165440358342,27.994282165035173,18.57695982099178,8.083346315146652,-5.482330389907896,-21.11463282895301,-35.558270322404105,-48.62038950030822,-63.76316578270065,-80.04972320432508,-92.64572654911707,-104.78639979519446,-120.94402058015065,-122.26557141278532,-83.95739231926943,-22.212083146676225,23.57227862376073,44.16111596228586,55.59783506777641,67.47323346487808,76.53791633173917,76.91796257880367,69.12943140427559,60.0771054054243,54.33934670599908,50.2749754201751,45.5648417580083,41.6586275080805,37.95807237176497,29.554835822554992,15.964627390614375,0.38625100176405136,-13.740000728591072,-24.27524034884862,-34.95681659146474,-50.249574392454136,-66.09518799203272,-78.16478506523912,-92.76971424280013,-114.39768579584069,-125.76062023222248,-102.42129567289273,-50.38173792709188,-0.07377619613713382,32.94707006841574,53.45425820935969,66.78352413574142,74.31631810098455,77.12142195591485,74.97324572223025,70.05927472674313,66.49300462881241,63.69256127198616,59.58855336005817,53.84347328823302,45.843394061312296,36.963633692637075,27.052009553179893,15.274048527742407,4.254060239398049,-6.368698801755492,-21.400105188214035,-40.0593127983967,-56.59204128776455,-70.1307975251705,-84.96900027779908,-105.91959776847897,-127.01243262832627,-125.70170278375049,-87.61121850528048,-32.44793047048991,10.387356086660185,35.41011062102636,51.873983544674296,64.28231533131641,70.90519396247164,70.39896371845607,63.43477255019498,53.954915113184704,46.48856082774672,40.29971242119508,33.653152932615,28.040072683716172,23.87049051547614,16.87824389860039,4.544133026424189,-9.915821513491348,-24.763181135594433,-39.3991187411944,-50.27384282440304,-59.211908521234584,-75.75179879800008,-102.02481468267635,-121.50692996128261,-108.57294197291786,-60.292263893779754,-5.961269288794116,30.614290244570046,51.93630954117514,67.82073687857013,79.71541112414549,84.87597508593258,83.19696619726541,75.42352263992639,65.98921182564823,62.30889494908666,61.513949010969114,54.83792536346403,42.88257520221716,30.755879880306804,19.15999940197156,7.190352881125578,-4.378009590816428,-16.925399423588956,-32.203757079244795,-48.36487310199003,-63.77793434144562,-80.5451348336313,-101.44832062295637,-125.3184443673386,-140.10767001309245,-125.2059994323226,-78.54030066041253,-24.721140031030263,15.434290841182213,39.746670662509246,54.573487662360925,67.2679238906721,77.96371051112634,78.46850427405253,70.01761933148377,64.08542473044977,62.418157405633494,59.618670964698026,54.538383788005355,47.932926400253145,38.39734443340324,24.906325196027023,11.54285922866723,0.22161157015746305,-12.948872226501212,-28.789964781866843,-44.98424582028849,-60.602829937536754,-75.75903151501234,-93.74601465758909,-117.79903673636264,-137.44819701048922,-127.80575117894497,-80.25123430176271,74.0,95.0,59.0
52.3796485619939,63.42104390849769,70.39130574625673,73.10270811487482,71.59840302717333,62.828443183738315,51.714147777005714,47.48667281094396,47.64112739642379,44.4977944319215,37.4833058053767,30.230438010354202,22.389064044506817,10.672537521811611,-3.0402381387029873,-15.094669722170815,-27.436040272663195,-42.34402178403441,-56.9833173212477,-68.58057295817216,-79.22573670155226,-95.390164613669,-115.67337397793287,-117.99382682385767,-81.66213200459565,-22.80969660334555,24.31465106098611,49.73221511862637,63.53395331399115,72.60685016868071,78.61023772181869,80.66841581016291,75.45603674299957,64.30143537129504,54.757445687733664,51.450238293034445,50.11985457338005,44.51079142654825,35.03985133421176,25.24420202836473,15.769479690808867,4.511554138287898,-9.925717655519584,-25.524346877869736,-39.33815294742646,-52.66781709922341,-68.59221808637756,-84.15252418416694,-95.80121403352072,-109.30427068065634,-124.3081284455369,-115.54499074821918,-66.66221136607417,-6.125645295798932,31.551260307921016,47.686448093625486,58.95606983932437,70.68944664656297,77.6845399436875,75.26589238315378,66.31435783291741,58.05911500998444,53.15312684467354,48.97401084994387,44.26390112439394,40.763748011969504,36.180518373300636,26.021675967604487,11.532067141741251,-4.01130975919983,-17.11314135095955,-27.05191284315047,-38.90422081588189,-55.11247897755021,-69.89190803428706,-81.66766393655648,-98.58041094570979,-120.03291053719963,-123.10939962247004,-89.09302435955566,-34.45294320703363,11.243534758502339,39.80156645996321,57.961847680298646,69.495720674035,75.60454602395127,77.00463690397065,73.62701704704568,68.80057220406283,65.74556620208485,62.65316468189127,58.13933055536422,51.73831955401808,43.30169219014311,34.29323955356454,23.77637949287033,11.88715655821551,1.3495407565457467,-10.114045000100056,-26.675929302728232,-45.23283174826714,-60.68441443064894,-74.02264032022605,-90.32193109870711,-112.75950155384054,-130.0748505117391,-118.261144986436,-71.88347107598743,-18.032951055077678,19.092060298752784,40.6720184170035,55.8984183412892,66.89357555118674,71.49774723434004,68.95490880573064,60.69414826381676,51.51624672547021,44.69982084379578,38.411768346646305,31.82332735801522,26.80531381465532,22.3713943954472,13.789915311569484,0.4167159047688539,-14.140796194104851,-29.143285987356364,-43.04986069384861,-52.691414305934344,-62.81943055059699,-82.70035169811403,-109.52807004630166,-121.9587483688347,-97.35737529531345,-43.67348012850597,6.737060043739782,37.825591012712515,56.835232718122775,71.80680267712917,81.9530639361202,85.06217026612542,81.5121255386364,72.49388764600741,64.18019568805835,62.23330533178021,60.386164375094,51.66298785870502,39.2682263279856,27.420489340081563,15.718093766930192,3.7958919819531536,-7.768962065788715,-21.083176376767952,-36.910282992153135,-52.87003249428713,-68.3289365703696,-86.09485662826046,-108.29409626989595,-131.4303234613882,-139.56804279787792,-114.21014789394357,-62.44974669800526,-11.323547965105252,23.872815475238063,44.6523943145412,58.22723548943144,70.87790589846966,79.43872875854045,76.45689403664915,67.67103894108115,63.42368264390281,61.87173448055958,58.34096128080651,52.78977350152248,45.60069395412858,34.80805348492706,20.80703809881489,8.183110665593158,-3.231509329115005,-17.360150132891444,-33.50165931248107,-49.57365763694277,-64.9695057084697,-80.42375613700194,-100.15504454856385,-124.90615359369609,-138.725751234501,-117.3113745085116,-62.847768925767795,-7.500393406319944,28.35670434086234,49.8583569012799,67.55661128800377,83.19702209061495,90.71074540847265,87.47332835435581,81.17532672733404,77.59146262703541,72.60195295156741,64.20539590583678,56.26126273949827,50.058050097100036,41.42942931703214,27.997958976732022,11.705805210219179,-4.391100205550788,-19.828088128932965,-35.446394835230585,-50.893070297732024,-63.8395367607824,-74.60443729113823,-88.73767281709719,-110.23400064883552,-130.90872207453978,-127.20259500454947,-86.45565413421355,-30.58232570456826,12.617741908400024,37.50205616064794,50.34437491262789,59.36012650725651,69.78720143609378,75.97521007501386,70.17929925395339,58.39314092992332,52.30651999500038,51.15133204022496,48.495413311033936,43.42232752520615,35.7813176819906,23.699989103523528,9.58970721618102,-4.044931051809171,-20.27088051400675,-39.75789734435725,-55.60830247562891,-65.15142235192624,-75.14198111940887,-92.16382013875234,-113.24231427311805,-119.47563792949231,-91.79792427148381,-41.122392805418514,5.140463060888717,38.81859833553565,63.725421664673355,80.6387136162224,89.01788508357183,87.85418509694621,80.09283659224673,71.32677184821684,74.0,95.0,59.0
52.01542749263191,47.59657002860428,43.10066889626938,39.804469372852516,33.878021647678786,22.125758681592725,7.0044303702288415,-8.189205400278581,-20.170692163462043,-30.0053563685681,-43.293455104328764,-59.819848959829024,-73.34887862197522,-85.65624499160819,-104.95857371048677,-124.11896275869694,-117.07046568772627,-73.9481647278852,-19.45915340445742,21.027321650726506,45.83302111725012,61.9286536599658,71.75328594470132,76.51568244597871,76.45531098777575,72.15723988367984,67.7391479218335,64.98086610048583,61.48971213399939,56.53605210220967,49.44059805172841,40.74203867042514,31.487379701640823,20.35418832351625,8.661672853541994,-1.6123106905966211,-14.350627359946737,-32.13371371115131,-50.09291265963429,-64.57793831811077,-78.16119595486285,-96.29039020609284,-119.29097793201777,-130.5728602265661,-107.66285573881477,-55.57255853631093,-5.222697524487942,26.45910931007556,45.46738428489911,59.59788045354683,68.9540301359938,71.48608440116313,67.00216026221622,57.886886062893865,49.32245819623678,42.94007602540221,36.473892136429825,30.1476024134764,25.65512970135783,20.490456496648704,10.262321626946369,-3.772630094917343,-18.412478754490838,-33.45823751714447,-46.27792909533884,-55.10506887144573,-67.33052036146391,-90.36590040406232,-115.86220431764357,-119.08203718547601,-83.5137330251176,-27.478964669792216,17.644926044622423,44.04248975981701,61.47077375083829,75.39304411763817,83.57790072692036,84.69942005923595,79.32767007306987,69.61273855917712,63.01185172738029,62.16832513459041,58.592254048737516,48.1847609248146,35.73971514367699,24.09220676170012,12.243685502004514,0.46167613760413634,-11.31932510528979,-25.477778863985627,-41.61396648875828,-57.303107553988184,-73.08063734961962,-92.04346908652681,-115.31125933685881,-136.33801811112193,-136.0257689409576,-100.85192827215216,-46.525220638373554,0.6235705331233182,31.08331458278252,48.95372172344547,61.87696610264178,74.19668822117401,79.83037940989607,73.91869002686722,65.82137602906265,62.994051739017785,61.119068167447544,56.89392101007364,50.92874301254989,42.951278744543195,30.90675300215265,16.86728427613477,4.960160661427047,-6.961180589850153,-21.94230425985193,-38.19438981186621,-54.105280890505355,-69.30767169342529,-85.45758187988022,-107.11069224588873,-131.18884065868258,-136.8621637239187,-103.80528577875023,-45.48966277170044,4.988464831430906,35.48765382799944,55.079225325438905,72.47273469179439,86.50893995398575,90.69786735264063,85.51322165065721,79.92006875925473,76.53670133851162,70.40584469688399,61.683478990616756,54.413526405735176,48.01694305261062,38.01865213898376,23.430135015293242,6.953359638539396,-8.876348224294091,-24.299907968623824,-40.00603701203715,-54.987224323598205,-66.9981666907057,-78.04908576735603,-94.22885486091258,-117.12426759443242,-133.47909525996343,-118.86309783734193,-70.34044344637798,-16.11952270816647,21.480125183133033,42.1108124412634,52.967691801120296,62.25270650099177,72.49107789184751,75.58338796193853,66.77143228507953,55.79607065008824,51.801066976790985,50.69265439181564,47.21765574509108,41.583978421310704,32.74270245885976,19.634203414521398,5.643510187332154,-8.27226835555411,-25.78839315244381,-45.03417079307238,-58.83561431968966,-67.60462655533294,-79.21253888517744,-98.36659814309456,-117.71049561793912,-115.18875529377259,-78.21695330093065,-26.458383686168183,15.998215142987046,46.816640174597744,69.45047653299623,83.9849810256406,89.65490740320031,86.01746086056396,77.48485492480245,69.02756039167978,61.93581444212385,55.96567951957823,51.54514198049104,46.95262978010192,38.73328004596299,26.467591935257538,11.66141491571085,-4.413684678100415,-20.969097406761662,-38.3096818089725,-55.55869597759334,-71.05109981603306,-86.32047385711282,-105.6528539988143,-128.89063018815986,-142.79319134872887,-125.92849108136895,-76.9345542232569,-22.954265783886846,15.607925420137416,41.101694223712684,61.95994134680667,79.66900986552662,89.50460990579938,88.14488887984956,79.806253194609,71.7174104675242,65.70934087879961,61.12562795245078,56.757038851884786,51.32469744242044,44.7946861383067,34.34773205650394,17.72533083395966,-0.5056046867814924,-15.593214927670601,-29.717520997677717,-44.674044266742364,-58.52252274539192,-72.7236242261158,-90.36675939072846,-111.53845938812583,-132.18977216073685,-136.0163947524603,-104.9263844027144,-50.08308594260953,-3.0228425384878768,25.30807069054953,47.07916948490033,68.08212485323448,81.19315799051941,83.41831659588172,79.78471811942015,73.54314291913872,64.86329246814681,57.55484803696067,54.33113639924241,52.14160295550199,48.09497545970249,42.086874282645724,31.707962859962894,15.854696029046632,74.0,95.0,59.0
-22.7470580287382,-37.59030924839316,-49.091606417658575,-57.7965891579104,-72.85905131529327,-98.36531383489596,-120.29682189425276,-112.68462673463836,-67.86119115002374,-12.401308002811163,26.867154898436493,49.55995050207616,65.8758462835071,78.48120582056325,84.60064815463544,83.79527939778824,76.72560786714803,67.02399008981924,62.42711840179309,61.82929948083657,56.15281141789932,44.56351325241839,32.309667322115025,20.7289401720443,8.775839113233612,-2.8452669468955696,-15.096664944580874,-30.053287151410576,-46.255657535581875,-61.7226240726098,-78.11263931892302,-98.39422556546425,-122.24690188632972,-139.44499336631188,-129.33015119985026,-85.82088950529544,-31.34726728244002,11.091211689134221,37.225941393488476,52.855176696298194,65.56617392135902,76.95601667263978,79.12763292337144,71.21947934830867,64.51868737574418,62.61654236638866,60.141977620277885,55.30869972995957,48.92262980109231,39.925641735135144,26.8153349100956,13.164809485992102,1.7424705766239768,-10.994012475574024,-26.619328646259753,-42.85161719123759,-58.568963954311975,-73.69194060974093,-90.99579722103778,-114.41131362648422,-135.95882489860952,-131.49116954439765,-88.03342997121905,-28.97397528776674,15.657028023394515,41.727084791596354,60.190051876747276,77.1524083824754,88.94370164680964,89.82654237067567,83.57682086467082,78.91630068453118,75.19906024664411,67.96339907369727,59.32149395908075,52.674352736123666,45.63971351916618,34.2009479100846,18.70472385368518,2.2804083136250854,-13.328602005555657,-28.80460545933687,-44.5226110914538,-58.798645625217944,-70.04284821339455,-81.94904204966089,-100.38188633626713,-123.58077434340086,-133.30356712844937,-107.4332563108923,-53.819980562679845,-3.2198238202582554,28.899124601694986,45.89146649432334,55.49322686684187,65.31780651080179,74.57483107497148,74.07350817870895,63.1883930685735,53.900606123682905,51.53172258387242,49.984924111914445,45.78103027337969,39.48368147569144,29.300995277362162,15.516528274246292,1.7508093993248286,-12.849529819777592,-31.499892038640443,-49.79036384698239,-61.58504510347893,-70.32098861948292,-83.98686021445185,-104.71187118263838,-120.30026155379596,-107.7540698254884,-63.37724010967275,-12.767065148330008,25.869351707786592,54.16282905616442,74.4967249033452,86.6015953682114,89.46700971427525,83.77303032708531,74.91156728061225,66.85384500216702,60.08225707543263,54.531805365070575,50.40354119799671,45.04608604681506,35.53929854744155,22.39242965980352,7.091230705983299,-9.144396244633054,-25.89297854693894,-43.3961105587953,-60.23287354911555,-75.31036310611421,-91.32523081669441,-112.25221441993534,-134.83064374431845,-141.80561768526616,-114.19984996482894,-60.486208669069214,-9.996234521078575,23.886581721320315,47.368496868645394,67.54623972386118,83.56708965590755,90.23614253338842,86.08700331010759,77.24562700761194,69.80144320649694,64.26430944644704,59.92806788791072,55.296897942298976,49.59524623572906,42.37793140615708,30.10179807296448,12.309269804414287,-5.209614155018234,-19.58824331854567,-34.02657795002912,-48.831001868651065,-62.41097462327216,-77.41552950797517,-96.16813961389094,-117.9894040618197,-136.0662094410756,-130.8664301061081,-90.13492887961654,-34.55929620798202,6.742782111315553,31.678939192048958,53.42808810072245,73.01987318810376,82.81188647742428,82.71149058142227,78.25779664709282,71.19917384941506,62.38576486322489,56.24654855741024,53.802839878940354,51.16781565495888,46.613160918319636,39.67602346034961,27.593915308757758,10.782208912290837,-5.6743556850873595,-19.734353030139793,-34.187141201535766,-49.67100195563695,-65.52143854558982,-82.1065947203282,-101.31137083931398,-124.21478736905726,-135.0823955788917,-108.0119416743775,-48.44539323254327,7.64738987911557,40.928355353247994,60.83950551565899,76.0860221904197,84.73379968487954,87.4757399627401,86.73028662206517,81.78722981558622,71.92645984343872,56.8291591415055,38.784507289340176,25.56458756014846,19.78152577860361,12.920630631691635,0.040158672799452205,-14.533764228885769,-27.839903144041905,-42.73086436949977,-59.5036907027541,-74.29510259174174,-89.46825182528333,-110.30524219975217,-125.98647794043544,-113.0235612612917,-66.83453794969549,-13.068935710538357,24.653783030532285,46.86236995540824,62.218255660246626,74.14452658611604,80.41876046656722,76.89084786697529,66.64661488321805,57.59242374526941,52.67001716406053,48.886889466565634,42.93799962597727,34.176062518023464,22.895873178236318,10.271619590922779,-3.614988628459491,-21.452105773013958,-41.66920534596642,-59.095630542016295,-75.10002984654449,-94.91882474146219,-117.48702587231588,-126.4538283740383,-102.13091686125794,-51.53939873265637,-4.787124459413021,74.0,95.0,59.0
-70.92047012601205,-13.87991903242265,24.67782067304414,47.37910379252055,65.2469703569603,81.42181691521711,90.38818375981472,88.31324910473657,81.86143231483527,78.018382073159,73.50541481808224,65.39549385986082,57.175635810726824,50.91538557897978,42.857293326114316,30.025096851238196,13.914039148718707,-2.303937733686151,-17.774562250666072,-33.34450879702733,-48.92442968116446,-62.312060642547195,-73.12427690101504,-86.44111510089962,-107.05415507433793,-128.97444292905377,-129.91324627355974,-93.50361879951431,-37.698315754937745,8.002804853984548,35.04703184538637,49.04360058646555,58.09857974546974,68.41233108037954,75.77479656287908,71.58552718011725,59.801825126362495,52.678403711034946,51.29546730772167,49.01923324957689,44.20267519754285,37.04089668878862,25.52463412292306,11.439995463584124,-2.182543016693738,-17.836762419326188,-37.198167110298655,-53.92095869331951,-64.04948287683322,-73.48819743232168,-89.44585394874053,-110.73408924775279,-120.40117746310813,-97.40986554696153,-48.10417096042283,-0.23805150563319474,34.902812423417785,60.859891712311786,78.8593450522066,88.44289012462333,88.51733234633753,81.28362001462314,72.43042291176727,64.79003191029116,58.32144925948856,53.24345286686455,49.162791100952234,42.76181867329954,32.039449948639046,18.13895823508788,2.447526594058762,-13.909119911741676,-30.896288003481356,-48.42719007605726,-64.72932842156781,-79.63322683784224,-96.78667516681047,-119.09449134605208,-139.50753395336352,-137.71487728566652,-100.11817488949451,-44.45751794817652,1.433004767150333,31.305015477754957,53.421623807313665,72.81644680537009,86.6583777988424,90.00175881853131,83.6394554770474,74.85239200791592,68.04118965429474,62.92996135174984,58.69958987469929,53.737573097608205,47.77451241436162,39.51513517976982,25.340329399064984,6.940322088982649,-9.59422002011173,-23.622596341685153,-38.38490688515519,-52.84205819982841,-66.4263378539215,-82.44120262074195,-102.25184378402516,-124.24055572307219,-137.96947017829356,-122.4751784094304,-74.0403376451943,-20.45681788702287,15.03073958338595,37.89972740968908,59.66457642589806,77.06677422660387,83.56225232609309,81.68153709321717,76.5218045901613,68.66761352809372,60.163382899074215,55.288655651299344,53.23285607556649,50.021914513421144,44.96099737984413,36.81000898698571,23.043230829358734,5.766611489367115,-9.891559379170598,-23.76152398193009,-38.60698064215892,-54.20734192227893,-70.20546466817055,-87.23038700365322,-107.7749337807216,-129.8705215834789,-131.81686533602337,-92.74911604557593,-30.352944373430667,19.531291680544648,47.403076328773416,65.71773516384735,79.35895241551762,85.97346801298478,87.60694583478308,85.78949075298756,79.45344399828015,68.10579457366121,51.64876707154222,34.10953894728201,23.377894071032234,18.337805787799674,9.740533109645094,-4.261328580583764,-18.442827073183256,-31.838764585582116,-47.54508493477827,-64.08171940463278,-78.29202108487382,-94.95943067983815,-116.37975645055525,-126.03764007249512,-102.36681914652978,-50.63706649737708,-0.1261005420096063,32.22812184387765,51.740767604603086,66.00719838422961,76.76618853398864,80.45922091170688,74.26392566846089,63.631792478031755,55.80536571877129,51.653046693837155,47.459246207995754,40.68840753713207,31.146496431714386,19.31914616962474,6.487163396207987,-8.275996839147759,-27.315418130723373,-47.0914378092039,-63.62779090928964,-80.26246416120271,-101.56180937157733,-122.54300271189447,-123.24744137549453,-88.99007972290121,-36.458913639316684,5.417520047268059,32.744326564997195,56.64226259633038,77.38032181859208,89.22691341562447,90.82002407304554,82.61377268081223,69.64825476923873,61.35212857088705,57.76163724062034,49.95211523038427,36.78097208499988,25.207799607985503,15.339038132906724,2.565442247209196,-14.267866884544752,-32.31256034232318,-48.4131621703531,-63.47807564073786,-79.5700969150353,-98.46321950137059,-121.23487371855676,-136.75507718110302,-122.39328101021748,-75.13142265038131,-21.66082195981362,18.851094128104233,48.47966092885619,70.94940133909681,85.94483770407456,90.7362056678963,83.99780330467908,73.90339555028952,68.14640836658485,64.3955995348867,60.08111568072476,56.49245056367066,51.248144547221415,40.976539817816494,24.97555754205899,4.916113340841668,-13.571042187134804,-26.47761365531869,-38.87989097229598,-55.93240266628005,-75.02634386225304,-96.20645194093244,-122.64051623696653,-142.4091258957192,-131.0844487297861,-84.0950265066682,-27.940548330048927,13.19711927112143,39.791834674338766,61.55244012253986,78.3827259141907,84.1753700441303,78.2042848251962,67.49507707815201,61.01485322672572,59.888825905303335,57.15845818003329,49.477765231029636,74.0,95.0,59.0
70.07143932408351,62.81773180505837,56.67732844375871,52.06715315394227,47.71574357097711,40.0903942190442,28.278513460283946,13.734656441043185,-2.2415967343222647,-18.725616041540363,-35.96240236997739,-53.34391100190726,-69.0786897402702,-84.14310299497663,-102.7446072780854,-125.88656805288112,-142.30414443613267,-130.37572031087282,-84.4535889156868,-29.433165799549002,11.429124934013561,38.11097574447611,59.30676207367662,77.63814983303114,88.83182845407984,88.90084341195217,81.01979694671626,72.66089596514112,66.4161053542979,61.682311932904796,57.393579813404635,52.10055989785567,45.79189414849572,36.11219917183092,20.187377409564064,1.7758954963045994,-13.734938796076774,-27.765349167690687,-42.7113726029977,-56.741518354854726,-70.66966414497988,-87.79339690097383,-108.57132039928808,-129.90911987837006,-137.31361969883756,-111.06605801330842,-57.56402220944146,-8.10398671385365,22.233948671285553,44.1621310411065,65.55413322980536,80.12304492277796,83.59644547489077,80.42623050129926,74.54246439853921,66.05626951943665,58.28867841266247,54.59470199365361,52.52724663164577,48.732577890036815,43.066635634469684,33.437571952861106,18.169791775367877,0.9321746791239959,-13.935175959999553,-27.904957559316664,-43.08226040971186,-58.773789365552005,-74.95985691925921,-92.6540237770666,-114.53706321437015,-133.86849248111224,-124.80694805972736,-75.39823171392796,-13.532142936595744,29.409884129968866,53.169595691834495,70.26338524987246,81.99007135215109,86.81035677709062,87.47276028950657,84.45978126971006,76.70645327130222,63.83002328042397,46.33394414895005,30.077868697269313,21.73803093406695,16.527147723735688,6.0524549937497225,-8.535289539628168,-22.25047634565309,-36.07382249116727,-52.450808173115036,-68.38817292522434,-82.50265315307907,-100.99989321408682,-121.52869633544779,-123.0962611573346,-89.17419840666356,-34.65335007786979,11.122764497368658,38.740935054089974,56.22095635947776,69.54202696729418,78.79923151129142,79.60147490576689,71.25571221832992,60.903440408227915,54.357479164092084,50.61947098484218,45.798343835476736,38.2077341909534,27.914897371278673,15.676235655233633,2.5625061651108716,-13.350184579230117,-33.24535954476428,-52.17849325125091,-68.1603109165959,-85.87361252349311,-108.30383953372512,-125.88446793972925,-116.8708054529732,-74.21892369267897,-22.49070507517285,14.297396171540608,39.699148084829126,63.25691317119125,81.85444792337677,90.73555960561477,89.3835193300287,78.92687402265018,66.48208185492787,60.19409794009001,56.25686092191228,46.40459354540887,33.06097817816579,22.405486792788796,12.08135178932187,-1.9397087264713866,-19.549972524093263,-37.20194637092701,-52.758139051543374,-67.9666958450105,-84.61651316173672,-104.79054481257353,-127.42102130392541,-136.50330212727388,-111.27340020257235,-58.98066292839214,-8.4694440354563,28.2582795580635,55.680535692276194,76.11396080487894,88.55833076734298,89.79627264063254,80.90963427078898,71.74448574735975,67.07985348385435,63.157334574032696,58.97194724141559,55.34762612264028,48.86502853429075,36.92990910114987,19.42181099392814,-0.8973892146446711,-17.813924879101457,-29.7466816554635,-43.335137718445,-61.407595097442154,-80.70819356752015,-103.41160497504839,-130.09695638202894,-143.21365078288886,-120.40810511689521,-67.34537534056946,-14.083697560055118,21.880044261738515,46.34294172612453,67.19437831895092,81.38835440117126,83.46813065288231,75.15607476795883,64.91912916005684,60.37605483104405,59.58471718057298,55.35235114271529,46.87484473099377,38.72512486821643,30.28443952419935,16.561711256286145,-1.8501764865250978,-18.29587761670272,-29.797933002667587,-40.386446739302286,-54.69862754012395,-74.27397038891188,-98.60232059064164,-120.2943289763295,-120.09780299376976,-84.14119508310344,-28.5691097940912,16.224653438897413,40.258754429914234,54.1854777293232,65.63617503093326,71.43087621337017,67.53647884287624,59.33950211465945,55.25969353247802,52.95277022492927,46.55089925966897,40.64719247835763,38.89137306380399,31.443883103350178,12.62079235899694,-7.470575207646824,-21.970020987230313,-36.307595786001755,-52.90472267412511,-68.25069507529548,-84.95833411580611,-109.05902451826933,-128.91767303280318,-117.31601683074304,-69.0878774474625,-12.911224312747542,26.006737369096882,48.04502932627746,64.2231793273796,78.70021640203673,87.14054608363162,85.6530434799894,76.46140374356862,64.7057734487801,54.70041938148916,47.461926481747746,40.7887815607572,33.29809328612663,25.063423888040344,13.72846193120012,-2.4358815972313796,-20.454144380799374,-36.368641466599996,-50.55275660335959,-64.96122537541666,-78.78027229477028,-94.0796698472877,-114.91692107474178,-129.84351883138802,74.0,95.0,59.0
