33.31723652971065,386.0260349939048,509.4077965739284,457.85990253489376,396.0696484040038,372.6127631570276,355.39910617526897,328.66590990910254,298.2553389092274,267.1339193885666,232.45988235998752,191.50471645962386,145.30764786026123,98.23519990432337,54.91925328269998,13.610504010344279,-32.31090085542804,-81.59253864153317,-126.07925802243885,-165.82364911978433,-210.77258055785205,-258.85497541817983,-277.97783825080205,-232.60177627100387,-135.66492788392097,-40.69249203995767,18.391050804138704,48.255684509484134,66.7865551000481,79.28686586904809,82.19849656978697,76.61136267828783,70.32072985721834,70.09580397397669,75.55612730120012,78.78314867543519,70.43593280960286,51.434830999749856,29.58283438860469,8.375638246552958,-12.135393315904317,-33.550943983011564,-58.28055494017859,-84.54866742644035,-110.48080671855067,-139.67346297282094,-171.419557564254,-200.90565146583566,-233.22383977620413,-264.2591201688454,-258.1733762703375,-184.0680619538029,-68.76061020062953,29.07491378673888,84.71885124965398,115.73931889420453,139.11677306303818,154.42696069516455,159.4876241346144,157.19777092034946,153.47935457788742,153.09922951848304,154.2029622072308,150.96228371964457,140.11466145083048,121.02615032738855,95.84088706448075,70.10324298235543,46.666110846204624,21.90840739076501,-9.678255485577306,-46.96795038438255,-80.83198055784268,-106.4509390543489,-132.24332801146082,-168.36378374532896,-211.29297677756094,-236.14759867521752,-206.37787887083772,-118.52185994968215,-19.578079771983518,46.682086588036256,79.43263884537787,98.8132076598134,113.36253544874354,118.07153385238185,110.6759174908639,98.94085858521682,93.30477613054703,94.79854199199423,93.73184843664843,82.96053515270546,65.55344308502727,46.28087415770101,25.673808615677256,2.407564420317613,-23.658276778428277,-50.058584917178855,-75.35185232507052,-102.69225693425955,-131.05590745677233,-156.43259450688723,-185.53333923756182,-218.85689244986312,-223.9886047937046,-166.08545435245483,-62.1151283713685,32.64099672406243,87.11347957072233,112.64660690090604,127.76074557846503,133.82666407114354,130.58911287322255,125.40932158534784,122.01753033618769,120.69755783935933,121.59319363425436,120.39961000291706,109.5683688039991,87.87852169644955,62.746847709366975,38.36556861110893,11.914114588438288,-16.07107769967758,-44.48678718495415,-76.37149901942679,-110.79154222309988,-143.58141846808323,-174.108895866661,-207.5261979036141,-243.1265055349686,-255.71384612703739,-209.1503639995832,-108.80025932675369,-6.213340956244677,60.842861902207844,96.83365758959141,121.1283352764651,138.39314373713074,142.34582413094319,135.8379149337641,129.53706147193114,128.09607864066896,126.68642075897054,120.77569318951663,111.01313783218947,98.44433164063952,78.95749899236874,50.48476911401221,21.174625141849457,-3.439634448119596,-28.039948889049345,-58.70753949825577,-92.09558881854409,-120.95250397019117,-145.54370676158044,-175.18554743654647,-216.49596547912643,-252.15612424025423,-242.44467788868297,-168.44657328277998,-62.12874413393734,27.741079716289953,82.69623463680135,113.21004334737464,130.50468581894444,137.34173993172286,134.42788476627246,128.3339408078618,126.930103318302,128.67166386164658,127.88201876058775,122.24478956106948,110.91518333353548,93.45734547760159,71.91484375925707,49.68492605978119,26.29171999788019,-1.2376915363022383,-33.05530599819655,-65.16905642889178,-92.37315083403904,-116.7097241909863,-145.01204258662807,-181.1978997803308,-221.9321930303959,-243.53542200131363,-209.45946275101997,-118.26447827169784,-16.245099272964673,53.33610051317052,87.07308964190331,104.71140479032267,114.17359253114155,112.4412271910644,104.77713373156787,99.89490136882375,99.0707430534954,99.69747567039293,99.7617220833849,94.17727319782249,77.04577387881596,51.08941653684967,25.35568710259213,4.504445802113116,-17.503561637583136,-46.737262906768606,-77.6554729971554,-103.354924757013,-125.86838580456643,-152.89893306693398,-190.09905066491405,-222.65612317402307,-212.75322983636846,-139.7643523042918,-35.9840767566399,46.62643074796771,92.88472232523671,118.81094993860515,135.18525745910608,141.0209703972482,136.4236377766791,127.73357496106185,122.60668356749801,122.63235998451738,122.59976313380352,116.01597148816977,102.3343035053908,84.1034972891017,61.55950001564835,35.38063993132698,7.758879642164739,-20.729699966324624,-52.03127894015185,-85.86021535651055,-117.91363191177628,-145.93265918333537,-172.45048837005885,-202.9391748124913,-238.686359271636,-258.3865573660134,-223.0321084160331,-126.98581898428165,-18.358946880513408,57.44706441423428,97.45712235012529,120.55848132354787,136.86565471253124,143.88657343448443,140.3713694637546,65.0,111.0,81.0
153.93356751422886,148.66477980014284,135.43285509123675,114.16180707317429,88.2205641729794,63.141584110648935,39.92856468594102,13.62639912649081,-20.181794699801987,-57.54073373162645,-88.9387784087903,-113.29941282656485,-141.430048995571,-180.72159171563274,-221.99276538457767,-234.39747334846115,-185.56678282126416,-88.47879504571773,3.770202300532386,58.73191019179012,85.65398497078284,103.6117794260258,116.01634405431318,117.00437477440103,107.21089667650874,96.38076573065878,93.3041195401913,95.26129108463734,91.63659355126337,78.3381280097745,60.07666107870457,40.52097941565464,19.271593865651905,-4.894899120772049,-31.403413897455714,-57.392424410680405,-82.91326558073102,-111.04274805181217,-138.64240911526926,-163.96894633809387,-195.5208479317866,-225.29199235945723,-214.2251101604503,-138.51637415885511,-31.515608073843598,52.63239693884788,96.39120911234123,117.73032306288424,130.62927683388324,133.5865013320219,128.98092353140095,124.24312365424603,121.38157120353108,120.80590754118873,121.79588500188545,118.52560570610419,104.17958936055767,80.6084042764355,55.69546530115454,31.041417083873696,3.835436265613726,-24.118950948486063,-53.26119144221172,-86.23738102532194,-120.58166816054997,-152.48502291008336,-183.20550246781187,-218.1367613734528,-250.91637973553577,-249.30325586048102,-183.85070927391226,-76.93660331657156,17.315111159723994,73.50528512953164,104.4572156576221,127.10404600231101,141.05566908639284,141.08534322002168,133.58546848854647,128.70651729506295,127.99144591513605,125.48673475761476,118.25301415380957,107.73305652285917,93.80764523997307,71.43026409049111,41.6696844998699,13.615865830743921,-10.172662082112547,-36.22405516003109,-68.43918207933206,-101.09162888555512,-128.21155665184878,-153.07048502250245,-186.07308126021059,-228.9558620447295,-255.71580994486365,-227.16192509794075,-138.69133909530638,-32.86615256371945,47.02748149079713,93.36175149973808,119.31012862268123,133.56952901772578,137.35546227675994,132.54837220486772,127.308631178975,127.39333654647378,128.87317835365783,126.78817240311625,119.59648705612065,106.47370201380542,87.48557345521398,65.47570034934222,43.191810167962345,18.84142395924645,-10.083170050980273,-42.579598901720445,-73.63472864875985,-99.38913638024547,-124.23090306040656,-154.59079790818845,-193.03263254668428,-231.83870848282885,-240.56911722886082,-187.53194903042856,-87.41538377482172,8.152028932916128,65.97289048169627,93.06756048441065,108.42362912202493,114.81600810830446,110.37127378357367,102.8661818397051,99.35443268935302,99.19277149673107,99.89995467843562,99.06531574833282,90.5034785592029,70.08234116821812,43.25156360552553,18.90152183977219,-1.2915982660298742,-25.24803069428504,-55.92617248065047,-85.70190878219974,-109.90231882421975,-132.82013058088506,-162.67824476013308,-201.42478855788102,-225.8684809515818,-197.75710290072166,-110.39282886120608,-8.333915356748363,63.252536800507656,101.67665199211295,124.45400897454891,138.0618565231648,140.5932229477508,133.9413685550086,125.66553730677587,122.21109173087014,122.9686965224452,121.53469543877186,112.66151746910428,97.48049854467922,78.0472611264222,54.28168884751291,27.458564520594052,-0.3170101044214969,-29.40686355990895,-61.69073757743523,-95.50537745201034,-126.38253673336442,-153.55159232152943,-180.57956933628748,-213.08834180641048,-247.72347437560154,-255.2273184716397,-200.11749972760845,-94.22170358789405,7.844307096936619,71.92332135219434,105.10895046621236,125.93332528374853,140.05713319873738,143.77314614133928,138.27313565417873,132.26245145728336,133.0782553137889,136.62346775444016,132.03056368855587,115.0822592460408,91.86488954862695,69.97684379143227,50.10313727308991,28.322552674892467,0.3432186880749844,-32.92623103320178,-66.35949841870674,-96.23859915299283,-121.80308590599859,-146.46378508617198,-176.05860525591095,-212.8948530032692,-248.43233791393047,-255.45322360296862,-202.39708522155556,-98.3554402112548,4.116301360058834,68.27657800806126,102.42292773812463,126.18280854873909,140.8972654129554,142.09162123174244,135.76416307942213,132.59001697167528,135.3947957758477,137.38153269282486,132.1777353512223,120.2669400918035,103.64045984558555,83.32435107780466,60.72059833563503,36.437499616314014,8.89277156142866,-21.760066973262663,-51.11924892280896,-78.8554372614817,-109.22377480725626,-141.36841655026103,-170.24419076555174,-199.3869673644857,-230.67519146466665,-237.01878131291107,-181.81652264544655,-77.22005390396271,21.748616482697464,79.76800744699528,106.00210945167903,121.30448569053782,126.84413214107629,119.30881103152342,108.17574097223255,104.75004299779117,108.34664650354713,110.55509748193768,106.2347168374284,93.12627331807832,71.22993571114029,65.0,111.0,81.0
-62.40457281638882,-96.2264837760464,-130.1303142299044,-161.24731094981186,-192.7244350723579,-228.7761969789871,-255.85492544756727,-237.1477453044923,-154.8427824569751,-46.37677215938577,37.37980600907032,84.05194057569733,111.53405240767975,132.39017155946368,142.44857098163803,139.17317174918531,131.61845267409467,128.28586299006668,127.70272801571657,123.86021608456491,115.4644835900771,104.22197482501795,88.41389028000233,63.21402312747263,33.056643919302,6.484582342717221,-17.11508735371288,-45.00425886896836,-78.20727001710083,-109.55514487933945,-135.22538049362504,-161.32223549094192,-197.99650076040024,-240.19514134134835,-254.40170092563454,-206.5073214656301,-107.49803293311749,-6.055206884512529,63.37593560570617,102.38068584805991,124.48846859664583,135.7563017388052,136.59392408132265,130.64782423295662,126.81331078629957,127.9691810965474,128.74779872218457,125.26808340656123,116.45018760167727,101.5191064919137,81.2580213714092,59.055313601975435,36.52832020342864,10.985010939791323,-19.257421591910834,-51.983544844155745,-81.58352819938595,-106.32316497371602,-132.23826702437307,-164.8934407080796,-205.07832578408832,-239.2837923005656,-232.08150493746197,-161.38860338406676,-57.10520168773537,29.089532636557998,75.96909364385873,98.2355729430378,111.41598057022559,114.45902466211288,108.05980958888655,101.35256790025147,99.09909298676682,99.37734719491809,100.01202660285928,97.71372769421188,85.76043748560065,62.561589227875466,35.669566072113696,12.880142981979667,-7.4455273875727315,-33.64469288300064,-65.0088323863259,-93.21375492721029,-116.32098464541968,-140.36942071795434,-173.39305760335083,-211.6931596667475,-224.4719328534307,-177.39966818534478,-79.80573908896449,16.42529610486634,76.97962160946588,109.27421255058059,129.38931254714433,139.9777782570274,139.3544532209637,131.3317448991172,124.05287978499017,122.20823871433176,123.11592165107422,119.79260629225863,108.77901307769157,92.29498536069671,71.61299374812177,46.74125307630393,19.477335272756736,-8.487909630657086,-38.37889379121605,-71.50481182481036,-104.87088911689722,-134.51582441236044,-161.1377442563646,-189.2089768358138,-223.6160199287021,-254.5862402656775,-246.47239194002668,-172.61773623529356,-61.96797288942207,30.564151365967998,83.75935828826059,111.8391356634625,130.81939458699665,142.33310872978265,142.83390061345236,136.1362668220193,131.71568773010412,134.30667941389007,136.52629703192656,128.29865039519467,108.5906697582997,85.23843349994972,64.15029693644746,44.23315835676353,20.97126871069625,-8.930750140168698,-42.7885832237478,-75.4503344718722,-104.00884629309556,-128.76153569789628,-154.2865765612452,-186.05083819800316,-224.1085864441216,-255.04258881523154,-247.02646386620904,-175.6699874967464,-66.1226609116827,26.955901464914927,80.14309317277069,109.9292366276416,131.67213099485085,142.5905000644958,140.53078148060737,134.16945571584625,132.96861046228497,136.44466250171817,136.71165912437226,129.30247425526417,115.90495027066831,98.09271393412129,76.96693809010874,53.910265391698665,28.90392505092342,0.1954278674841154,-30.541324803979812,-59.123621734816865,-87.22399756713808,-118.5881876709556,-150.11705307868587,-178.25623227950547,-208.72109917900977,-237.0369014957496,-228.13287931102522,-154.53312631647688,-45.634103415647125,43.04206963182431,89.47470790240435,111.09691972482482,124.23504518692867,125.82302894763885,115.82952537645876,106.15136334125245,105.41988587940826,109.45218754391729,110.09938529249288,103.41881245740429,87.58863614516396,63.83625297107732,37.88994807673825,14.733604218634222,-6.514606755544765,-29.682930120605647,-56.72224111505106,-86.65895088278276,-115.03024626004192,-140.2793708529621,-168.4914772652178,-203.11810928052645,-225.9844972959074,-200.86845110392267,-118.04332550568682,-16.86255287945548,58.60505222476927,98.93561053528538,118.66445161792603,128.11377689992338,128.30075665564857,122.9278488019227,119.53068598961751,119.75576540007481,118.45172243966687,112.40975044759435,101.4472831970109,86.13989338327356,66.73840114273851,42.88772338315767,15.461993473222842,-12.773250695653399,-41.08905486887258,-70.95345550385402,-101.11112476047055,-129.59771935299702,-158.95032280068477,-194.38193701475717,-230.54212780714604,-242.03944489513017,-198.91950013603707,-104.75821021403509,-3.467218115420052,66.21139673346514,102.7965839196195,123.52539984360668,136.14274536537172,139.09270845647563,134.5655944100148,130.31885286699304,128.7192177464578,126.9655738407873,122.73963883189383,114.71490966128768,101.33046522715155,80.71224309283525,54.40051138384993,27.25271000620555,-0.9048175753577742,-30.193380577349604,-59.218364466258585,-89.69822100829424,-119.76995382315411,-145.52371452726422,65.0,111.0,81.0
-217.8756356961021,-132.28612130181025,-28.5487343254865,46.47109671163991,83.92713336320841,102.79587149280697,113.53024773974765,113.23680510674377,105.76754893015021,100.26224950573888,99.04675771684663,99.59453927924704,99.9178885123026,95.51720068762272,80.00441164073445,54.733143909130156,28.498288929359962,7.129051512639503,-14.172227970331978,-42.53449756159522,-73.76914801096092,-100.24510198578884,-122.80219553597094,-148.727521548444,-184.76822550101087,-219.881532366253,-217.7545965721043,-152.47517862306537,-49.49496171753616,37.87564336729764,88.31466034296429,115.97491313888489,133.55128092752875,140.9133857676118,137.46231030005706,128.81204990486967,122.94637967013063,122.46872907065054,122.88205613092725,117.3599840226704,104.4559726341925,86.770390182687,64.81121032280724,38.99976208209757,11.464008384472102,-16.81746417869197,-47.65712733411806,-81.34924124058767,-113.88475695021559,-142.37737626722944,-168.82722830792005,-198.45644389234337,-234.07266264893255,-258.1565082735428,-231.77920920762566,-141.84994862792587,-31.51416749251306,49.74285480665551,93.51182651422283,117.9246491514215,135.11891667331972,143.6242546314446,141.25374777775426,134.2168808983284,131.85502162937888,135.5197163581625,135.4884575342712,123.53876221417377,101.81600603610687,78.85428250064602,58.44080998270866,38.08137712575417,13.01458954372198,-18.550078858926067,-52.53109556538658,-84.18216571601285,-111.42732033064276,-135.7775484663507,-162.6631404975504,-196.65200043082217,-234.87425594597906,-258.38639744031417,-232.92232872206228,-145.51854378577997,-35.526421951164004,46.154813386930314,90.0987245334944,116.91858511604686,136.23886504324815,143.10935756372973,138.6071618785399,133.08360016586406,133.7922949113312,137.1976252687975,135.3479683403959,125.94093217588014,111.17491412897098,92.26502768371088,70.45662844778724,46.95638018744471,21.0343317175396,-8.701325801049014,-39.08734889182372,-67.06842833418546,-95.92649784232107,-127.97856236265356,-158.48703925954285,-186.51771714172483,-218.14073891267773,-240.26560288436343,-213.38260007917944,-124.11218687926167,-16.010050040409254,60.50681954652437,97.14578177043153,115.65687922771649,126.15867428066414,123.73329949990196,112.40525458493991,104.97722876796006,106.51019068785975,110.23429860097953,109.02533961499267,99.82095215542631,81.3513009714273,56.26544430861485,30.8273185400009,8.578125376001436,-12.88336921835719,-37.06552612197442,-65.23099593819366,-95.22173159585785,-122.5015746676126,-147.75897259892662,-178.09208607977322,-212.45348995682696,-225.05639372742075,-181.87051580180497,-88.30309730635017,8.73626145851239,73.40485274180426,106.04475176609128,122.32844267031778,129.09175888783972,126.98223649935798,121.48505951367338,119.3962232691219,119.76933825426475,117.22609989442718,109.73031758176764,97.44170044293362,80.96934555636021,60.308809636314535,35.228156609892174,7.271983615252908,-20.87162404779362,-49.54606818839214,-79.76110958897175,-109.51772255485538,-137.72992041279232,-168.46000766109316,-205.5006827341271,-237.92989876281385,-235.98162304296508,-175.50781065974533,-73.94810445342513,20.70176434593332,79.44006049173655,109.78724864701638,128.00791753173928,138.0613373049113,138.22536088780987,133.03691580699873,129.6763472554531,128.36486608450147,126.05916134998161,120.87323914489278,111.48019158247536,96.1719785532514,73.45614767582431,46.53861763034293,19.309989273342257,-9.351166245139828,-38.57319918311838,-67.81064454413344,-98.68828384941864,-127.62151762389561,-152.73994591431352,-182.18893672124233,-221.91100260139552,-258.67120844571303,-257.37944540807257,-191.62601405675616,-85.69313349928376,6.49356296377004,62.07944759728504,94.84154712494052,120.10266924929351,137.3279618768432,142.24590806805583,137.9403809896731,132.2756793744516,130.43149351849985,131.07279081584883,129.04794330688483,120.37715867258578,104.28805375147205,83.22031286644484,60.61063626554639,35.07037952133358,4.36265668091211,-27.791728308005084,-56.99081124565035,-84.36133745619178,-111.78501655119142,-138.83935980002036,-169.62628860646757,-207.62456812442622,-233.51154876503045,-209.26556389073698,-125.54179885192244,-24.203316844522927,48.53371776993412,86.3949099116066,108.58368192365482,122.02585995370525,121.05151264813193,110.35191436539544,103.496595553281,104.59376696096287,106.69703619765076,103.98083914339333,94.57300187350205,77.59588169940363,54.138848165353245,29.390179172600252,7.700131952867006,-14.132392666690908,-41.102397797486425,-71.45961213657336,-99.65658225541935,-123.62247119309166,-146.6517793903253,-176.6476553040294,-213.92933575762083,-230.2161324678315,-187.11960687801903,-90.71706752281436,6.812276844723732,68.05786987357851,65.0,111.0,81.0
139.26115221228804,132.7427338299036,132.58994545170967,136.40624067227054,133.37948694473982,117.91035985180024,94.98413198047254,72.72483041387702,52.75081142060008,31.51848362593581,4.466105847056562,-28.37061179779134,-62.0594092711861,-92.52578750215673,-118.57130837578845,-143.01199625167158,-171.6765153448777,-207.71064312884155,-244.55267439758742,-257.5110663255279,-213.22406182926318,-113.39829691706613,-7.631301871268798,61.97990776723687,98.74450944155296,123.39818997165501,139.70373494820967,142.60573659814165,136.62226752315883,132.60374349148444,134.87191199232933,137.46308223269983,133.31917018487815,122.14952911012602,106.0944738361296,86.19442323267752,63.819635882582624,39.812158976527776,12.804103672732333,-17.654500711841703,-47.37534302303739,-75.09204773267352,-104.96358712027111,-137.21006391611007,-166.5672437542877,-195.21358219371731,-227.0135444786137,-239.21537642200246,-192.9606364383971,-92.08846454223001,10.647137522336445,74.41446882313396,103.42812218766525,119.67388947376321,126.91161087635352,120.83042416438177,109.36898072168682,104.64674925473818,107.77252675118753,110.57277773914991,107.27976102417959,95.4222338145177,74.53021429352118,48.68638141252682,24.078935396911923,2.49053073652268,-19.49452408932202,-44.802434042050976,-73.91670141511338,-103.5191168562144,-129.74630009666691,-155.70852438108145,-188.21783734962935,-220.06903772930164,-219.1688920915407,-158.33542142293598,-58.3851337578011,31.35669805862083,85.43189749150814,111.87730146578818,125.24348978385835,129.27993584859553,125.36692419493986,120.39107824645473,119.50174370642797,119.50345935084331,115.57717016761865,106.64643824015116,93.0927461624781,75.45244557174775,53.49704222585033,27.314246358130276,-0.9040415434678182,-29.008364139954615,-58.16068286576994,-88.52485543947707,-117.75420538742183,-146.06196830340545,-178.59950748066345,-216.38194405224056,-242.43361883187913,-224.719848984141,-148.42698119318044,-43.87376176806598,41.588421917651566,90.25814836768694,115.87316018626186,131.8486968510589,139.0968520256487,136.8845622099808,131.72685696502901,129.22159451202296,127.91468466774042,124.91029434548933,118.65721884701158,107.75848325351136,90.35485111798012,65.8381375658775,38.706619729466524,11.216189071692465,-17.841685757691625,-46.9230323043888,-76.5950333348095,-107.50761256455495,-135.0647179022788,-160.33009716259525,-192.72288161798653,-234.07346414215527,-263.98711687535945,-245.06412690356896,-162.73941101116392,-55.7001374906171,26.121325923414318,72.94889803347269,102.6660122335998,126.18255935482884,140.03282565386084,141.63024227747098,136.10296630697218,131.28930064959414,130.5600565620679,130.9982965940842,127.31355260828133,116.45217922130523,98.52112973602301,76.79353817501274,53.70888563346768,26.67878438366099,-5.049900443951014,-36.58639894239319,-64.94056841566892,-92.29933808932246,-119.59648231960438,-147.0158973402757,-180.11497438712266,-217.97444070999978,-233.0856444561952,-190.11321142403813,-95.53356430975579,0.8892909087477648,62.31499216757856,93.67029939367825,113.59734068810667,123.34393738231708,118.35902014769923,107.49978290898562,103.19791428588775,105.46027593069537,106.52850896340199,101.99915065408948,90.46256540441021,71.32856707339126,46.82865620866449,22.799133822587333,1.6991095833260825,-21.324344157418505,-49.771638913873,-80.02726985725093,-106.96799757873508,-130.08744546892873,-154.23628301289023,-187.28421217773837,-222.76286320921074,-224.8192743766234,-162.8758562180313,-60.18123311087396,28.667603393480682,79.17515881173514,105.59876251975635,123.1555454039007,131.2824051202074,128.21449173982126,119.44634162290969,113.56156136912183,115.71517523180727,121.36397059149738,119.64141044765695,106.9481494904389,86.37456444006554,61.228634562151534,34.42273990777457,8.138037737477312,-17.022659922945373,-43.52006759750657,-72.33789008411807,-101.54406135234171,-128.66210558301486,-156.6347847781334,-192.69365230361888,-231.44207871202195,-243.48437013873055,-196.97911517439502,-99.75809927674263,-0.8699024943145564,61.74124781021834,92.9322906748592,114.99279066479919,133.18134135488268,138.8860687089403,132.6232446451884,126.33294893139922,127.24803386799482,130.41673206216873,127.00680695204997,114.34872677714175,97.61938595032956,79.58235283712646,55.80370048594623,26.498200285848213,-2.3932420880269323,-28.257569936565496,-54.248336094916496,-83.10886184578996,-113.16529786139544,-142.82655326945087,-172.88357410403634,-207.46226475813236,-244.42218260483025,-260.7579085164964,-223.53559517297901,-133.13286597250246,-33.15066883871579,39.69868616751247,84.4131121488486,114.07981974131965,133.16743444340503,140.00168422713492,138.4389605467976,136.46674961437463,137.24771045177712,65.0,111.0,81.0
67.27773032444672,41.243894148248216,17.626394541841247,-3.643415702669423,-26.39441684686816,-52.88737990595333,-82.65269689438614,-111.47916110739804,-136.9303039268846,-164.29459485496358,-198.49139474925067,-224.9447428938853,-207.89520710972744,-131.31821417324718,-29.525155148560447,50.75073125161882,95.12398518329759,116.71690055895529,127.39100398988276,128.75096149846982,123.67518864402874,119.70870924428706,119.6885497204981,118.87593329096892,113.50583359909739,103.17386046832466,88.410372848551,69.57422046175252,46.31540603346482,19.225779630894856,-9.036765412238429,-37.244511721627944,-66.89892200958083,-97.17551107801619,-125.87055594416498,-154.7672179163146,-189.30601014993857,-226.41093285426854,-243.17911045114533,-208.21217489211836,-118.86151024832982,-15.631288805208166,59.16439924226033,99.18406714256068,121.25418814048487,134.9704591314884,139.27410471071985,135.30795823485468,130.6980517220303,128.87040834374446,127.30939016896275,123.49221301827747,116.05497576601167,103.49504180725144,83.8915275390031,58.026665855273826,30.878298078291284,2.954431346609133,-26.30920302685045,-55.313304755791314,-85.54310165303677,-115.99773093718409,-142.24287683759948,-168.56713056817813,-204.15982295165435,-245.4287857649865,-265.0820280165763,-227.0276244009869,-131.70829822831803,-28.148113916492285,42.637721446977224,82.46474176374576,110.08925598029248,131.43478933495427,141.65580746875176,140.40059514462544,134.35930661115643,130.68954936009183,130.80208185422168,130.5599243007661,124.96161102068226,111.91179901060936,92.43972650160295,70.30121848354506,46.46134340310985,17.844930248178954,-14.428604012008307,-45.069703139964936,-72.8247441504522,-100.24635079279207,-127.36415536522657,-155.69060930179612,-191.21411544385606,-226.51570757280803,-227.49195102905145,-166.30754456773414,-65.4913650910657,22.735016132479227,73.49473056247058,100.15661375982702,117.80285106767309,123.30953492749678,115.14946041609822,105.29946176561992,103.50236676582242,106.1888968207237,105.875899854566,99.43075214658671,85.70071182231325,64.58000773218511,39.580696018583474,16.51668404831037,-4.475803499244527,-29.02818663035192,-58.60096688171455,-88.27967041617572,-113.93021382954645,-136.6014843831493,-162.64689564298425,-198.3692432731003,-228.79694975696773,-213.65217789698548,-134.98682338801652,-31.057596592782392,47.02589124806019,88.30538746608335,111.38328206288949,126.67356448754528,131.43248067990442,125.88505374430675,117.10432829558785,113.32998544374603,117.47238425764633,121.99743393198142,117.00387184426428,101.66000160968476,79.43655323056551,53.54833301674633,26.691340556679926,0.8242907828647125,-24.429731502216157,-51.64843412173925,-80.87621083787432,-109.61943102815064,-136.32163849600133,-166.03774252978874,-204.48518429513115,-239.39626492628406,-236.7601631713539,-172.3731008574927,-68.96035270005697,21.502152023420678,72.93710027147486,99.54052707953302,120.98284992674715,136.40129286668184,137.87643067773143,130.26109865613495,125.87385164349193,128.35864322958943,130.39671530087807,124.17694586314391,109.63839520378983,92.68003732492554,73.47400671744059,47.66804511836985,17.871196716054246,-10.124775337135404,-35.54232913544429,-62.31480403531968,-91.77140237533108,-121.80549192203729,-151.32906349891115,-182.23759257831367,-218.4429116033838,-252.84175135118744,-256.4949988648333,-201.47348487064394,-102.97661381001954,-8.660460744748073,54.91063980476385,94.0978322493658,120.75812816165903,136.39332285689602,140.0515591145538,137.62721887160546,136.460013524227,137.63547598223175,137.36561048279825,133.15787716604945,124.66530556175071,111.11898748081428,92.58695733838054,69.94113602751246,45.014590424218056,19.35360367213998,-6.86595118199311,-34.60986926330397,-66.63995553702772,-101.86891431892548,-131.55968901100204,-153.50096468054056,-180.62358907075014,-218.79879648083514,-239.4121923297422,-203.04558713539697,-113.05975691937581,-16.82940357731964,48.014226601715066,82.63640151929103,103.61741349854633,116.15399926465274,117.4942239008757,111.0002050549472,105.70393041070693,106.54231236770853,110.32020328725183,109.5517122264791,99.43863973981814,81.18958158529206,59.19533136347987,35.781436852715245,9.168383388806006,-20.398618437889702,-48.85802144178474,-74.21299735108575,-98.04668199596807,-122.60752523999535,-152.5960421169315,-190.9819628259324,-218.86105148764665,-199.59407401829858,-123.11753465157118,-27.19099119247869,45.173329090478035,85.20272367049255,107.26166523801898,120.40655632401328,122.13971941714233,114.39044058380571,107.03859223848039,105.92356745095121,109.20064257047243,111.12422733680499,104.93338172395444,87.18774553556445,62.03316035050378,37.52504681779939,15.398396693029955,-9.059136658018366,65.0,111.0,81.0
-149.38406051019484,-177.66644023254057,-216.24076491025897,-255.07664063021699,-261.097741008595,-203.812362818987,-100.07441260530314,-3.6723645849038804,56.46447272422856,91.0798355099067,117.06885452248116,135.71225599582263,142.26917181160653,138.76860889109287,132.8574176052752,130.44444673889933,131.0201573199654,129.6495982214385,121.97208372093529,106.80836170220456,86.1579292146146,63.70699096895243,38.776006630911546,8.669550758971754,-23.634370310806162,-53.27858905229686,-80.71300983916166,-108.1589618557147,-135.17945084110008,-165.04933795124293,-202.5178230850536,-232.17237398228357,-216.31120326869862,-138.9649054251848,-36.729662844272916,41.159217363835815,82.67281651467682,106.05396126077505,120.97197763277397,122.01422098105499,111.8212397258139,103.88130334301792,104.20184706594667,106.62511484372216,104.70404462279114,96.25105025928434,80.29554828953582,57.48364921027264,32.53894868442553,10.456982182159294,-10.984518916412057,-37.201710820216206,-67.43084535032276,-96.15698096146848,-120.61059049321427,-143.37538421532417,-172.0107557220225,-209.2384655478433,-230.8746001584785,-196.73095568458868,-104.90022527756949,-4.421802991268466,62.09778687645603,96.00962900287826,116.62333250011864,129.2740521806339,130.67067132258208,123.28061372775802,115.21088479307161,113.84196915265525,119.28323512574265,121.75420822961267,113.48143209316686,95.80211763060633,72.19592705393265,45.79066222582828,19.05596786400002,-6.4134981439026895,-32.02720503645344,-59.960192481288075,-89.37395974155586,-117.47088375160637,-144.211771846291,-176.29835733385482,-216.15644968028442,-244.16670369593072,-224.5209517280251,-144.2788460104972,-39.45802543468928,40.30766790685649,82.03739721096956,105.89455539062463,126.51776082499904,138.34711503554115,136.0496495887431,128.24029695263474,126.07138994349866,129.4301997851198,129.63148339126198,120.59921352780101,104.7786704420405,87.5972767577874,66.74730338182508,39.17676491275632,9.4356640683578,-17.601911108090057,-42.9661548119611,-70.63316511263925,-100.4702902805771,-130.3865736436173,-159.91789770648163,-192.10308663178773,-229.4457918282091,-258.7188792077289,-246.99980951111115,-175.51997103257065,-73.36191233903877,13.014724968467588,68.06950223634387,102.8277498499282,126.53261824806599,138.55669932583712,139.58392882950332,136.97094767041307,136.68415731906185,137.8885303565335,136.57146710391606,131.17564154690024,121.29200253178757,106.24837699026111,86.40741014647082,62.87678337290011,37.64780263920472,11.851150863560429,-14.633887726899882,-43.30343193088613,-76.79362748120948,-111.40649792837094,-138.34983085120902,-160.07985865782905,-191.0708603441062,-228.59129541859988,-235.7627159115767,-180.90454882110308,-83.5726505241726,5.76590249597174,60.34446883373002,89.57161634705878,108.22449863167971,117.72900314496148,116.04602228293494,108.9805135939686,105.31193726860786,107.64070226717564,110.88359646286932,107.64340714312628,94.826793112555,75.02814726374734,52.60727787331015,28.51358013789075,0.775451137920087,-28.905036920530954,-56.48024987403632,-81.14923699619666,-104.95350811721174,-130.3972703065991,-163.09127653832672,-201.68153268047018,-219.52408334795334,-182.44336975843532,-95.06688987252443,-2.750300638869187,59.59269633727757,92.73592264869474,111.9730127144216,122.21800372781011,120.49174367244524,111.8039785687439,106.04164850230812,106.62810921386591,110.1994500955638,110.43514038011439,100.96479760183703,80.31480564521839,54.61381546839807,31.06279716083423,8.748249136638952,-16.875991329357017,-45.81124939485281,-77.37326086228124,-109.50497452466956,-138.80891940896169,-170.12753757738858,-206.93400483291668,-231.85448859719537,-214.48160562685385,-143.5822657390591,-47.34911659088183,30.452024947872623,72.88560415910804,96.1911745294822,115.92212966882897,128.10867055721232,127.18320763884205,120.4933933381402,117.1895406203264,118.03586966700897,117.04983763385475,108.6115206347005,92.34518564948804,71.65947329175575,48.68033384190545,24.20920212005298,0.006264778861924114,-23.31700605884373,-49.92183547661041,-82.44837835711665,-115.15309497983951,-142.59118737816695,-171.4939122206176,-207.06206610432073,-225.04870899088968,-188.0883744699166,-100.48583667336106,-9.871661777689622,48.36187320596608,78.41022309733835,99.18383749796037,114.57915423820954,118.20341352947146,112.80917881079431,107.97413464519545,107.51839770314393,109.34748093680138,108.66012111583187,99.87122666599062,81.78967675736908,58.98932743105435,36.3718082410904,12.088804600032978,-17.874472284847624,-50.7928497075762,-80.42981398269636,-105.81805190538064,-134.46972037725126,-172.2102000315266,-203.6430561529565,-195.55885994170094,-134.94939577229866,-50.39475999850747,65.0,111.0,81.0
74.33278513629708,102.73795323855413,121.25721924913061,130.88179224690737,129.13431174586933,120.62636490952346,113.92093558647815,115.00684287897332,120.82679544890631,120.53631202829087,109.1725854417119,89.44926626431678,64.72870576733415,38.00646079516299,11.551049784037549,-13.6565508580621,-39.842602362181566,-68.41119865407094,-97.74632973925853,-125.14958052167574,-152.56554018062917,-187.3709405847353,-226.97936481570645,-244.8058183529146,-206.83948454659193,-114.02969654503765,-12.34371146947085,55.69215338290534,89.70849559618908,112.14825392142349,131.3045306354906,138.99692248472127,133.74617234812715,126.78050645203145,126.79296940423218,130.21441154153118,128.0326001899679,116.42376726900264,99.88063333342578,82.21265367082793,59.39108947266407,30.50688124779354,1.2703575352150207,-24.911512749406615,-50.624216928651805,-79.14165945234467,-109.16584992484488,-138.90972962382114,-168.71715437169405,-202.50541755814422,-239.94440426856823,-261.0920881494196,-232.13342718436823,-146.87486171558564,-45.32749867807947,31.886687362312053,79.56990190829487,110.71703291602155,131.3162288819405,139.74331228358645,138.82634108606774,136.5614820518775,137.05608576585323,137.90505200046158,135.4319450799968,128.82367464288518,117.47740825373083,100.97576460779116,79.9090040386751,55.68021622310459,30.241202150113665,4.297164913925386,-22.564139369080113,-52.449717007569824,-87.09360154496933,-120.21545183048045,-144.59455178631592,-167.54694890374822,-202.34787646273043,-235.8279687236962,-226.53110338502123,-154.9866796306376,-54.950651563203756,25.179914306286328,70.54449054302738,95.73933376347155,112.08912376827412,118.30110460922539,114.12717929406848,107.29201152568127,105.4758424690658,108.831676073263,110.87271623983281,104.89417653967361,89.62002454593596,68.6742685786023,45.90734044873719,20.906691418560097,-7.798611713550398,-37.20749082881232,-63.837559664625026,-88.02216429419596,-111.96298242580336,-138.82012299986795,-174.2785009853006,-210.73583778762506,-215.30618051889022,-160.7697189731384,-66.70831884530692,18.913902464267498,71.48115450923551,99.20425071330286,116.00051653192935,122.95206668086287,118.22491405930286,109.51751288332235,105.62010037585227,107.59855324943051,110.92342416740158,108.90324127615223,96.00494306008838,73.00788178570349,47.442915362709364,24.732114830180656,1.7731263699493094,-24.96278520790468,-54.66605705215237,-86.80766860168731,-118.24658501761216,-147.2533249886714,-180.49882201741553,-216.67952195465008,-232.34925934641694,-198.9709789151526,-116.34595306094657,-21.43828817428765,46.03076141104097,80.5635188256267,102.11074531450238,120.67679355074974,129.0753635939056,125.33279848784407,118.97382324179247,117.20126875385492,118.25502132678756,115.51083025474796,104.58644476914138,86.68160103205395,65.21516387377028,41.71651405610574,17.088048857795926,-6.723501503335529,-30.41868009204135,-58.81512251357264,-92.2709091277173,-123.57673369398438,-150.2527852225319,-181.46548555512894,-215.93749843035332,-220.9885600285125,-166.28256141937132,-72.34023287851461,10.775503360527964,59.030852535740294,84.8000042390279,104.47213679485353,116.98090372670146,117.13845001926519,111.02467666146143,107.41936499497737,107.97677764624153,109.67933600674574,107.12703411868962,95.48964450898643,75.39717977517462,52.36586929383293,29.770053775554096,4.046880842868453,-27.372094120935714,-59.8985631544383,-88.00894533226287,-113.30215908383857,-144.5840475284396,-183.31135190690316,-206.70455654548104,-182.87977294813743,-111.01428462689891,-27.586373790484465,33.77006204258782,69.30518582890336,89.79031420019668,97.82516252400805,92.5550783590765,83.84668490026723,81.84864682956103,84.94476982333754,86.8241006473087,84.73848701557255,78.48900224301191,65.16782326537655,42.52070303811051,15.71159312012006,-8.551444898896516,-31.648149665679135,-57.36271223517117,-84.54433952328974,-111.55243045859763,-144.01259687459253,-183.13056973203086,-205.73326880602448,-179.88451567678402,-106.75522355282469,-24.235738714888914,36.360214251349895,75.52691788899077,104.05143531746381,123.06590594081912,130.1765730835717,127.95475556564001,122.07913348575525,119.07446819918005,121.40240108170005,121.61107318453736,111.20281834859895,91.44333564395649,68.18763084701989,43.72845449580905,16.59125590259501,-12.790054208657326,-41.64146964341292,-70.10483508006193,-99.95621391982293,-131.83964543947693,-165.40184094050025,-202.3685147551205,-237.99111126618055,-247.12622593484966,-203.5935758572328,-119.99600797596321,-38.286589998679716,19.923812653263298,61.148001178488116,93.02061198797499,113.51113677905964,121.35274794428804,123.07180552492699,124.71400090484056,127.1457083552762,128.85148243171028,127.86888164597478,65.0,111.0,81.0
137.46646099481984,137.61413678151249,133.9537352626387,126.07412726330786,113.22435972135375,95.31894060410018,73.13855467128163,48.39483607552201,22.79801920961658,-3.3236213318999015,-30.735295419759,-62.064517491053685,-97.28446575549474,-128.17635854436924,-150.6516075736913,-176.20173841195995,-213.75626278484515,-239.33634192539373,-211.67986803497394,-126.59439004802185,-28.260858099446626,41.47465406771313,79.11220405363713,101.2724125439038,115.0903933195486,117.93852356132881,111.98998942409203,106.07854345399628,106.11872228582,109.91409140766396,110.15076378817382,101.33473853742045,83.93653590167558,62.20525495534883,39.0317694913764,12.947841976502634,-16.432228773329232,-45.247536450227464,-70.97734606598988,-94.87958395171465,-119.17471818337718,-148.0457974111554,-185.75841331114333,-217.1103740400844,-205.78651577265518,-135.5770353271389,-39.258567309970026,37.57630215643522,81.26982784852014,104.8741795540871,119.22770435341285,122.62174798767596,115.62305849391709,107.69458383975781,105.72274897454852,108.69500688078516,111.19738505485223,106.41858484696193,90.14869016479408,65.5003000992327,40.58467305715319,18.37828129141525,-5.560647016030986,-33.27810907595265,-63.75259105349112,-96.18415812357232,-126.69774360595046,-156.10580351582541,-191.2899739134205,-224.76265879903093,-228.54681605190004,-179.06369374840787,-88.06265704478429,1.9122344303739383,58.66992092980941,87.25292315087829,107.92726638551177,124.52533914806173,128.93292808359877,123.29133202430619,117.90371456803565,117.48218990623654,118.1389372437978,113.24689694770194,99.96244210206409,80.73990647861883,58.60699400594125,34.64309464297507,10.053775536328677,-13.403538378962438,-37.94764345167697,-68.19623149944204,-101.88160369451082,-131.50572022226535,-158.35326618586856,-191.97303075757435,-222.36743075865377,-211.52864074828403,-140.97975863407478,-45.31840789408558,28.237898817615335,67.81077112262516,90.83173983351581,109.18974366317624,118.24853970004305,115.5358611051526,109.51029070162016,107.2374583720877,108.54694311825101,109.65656055937329,104.79394103508996,90.36446156055416,68.77318239397962,45.84013027842981,22.89750923887974,-4.530715833437498,-36.967926034801145,-68.58403308009663,-95.2927694654976,-121.32475414100219,-155.50831152462845,-193.2228830159525,-205.58941183858803,-165.89882282506375,-86.15036734745503,-6.857870657555605,46.22577121533815,76.41371712224297,93.54043860594413,97.45415197065502,89.76339416592674,82.43876984207103,82.51068473003247,85.83361975484708,86.62901397181568,83.42130450952433,75.55612073720886,59.51179197573345,34.81216413598078,8.335160735205044,-15.120445451909399,-38.75545010143134,-65.22492773366832,-92.26062179448624,-120.01234009045673,-155.12799426944179,-192.96882820236817,-204.10662244505897,-162.34824897962957,-81.94964567688822,-3.9502035631982935,49.30724134214273,84.60812015406202,110.67990764450782,126.33385598025095,130.26717351073967,126.35129030790986,120.648348623555,119.3487162029568,122.18138349876754,119.83299676719741,106.1907426558781,84.87541480438014,61.2804938675185,36.22612298941311,8.205629625273069,-21.253785740585162,-49.81798229988554,-78.52751864822717,-108.98056816443062,-141.33470134043645,-175.65335126204906,-213.5020712738317,-244.8708753871885,-240.35987266110175,-181.81747081858896,-94.52940315631928,-19.026606234183024,33.05200990981466,71.27014261587435,100.30598039085727,116.90335522470018,122.11027026688457,123.43600923196452,125.38145513173714,127.80130220037559,128.92588956521953,126.8155563869249,119.31384875886148,104.24405278217678,82.8644499654963,58.972846857677965,34.658020223046165,10.061681500340228,-16.088868338581275,-46.518553578588026,-79.96891782021875,-111.28914083019482,-142.1292383334869,-179.4262092216848,-216.49308333171322,-224.1090380442464,-179.22542865721,-98.22050983209473,-21.2191809969086,30.25479192178516,64.64359152491912,92.95778507415362,111.47083812669644,116.85459130961074,116.70223127657191,117.78048455811904,118.37543126708188,115.50194860792958,110.13824555677958,102.7272893193977,88.82116527012813,65.71900494324338,39.54978661381463,15.7158163567851,-8.547436241116301,-36.78277470347215,-66.16856185185036,-93.00509206858563,-119.20243024300451,-149.87566925747885,-187.49073236608848,-219.82859391257796,-216.42580768208714,-158.4720186919977,-69.80038363045703,5.877595647893612,51.051697552996494,79.4766516031878,102.27549310681384,112.51599517288275,107.97935681582277,101.14031505761407,101.88976725960488,109.17294954493329,114.83187640084881,111.90905001546697,98.64013375384489,78.50647345923456,56.81835474238835,34.62806736091659,11.634161310377907,-9.939707215046226,-31.42836633123236,-57.413329606605906,65.0,111.0,81.0
-13.235426896682984,-41.80617681457702,-73.04179424037295,-105.36661574758165,-134.98599464308657,-165.55088409503054,-202.0995066081033,-230.34863758744348,-220.036001097166,-155.45546429821772,-59.9422795671368,22.19448465130881,68.85379154836149,93.42665234369566,113.50118150214692,127.25676896718836,127.89116880801846,121.31973765654325,117.31120602078677,117.87042324138943,117.53133769233801,110.24080222462425,94.84331254474021,74.57061919798609,51.84618414798575,27.505247235895318,3.14589114696922,-20.146978974203197,-46.010602067898425,-77.91229836116698,-111.08426859339399,-139.1157949813303,-167.15837338423742,-202.4588662799103,-225.219893113636,-196.65501083813007,-113.4991728648519,-20.42782292218114,42.649075408479575,75.27252500049133,96.61236657187152,113.10346908810507,118.43729227851647,113.67870033572473,108.36550655977955,107.37067717312303,109.11884653306738,109.1205266879633,101.61878241230161,84.61221739932786,62.07142528275782,39.366636470026364,15.614184044126628,-13.577893118703019,-46.481244664970035,-76.7988268039712,-102.47458166177512,-130.11579660019774,-166.92367003079195,-201.0200931704366,-199.82891939428217,-145.35492714357582,-61.45449644801817,11.458753656917775,56.737215388463326,82.52902384698912,96.17321581199238,96.01409790217977,87.05018948143605,81.73644951111865,83.44820059613328,86.47463386365132,86.09301166153655,81.74564856542682,71.92135018743,53.068038862904444,26.972112837480566,1.2817013308306946,-21.7164924535667,-46.14172824182439,-73.11938284104201,-99.96880720878002,-129.1578798809713,-166.67708575883557,-200.5721597798453,-197.74744311439787,-141.3813556397481,-57.50343761017969,14.040038954603673,60.76853453494605,93.00393203447308,116.4305739135737,128.58121934765808,129.6943852288922,124.58960671813372,119.62843386241059,120.04505385325508,122.50054960354669,117.03282588079676,100.53077337051056,78.15497531843178,54.270532074695566,28.447198816806747,-0.30877299707874195,-29.608831439455727,-58.00916837854027,-87.1039979880662,-118.17162622224072,-150.96373857581423,-186.2727659869057,-224.26461674784093,-248.6927472656699,-228.73278327023328,-157.52541089279703,-70.29855272292524,-1.869273348078696,45.08265896386471,80.69007675021233,106.51461373619829,119.28727955539419,122.57659865305601,123.88441720552889,126.0966322959122,128.34876914018497,128.73049528939868,125.31848953146805,115.7750513222535,98.54965046657804,76.0734088512723,51.96588870008299,27.596823467030287,2.7826449754584877,-24.359646877543533,-56.11177591007376,-89.3672490673835,-119.92292087967715,-152.08543349066488,-191.1187749978315,-223.25432179924672,-216.65130203995258,-157.8248171525797,-73.96228181815432,-3.6791269078570994,41.21281435395042,73.37711692251474,99.66503513840836,114.19802286870896,116.92842950556941,116.82862979065219,118.19520845848473,117.92748412807931,114.10856261035546,108.3220597796506,99.63478652066622,82.97027233198673,58.08774924285519,32.41469179764278,8.991701863143126,-16.299884900443242,-45.394714932693354,-74.20974266507633,-100.43410876523367,-127.37353010251728,-160.1640741933801,-198.4922727444665,-223.9674405354372,-205.08881064427467,-133.99764302988098,-45.056889457226745,21.81610403593758,60.129020492673604,86.71086490466924,106.96216487913922,112.33285768970555,105.60680306640162,100.42664576126047,103.61041064911409,111.37504581696199,115.04288971546383,109.08397168680118,93.26210302079812,72.25097196176128,50.51805058191423,27.989944466795343,5.18683597252887,-15.942579873525645,-38.344041717195736,-65.89719151677492,-96.45925974813383,-126.09945355411259,-156.83512196224723,-192.5741109652123,-223.94122492078844,-221.5458699100752,-165.9646669691345,-79.08611559524353,-1.5252138856228736,47.37924724659936,77.52423816723879,101.62005366794534,117.11494126808047,121.32421900345359,122.3137583860578,125.96672729732886,131.13697414842346,135.01661776921324,132.13852164582093,118.01969124765526,97.12285206461966,76.21523695290429,56.949895310209364,34.77945083824348,7.916165856705067,-16.75071200715501,-38.0377968421313,-62.02491626331243,-90.05651281354199,-117.92142057681744,-144.0199190062682,-173.38899643957424,-209.35611458722758,-237.88961431437934,-225.45826374344907,-156.74933529350753,-63.84671517241848,9.35662124279779,51.929339900381656,81.0425537369758,107.58180618038632,125.29511124252765,130.59227184663507,129.66699239498575,128.15327966412568,127.09326050382731,125.5529897112154,120.26763373803638,109.38978678006048,93.555131847234,74.72064189003987,56.025361341376794,36.72554871333115,10.732438716501939,-20.647196293295945,-47.83805290910241,-70.11325302591251,-95.06425289134016,-123.10340139680432,-151.9186439838365,-186.12684521676945,-218.02821979610846,65.0,111.0,81.0
-37.87366537266809,27.284035535312764,65.64777217755817,87.71733837787113,97.59126467676344,93.76815060407438,84.72504609873637,81.68561755269504,84.48189120516392,86.79468037812127,85.23748200508028,79.63574469200873,67.49246200642038,45.96571307376739,19.214240085871246,-5.493640284969575,-28.46217038068932,-53.77716248981511,-80.96020095096223,-107.82378884887966,-139.13065100666228,-178.10616965973506,-204.99734549028318,-186.58072693508282,-118.01812320160913,-34.315422795774275,29.79042497550014,71.0822168993202,100.72957689541089,121.20840753431943,129.87437195976207,128.5975688045309,122.83649396154081,119.12285193784894,120.96961515527178,122.09694570881653,113.24993383177738,94.3914049617511,71.34779825954273,47.10289709479058,20.390376218955204,-8.859316915961465,-37.86142924947718,-66.26505166326807,-95.85751678732944,-127.4998237226702,-160.7858311539178,-197.23574239405914,-234.0338964773257,-248.63966486809068,-212.48187991708488,-131.91701714606023,-47.90206096062919,13.418883884974024,56.24921570189124,89.33122396191408,111.57155695891642,120.84903966453183,122.92007083857494,124.43107006180932,126.82093468117954,128.7382939240867,128.2217512681241,123.3100759781396,111.55910975021192,92.41106749759783,69.16574341282204,44.94394746536209,20.509885439867748,-4.679427718339005,-33.062004265091,-65.84611798423971,-98.46607186934814,-128.66972131775807,-162.75524387746114,-202.3932792795389,-226.65192588041123,-204.51408916578603,-134.25531839154024,-51.05213136034861,11.553477088892391,51.17548559101164,81.73080529074991,105.3312734754086,115.86334025066125,116.81061718541856,117.13821625565544,118.45681305291272,117.15098123556831,112.57208623302041,106.30245491096386,95.8417763842383,76.3612339293613,50.43418585487278,25.52455828549257,2.092271374719427,-24.42299502954154,-53.965064534766945,-81.991163985079,-107.91218938338847,-136.0566260483432,-171.04466254175247,-208.54446539380055,-224.23708843676283,-189.05754747991406,-107.99940726462144,-22.422081554618504,35.195290578506146,68.33723311267961,93.54116173934582,110.29645418706198,111.05444043319534,103.42692119333861,100.48311351665609,105.75122509760395,113.20417077412421,114.41864201620146,105.39695304567249,87.45168938789548,65.97775451481354,44.14205183168987,21.30722764247367,-1.0732949577575053,-22.043347730712792,-45.74148308925989,-74.64738224331948,-105.1678730880182,-134.62454979208803,-166.65797549543854,-203.09650254374623,-228.19070055094625,-210.78520208425437,-142.2348931374547,-54.22054242706772,15.5188619713746,57.22062393586628,84.95540081583502,107.31464741254078,119.26701010997195,121.51732803006134,123.06345650223388,127.41955435798157,132.55395658220874,135.1977867893105,129.18778382411787,112.31989305023227,90.89054909853526,70.5821813951455,51.1105735368529,27.280666989589406,0.27318699303311916,-23.00220337751948,-44.47395378953079,-69.84870488224982,-98.32151246663155,-125.52110520950599,-151.86870451678885,-183.25385539933444,-219.6410382900424,-239.99630671158636,-210.79492398071912,-130.15353312563548,-39.390605668392645,24.294066801250334,60.85568081708235,89.04871303085133,113.99771288849223,127.9353178778542,130.62061744864295,129.18276380418487,127.80651419656364,126.80799856455027,124.55951657707695,117.69709957004542,105.26723032747205,88.28905057382953,69.19383223874836,50.75334461437713,30.105099087248757,1.8206910964740153,-29.259766338245687,-54.445430927668966,-76.82408674453463,-103.04773915770312,-131.24562364929187,-161.0582453654625,-196.73637311143386,-222.14531597677907,-201.37067574758896,-126.84068405623358,-36.29014321027937,29.80328785227792,63.31002246009732,80.22804192360472,92.94291150968425,99.51734156989379,97.64079407668038,94.05042011957165,96.24359535431263,102.46409054461178,104.56521491306061,95.95066403445139,77.9551026682917,59.64745006228338,45.019815493430656,28.674216880190016,6.697767363864077,-18.582241383121286,-45.121344524015804,-71.69133268342476,-96.2347538285525,-117.59016439479625,-140.70976443832024,-174.6919109719117,-210.10452859944448,-210.96904072517734,-155.5419021861049,-67.52190713173805,10.96856520959992,60.76479906637787,89.92868429385206,110.88491964429666,125.42289272022009,129.65436691716363,125.73333193578011,122.39039291630128,124.24170825338821,127.5534783229801,125.21541956498481,114.47510905354386,98.89103914727967,81.16150300537153,60.512338180465484,36.26131259690556,8.968505573603228,-17.558433200436934,-41.07893271825728,-66.12435987299904,-96.0922583000508,-127.1272031423908,-153.65238267892167,-179.40913711085864,-213.28559016397264,-248.14792480957522,-252.56406190798472,-200.19355845850018,-105.88290123013178,-15.357131318020564,43.340802057990665,79.94120439314453,65.0,111.0,81.0
127.35250509528592,120.72061021717761,106.69113020137694,85.93531449677741,62.19685039855478,37.907391649061964,13.376363150719875,-12.410175590113486,-42.18710725763753,-75.54952267431015,-107.28801040101241,-137.76114694867331,-174.06432138697798,-212.48254284014467,-225.95445927888366,-188.07231339092428,-109.62786685286353,-30.108528746709357,24.748716324568885,60.49626584603506,89.57208859884801,109.81551527790299,116.68598551989977,116.70652261267104,117.56916149352772,118.47082867129998,116.0794595392318,110.93001213046009,103.95840413543624,91.23476203054196,69.16916419692976,42.92968583757772,18.796805539565526,-5.105408355905511,-32.837990389531306,-62.37161898428951,-89.56225336438655,-115.5719770839952,-145.35941165903532,-182.28865420541905,-216.83976279516534,-220.00306840087154,-168.90858265630033,-81.70399818926319,-2.405528567859198,46.441191785595244,76.03887430600855,99.72650985993621,112.15288161801028,109.04339355164991,101.71595664097619,101.28866017935908,108.09250186583422,114.47493562115078,112.90927540670461,100.92979275970053,81.36618525551326,59.71011542384039,37.65690624770356,14.661669052741768,-7.166840309884682,-28.386124892831283,-53.62678446379862,-83.5243621355137,-113.7325693184786,-143.36894473993306,-176.97171397686355,-212.81742363521505,-228.72780481312802,-195.4354232696845,-116.84877897075427,-31.096963678623386,30.041409311546264,65.95631085773277,92.05971844621261,112.07788730364346,120.53764051097548,121.70716672110707,124.08685766642793,128.93293664706002,133.79597940357098,134.6303836976406,125.25565029537908,106.25512423197588,84.78847229691816,65.06768284124435,44.85377984956884,19.45670247189081,-6.970349306076629,-29.077476059076123,-51.293295874898305,-77.95767701720143,-106.44278817627064,-133.0027096580496,-160.17015153116878,-193.68778528126217,-228.71705700942385,-237.7290151877475,-191.4909258521866,-102.76100871704662,-17.4867484822413,36.833482343518476,69.20943372746551,96.88922405415501,119.41569076509855,129.58275203151973,130.33433094022578,128.73221810454868,127.49658093826413,126.44031258391466,123.15533846529394,114.65182620564725,100.75653080283327,82.83581372498422,63.76616730557213,45.33040131255437,22.756118253498762,-7.3626649647250675,-37.272393759992575,-60.79172904318268,-83.940509588719,-111.18008309069639,-139.453597241638,-170.84279965831502,-206.67751940945774,-222.19022495831646,-184.32601728196704,-100.11867098513288,-13.62886803059324,42.3469229139494,69.07036359270185,84.21298670750915,95.7252495481796,99.69995667262988,96.3398714178872,93.9644747205433,97.94172110490828,103.8730990737248,103.31792295930559,91.38253440207774,72.30304812810361,55.16976344114217,40.78358653882465,22.870342797390343,-0.40422490293503627,-26.163352433550738,-52.87307063957855,-79.08957528652334,-102.6842218674172,-123.64327062762902,-149.22672950586505,-186.05691091398688,-215.60911578965576,-200.52989301396437,-131.501535398586,-42.375438444077766,28.305995115857858,70.62762124303066,96.52702957877415,115.91738049142845,127.80011147364554,129.0156708761935,124.34038484162477,122.41966660380444,125.36482725413492,127.72239668160626,122.89676584485296,110.2635202463546,93.9921169831548,75.54163881102367,53.889915342684226,28.58678438510489,1.0057199566056485,-24.5624139718698,-47.89386438803542,-74.30830314640431,-105.2701704967821,-135.32455966224347,-160.72710337144875,-188.17852175412168,-224.2915396266153,-254.21180182419846,-243.5455851726049,-175.44046474322323,-77.35696984214387,5.024454782209787,55.21955221364198,89.1400179512375,117.93820295594955,135.3117961821946,137.71696342680144,133.3835091144659,131.4076079005972,133.87849358934565,136.863683258279,135.854460836118,127.39403590124387,111.0184221611448,90.13512546045627,67.12509484920295,43.2108662158301,19.92937086002471,-2.8561669808698675,-26.15842082383917,-49.60466691458613,-74.38617323964824,-102.69439969547437,-133.8595456596326,-167.25628091300158,-203.86369784263354,-230.41209258398607,-215.0442230490102,-144.3944973061356,-50.021811298939056,25.591597685953925,68.19122008553249,88.9771187363876,99.11824619806904,99.95270354603515,94.59712762586304,92.49049582866104,97.21097540166123,103.03453897038602,104.49827156142501,99.81602722974968,88.27961256610868,71.01335692946527,49.75571160821291,27.22185272006043,4.798981779686809,-19.457832469460104,-45.49867620922143,-70.13729859760976,-92.82403288827531,-114.78172445278592,-139.16482310633975,-171.4779101789292,-207.3346697353255,-220.09269635535716,-179.52208202388275,-91.54460499863038,0.6053222678408237,62.51083785211123,96.01033457279605,118.05014178577666,133.92172402323166,138.30768766897071,130.12075532084987,120.66890624918794,120.85467233499001,65.0,111.0,81.0
-61.94459962496674,-92.39788633791954,-122.20079059295152,-152.47915959253885,-187.6278540307293,-220.96034517210714,-224.89627875212759,-176.04305611411428,-90.92468137292587,-10.267566617145336,42.341094443232834,73.98266283773208,98.73711922667272,115.77698359710095,121.17079657012158,122.06412208962703,125.33459867452854,130.45096238658593,134.73293440348425,133.15449151546733,120.46649741250634,100.01505903883317,78.87367999871476,59.54462377815793,38.08055087691478,11.534146144766643,-13.76104014886154,-35.17079964572749,-58.54180409528208,-86.22715375679451,-114.3517419120848,-140.5060947049334,-169.06475428031032,-204.42470999352875,-235.66986640478154,-230.51759210876128,-168.38148846898005,-75.81598239253853,1.5529110575764695,47.49130515849582,77.32833525876462,104.34690969280832,123.70595604008558,130.42106806518683,129.8912488200117,128.32620838158724,127.21725665826315,125.89421033776173,121.28980163643341,111.15086324375886,95.89803093485861,77.28586128892434,58.45077555124975,39.55911169184,14.676221453250772,-16.517591650242913,-44.6397319537987,-67.12959684471001,-91.4713795531305,-119.34559137089616,-147.89288388975604,-181.21827756481798,-215.01368565587643,-217.46368288788497,-163.12617800780788,-73.31236077400251,6.2288683735196075,52.33604038325362,73.95240987700099,87.9907153225484,97.83615935612944,99.20287747408305,95.14483022721049,94.48664567025514,99.82676261391832,104.71785444814226,101.05465637526956,86.17206925610824,66.88645985190861,50.97683673630276,36.21058620946247,16.580427680213454,-7.692663851609834,-33.82628548975215,-60.59020961610782,-86.26106646560149,-108.85585908865089,-130.0609735367762,-158.87357843719016,-196.98779222266154,-217.17016649402527,-185.25247010911033,-105.76455304795749,-18.993849842175397,43.120332600757585,79.15179068919635,102.66746861248454,120.3393512426264,129.21962112815126,127.85389244372404,123.2312250399659,122.90865910179468,126.4483747184216,127.24505501599128,119.88660754801089,105.7774511206323,88.92872999016285,69.64664606651539,46.95563543232202,20.690427518917087,-6.756806950191511,-31.32915757706207,-55.000268313367314,-82.92722235908234,-114.36460656114275,-143.04512260689876,-167.96025624213294,-197.82915684796535,-234.94644748810924,-256.76646631376656,-229.39181684782974,-148.04463558956954,-50.37683307771176,22.46481557519089,65.80413964692741,98.05941531953889,124.53168750284115,137.34451065252713,136.659823903583,132.32636698148886,131.76905946419524,134.91356100433103,137.15096914460685,134.29056124061273,123.36169072854968,105.29003249443201,83.65819305435033,60.23626768886447,36.37578841903412,13.359398088335253,-9.537947509884171,-32.92253559563509,-56.5086369668265,-82.16489488773392,-111.49925759697362,-143.19522667985868,-177.63564843505927,-213.79442327695693,-231.6641750722075,-199.67798029033648,-117.42301959640031,-24.936669979486304,41.06513991012105,75.7465776656358,92.80910241414351,100.34095002174057,98.66688661725529,93.27588397051153,93.29579327262444,99.10911255852632,104.02277039031162,103.82934319281614,97.16951118246199,83.80736291124374,65.18388618975993,43.24632482530599,20.777338658297218,-1.9250287112472009,-26.934726908039224,-52.85935780547273,-76.84393874746617,-99.17376438781517,-121.33202723510468,-147.5271629026409,-182.22583428663495,-215.01393822448782,-214.5416088251997,-157.45810966255934,-63.22223004715355,22.172972570322365,74.32182648308265,103.00558515448209,123.42040818263946,136.62822719186394,136.9511370902329,126.82067209577014,119.65468531233557,122.22417365245221,125.19807901399352,120.17129551791335,108.77028062343264,94.55622949108162,77.11901736034277,55.16214414519265,30.2539634655596,4.29629595547974,-22.643258352665267,-50.74612791319161,-78.68183158844349,-105.58654937759044,-133.18301604519115,-161.57612587511105,-190.69740924666885,-224.2036699086812,-254.13867965646418,-247.5426330745299,-179.65650535545728,-75.04711471501959,16.699354031124845,72.60138403190821,102.88840174450084,122.57151102756839,134.27259413174428,136.02571746334337,132.21041686167385,131.99497221581865,137.7057122153479,140.9500090861007,135.28373770308698,124.04553686064362,110.22075636461112,92.54654635820657,70.94511417742471,45.46731126393237,18.486000825997454,-7.4854943066529644,-32.92516086484572,-59.53897098761392,-88.756543862879,-118.51499060876213,-146.51385667673796,-176.62913447714288,-211.69311894858066,-233.35479098444992,-206.27298507718615,-124.93290437774533,-30.531282037516323,36.762452301562384,72.29010530681212,90.20239414816533,98.41089916461839,97.9517200266034,92.67877300991805,89.95484965995901,93.28257996232341,98.11178248731464,97.99213194815312,91.32674043927025,79.29972073875625,62.427442680070484,65.0,111.0,81.0
-220.70018311557254,-207.62347316073874,-138.78742646310977,-47.551962976457226,23.06029572576372,60.232376748557996,78.3195799184405,91.47532466589504,99.1725314192258,98.20574878553225,94.28440241634878,95.5782344140594,101.68136154486457,104.81478484093827,97.77979274653178,80.5825302459275,61.8380955252327,46.90737661853779,31.172657108110016,9.889838822065096,-15.119724003488171,-41.548898497990926,-68.2193265750041,-93.15738851732995,-114.84542183473215,-137.14291297532446,-169.53274677321164,-206.49693036023382,-214.07756812901218,-165.73109054043186,-79.50318282429569,2.0980426445973683,55.6564288281456,86.69762244214479,108.39307570308515,124.01482310072338,129.7116143697162,126.41776786827532,122.54398322077411,123.76271561151476,127.29555910499097,126.03220482248447,116.29269081396544,101.09975920320565,83.66578656021716,63.46305495490161,39.70642172181222,12.671696344097743,-14.225438402352276,-37.99455879977905,-62.50891295702996,-91.88655762443189,-123.19043182618067,-150.36633633172988,-175.64291797307098,-208.2756965468786,-244.42912873328206,-255.00177890374178,-210.40315395866696,-119.262507171788,-25.76152822198792,37.269279664852334,75.59330356488674,106.60157538955075,129.90681840031323,138.1752542002031,135.32568044597411,131.6371504336333,132.47266605343017,135.8618172699726,137.01120938765024,132.0228836801028,118.71072650321372,99.28607899469309,77.03127507427462,53.30767419973496,29.629818273229798,6.797734345945992,-16.273222187150022,-39.68119625890541,-63.586386665610384,-90.27997879563782,-120.48446847745564,-152.74527763049747,-188.3050249036627,-222.31938557723947,-228.51801930812496,-179.79277422131162,-89.64455737515829,-2.308838663462484,53.7971894597909,81.89227897058059,95.9122062204553,100.74296979923955,97.03418802017441,92.48156875959992,94.63832646642975,100.90256352059234,104.56532867448668,102.61926594268412,93.94674100496876,78.89863679085187,59.065178974934284,36.71238212097795,14.337352150179207,-8.874896812644309,-34.50130930091274,-60.02590620285182,-83.41331060272613,-105.48873955434703,-128.20151276310696,-156.6993551363764,-192.9868515069695,-219.87833660859522,-203.93331108066693,-132.08861725797868,-35.81708251652879,40.70198689473492,84.15579506623405,109.42886862113026,128.23645385364685,138.1976391084058,134.62765246816105,123.8162388071537,119.59248081332022,123.60596994851863,124.64831392733508,117.32055193529052,104.8932889744999,89.94589893221735,71.21981463448567,48.15650170592976,22.825952726182173,-3.358689851246483,-30.672037487330527,-58.92017238245479,-86.51734167635314,-113.41161781868414,-141.379364899994,-169.78284768932903,-199.8344621584188,-234.27058804601754,-257.74352029540063,-234.1649169798737,-150.96100872253274,-45.415345614787974,36.51217605794083,83.14428349086555,109.3163996945864,126.89834687587346,135.77396537524493,135.09812858416785,131.4397395079679,133.2682225893437,139.3604440546201,140.22866614256444,132.3531777975564,120.35664528789924,105.5411974550156,86.70380812834622,63.94832037384621,37.65648677252724,10.858697035883738,-14.83091712271185,-40.39808221154343,-67.72420267155877,-97.46980528921375,-126.74883569922294,-154.6928733135915,-186.50327290148147,-220.86650599001612,-231.79755924143564,-187.15323045203877,-96.69007007776251,-7.413557179660067,49.730098415472554,78.70495740646064,93.49052341812067,99.10552246255723,96.61643509756931,91.32802113523447,90.36127762107412,94.85716630997071,98.76586235321639,96.68746118598594,88.36673712292358,74.9069505407664,56.74226426750587,35.33495568218617,13.306626716881928,-8.970054910784112,-33.22020440664506,-60.65733750916188,-88.03918714299283,-109.50585096870775,-129.65823908786888,-161.2216658534904,-200.97527314659388,-216.86118605202012,-173.48205157089458,-80.60901517327756,12.348067621097188,70.62030509094238,98.00617541666432,115.32481703121755,128.71546851459607,130.77215299863178,123.79323587629472,119.67622529239335,121.49798080907884,123.4809588739596,120.92580938167222,111.2321919275178,95.52731226511207,76.11310985383857,53.027951065993555,25.617363567953447,-2.825013950157189,-28.018017813930744,-52.81544728851216,-82.96802309682798,-115.66377017733237,-142.92984260349948,-166.82492347214443,-199.70495643671683,-236.87815128741101,-240.90437362518955,-181.84745266577357,-84.4302419900583,-0.08106669895341262,51.82386967272021,84.1586021337277,108.29657373495276,122.41074183115586,123.87534346381851,117.41382622430993,112.10246152277297,112.47275406246251,113.7263716396372,109.80375897849238,99.26083680686459,84.44299468020544,67.6330639390147,48.012959906391394,24.846593814734348,-0.3515523936220278,-25.51017465195316,-51.05182188952856,-78.80073494977928,-108.93551572830022,65.0,111.0,81.0
84.93371370701598,114.54903334180548,133.9259083622738,138.03360758345354,133.96353077889452,131.37861036583843,133.40636462752258,136.61194296300525,136.35515694425965,129.02204549224524,113.54395605276954,93.06549507304602,70.275497446715,46.38673693658926,22.973386209349144,0.2031389518518637,-23.037503373766235,-46.45964893842956,-70.91013271682628,-98.71241503008477,-129.60862258736483,-162.5947980145823,-199.02170978148,-228.56107427354354,-220.46464867026896,-156.2141887301423,-62.240261301034636,17.472522082317525,64.12636203359804,86.9481953083373,98.28326938390515,100.36203091979705,95.32962097209605,92.33256016033887,96.35095595878596,102.44158060042504,104.63319745940197,100.8366817398474,90.1839714997037,73.58759531973273,52.72837604318685,30.205927370063822,7.83728230598262,-16.067210216004057,-42.051119547743944,-66.99005891807643,-89.87454840781191,-111.82731553053817,-135.5603495507652,-166.66103815224358,-203.1066286061157,-221.02844337939504,-188.30863351167534,-104.58845631181579,-10.310380296172147,56.26068913349262,92.5208887719787,115.42247635843006,132.32970745507464,138.55233321657101,131.62919523255746,121.46281210388996,120.32414396202839,124.67917169993126,123.33297720889053,114.05783070723274,100.83774762050815,85.01225187779532,64.93580941609692,40.96906385479798,15.340898303702327,-11.112579554547732,-38.792186162929134,-67.02835975238744,-94.27302249584045,-121.3558425199217,-149.59750157830348,-178.09230970576357,-209.46391447072693,-243.61507611364146,-257.2534593127002,-215.4100076640687,-120.34977471806668,-18.03078780745555,53.19047991667139,92.02391079525611,115.12300410567435,130.49804627039364,136.41668935278716,133.90197371497436,131.20334409707218,134.96563909406996,140.52723711331504,138.70566520884515,129.1209485436605,116.448725118085,100.50818092792743,80.5441853305865,56.62402090175119,29.82112303256701,3.341609598202736,-22.161281941673867,-48.02162115532803,-76.14563236375847,-106.13097269505676,-134.81462352217986,-163.22461965629833,-196.7845989500127,-228.16752563723514,-225.27005444610762,-163.91508162333116,-68.69509828187678,12.75361021907898,60.294741271735205,84.01834044024181,96.0392190566032,99.08468771620458,95.0301581521466,90.38276360710279,91.28043492753235,96.37452961935364,98.87649766759482,94.85767782746007,84.98465704036673,70.11456507230851,50.772929824130685,28.948941266327953,6.960815125456093,-15.691865394609424,-40.83520038710615,-68.87943362864974,-94.94857615849999,-114.87894549018196,-137.2331551677376,-172.76669440302138,-209.96512759195792,-211.13573242326487,-149.85158236593105,-51.528899959458464,33.2598184358226,80.78004865217001,103.32937178404687,119.87680294034956,130.7021687036424,129.1736955648467,121.8936591084893,119.7999335564262,122.30963688119176,123.3693545173743,118.88668191890854,107.1856250698622,90.24591397747345,69.87830381979151,45.506635587444045,17.25026154231837,-10.478775342485836,-34.91170919244919,-60.880492304992515,-92.53707186400851,-124.3106559549893,-149.68404781713295,-174.97552290775337,-211.15924824314163,-243.48695072092406,-230.3804882040662,-155.25377497382595,-56.97029873130338,17.992776720899723,62.401128857911054,91.87580406813194,113.62927172063347,124.07083216183084,122.44171642241297,115.38618664312969,111.69193848571501,113.08139776559757,113.27906676700714,107.38761736956802,95.26559362062123,79.78106876950109,62.321225438426495,41.661193833513806,17.658749159363616,-7.661470206172583,-32.769989627418745,-58.780425338224326,-87.32962277870939,-117.80753691614761,-148.4397125173618,-180.92070887243239,-215.2732862280947,-231.01906210444668,-195.20779839476097,-109.22310972202663,-17.154558170282368,44.08378252086389,77.32799668767878,101.98663916713488,120.58764786213757,125.99592373348278,121.10029521454501,116.39991303418458,119.5763764928881,127.15967813233888,127.57528920095572,115.36228765201693,97.36102774803926,80.948963491539,62.8137144317834,38.4692622885554,12.511667397279366,-11.241970949185507,-36.71796920450636,-65.26292015516964,-92.47804277265874,-118.28670792898185,-147.99900709584674,-182.0123298281375,-208.69600829706312,-201.22535422445682,-142.2363693943586,-56.171196959704986,16.372396483119854,60.452714181400125,82.35245880869039,91.40637814342597,92.61674188083596,86.85410800178627,80.02422333673326,79.4079952534321,85.50138970245206,91.69888316328559,87.28368031112397,70.88384221017964,51.872941853663455,33.33358871071117,10.332639349915466,-16.437482434520906,-41.31628857071292,-62.889112641431055,-84.60388071220177,-109.31995724161858,-138.2483868568441,-170.81054567096012,-192.39301971890143,-175.32139000087668,-110.73436936624805,-27.480654847463448,37.525291974395905,75.89521769719998,65.0,111.0,81.0
121.57017752250876,125.19464209686359,121.31185705707107,110.49280081415733,96.59018892459069,79.70245558539102,58.31295616314793,33.65594213783461,7.797317179930461,-18.978211764073183,-46.96951322619005,-75.03196844003573,-102.00818094733398,-129.42647743265664,-157.80009060030022,-186.6378457085426,-219.50510487523158,-251.37334885358217,-251.84535219724174,-191.86538570298043,-89.21399036553731,6.471462801718376,67.04520091561012,99.67655746966284,120.35750291214404,133.2818051063085,136.29585658611015,132.69742869054488,131.59834857024885,136.85034987614637,141.00102971615857,136.4927694950983,125.68600389177476,112.26067400876494,95.13398423672382,74.05367481751259,49.0324060939697,22.040642715814666,-4.084631238083274,-29.51471154552512,-55.849743445490155,-84.75045593402038,-114.65093784783485,-142.81027116388876,-172.26526777814598,-207.0934425553608,-232.57567897995295,-213.46785564238635,-137.67904409306635,-42.08331660943875,29.8675330892033,68.88208997258285,88.43436191671148,97.83756144858721,98.43177706474569,93.39372663410929,89.95848863943448,92.59136410918246,97.64979619952817,98.40531419818367,92.54543435255562,81.18820315021728,64.93709964436113,44.59001365016521,22.575464552523623,0.5648629343999509,-22.624173596178675,-48.73831760424082,-76.94352555044186,-101.23673941974737,-120.42552601233531,-146.06850691961867,-184.6603382381207,-215.89097449339747,-199.78160275352107,-122.94820400350537,-23.798390404244472,50.79506216061533,88.81434127703693,108.31465287100701,124.0041735594976,131.53599025288278,127.06070171598043,120.53129168140681,120.33810912866423,122.97856505607831,122.78649301908577,116.21117805386933,102.70750936361793,84.69767545995855,63.30776753551111,37.62157892098569,8.935793523916518,-17.791235287941955,-41.93511932012677,-69.50488364327938,-102.12731454684351,-132.32054701200624,-156.37230806331095,-184.22835095277648,-222.5248787264808,-246.12586873033945,-214.22964873736976,-126.68570413863893,-31.78344630881281,33.364058727570594,71.81875692250615,99.03198153835056,117.9864616341416,124.66843083554512,120.53705481806617,113.691113386711,111.7722096419323,113.56986252556169,112.29101521573845,104.42852537819341,91.00232655905586,74.97699616721586,56.73107936517102,35.01337832439175,10.364127163882909,-14.931698796508439,-40.10119373706626,-66.73901428887591,-96.03251629119488,-126.66180005665105,-157.46036782629622,-191.02366251623107,-223.30230526735008,-226.94041855703932,-174.06577487124915,-80.98191697963894,4.323415944371098,55.63138847220019,84.7858744896991,108.35563184293454,123.62721245729469,125.22575002891624,119.24240127790902,116.40923074140807,121.78249790671191,128.49242124242392,125.23767044533558,110.27880211531868,92.4005727789337,76.2201986336466,56.371117598805014,30.808749566053997,5.5017339162229995,-18.21307594700118,-44.803951410714085,-73.43404051033183,-99.86293825464384,-126.28399883531168,-157.61400406132094,-191.4130782563753,-211.39811452060923,-189.23010627610964,-118.17824730766492,-32.525205639928146,31.939216534404526,68.62632848260719,85.93244862320634,92.52341775238399,91.55379071913543,84.58027343473385,79.04873070186233,80.63074098186688,87.76014418555395,91.87605483907619,83.43630688223456,65.27219797502761,46.657239707142175,27.300562994888768,2.73741092254141,-24.015044342141852,-47.78352329483239,-68.9672252744702,-91.38693174841089,-117.17037813849466,-147.54066446457523,-179.33542139476413,-192.51485640054506,-160.9014817308133,-86.69265999169184,-5.780353661765128,50.91840175866593,83.75379748963033,104.80295106781033,117.3942765370643,120.67279670310648,117.59921193678557,115.07160290195702,116.49115100699908,119.06018206720547,117.57828323084226,107.82414410917282,88.7711917291087,64.49941788921139,40.103555694113794,15.425379613006553,-11.08992013773672,-38.943571157117304,-66.3438835651886,-91.9573154952804,-116.70604996584719,-143.72382867958802,-177.4121390607818,-216.7095127579398,-242.87491421805765,-224.19616849796267,-152.96506339360187,-64.67688072979,2.3718530285766155,46.71388308881666,84.62450740922358,115.56294712872753,129.75925270170958,129.76734725972315,126.82193698152372,127.11360479761036,129.960725832731,132.78436743011127,133.96374927078065,128.61507514248575,110.25365238763638,82.31855760013639,56.8087337265884,37.32999824931873,15.846221684621637,-12.740166430288514,-44.87448249292944,-75.04652249590949,-101.42842118182341,-126.2993255896939,-153.22252616061382,-186.59754323860983,-224.87523752394787,-245.38764054856603,-214.41748984452133,-131.73272895318365,-41.78431495357917,19.037788220985814,53.75548905449529,82.07279131344771,108.47554232127693,122.76643535041165,123.57314832167894,121.62644196595186,125.26495463366727,65.0,111.0,81.0
59.40238092631538,38.27214916506892,16.227974752536433,-5.929642577772766,-29.810788710504738,-56.866153848368995,-84.65283777859526,-106.9839909327077,-126.54274547018517,-156.1782548188016,-196.1121099417115,-217.68056434097406,-182.94019587682516,-94.14027468507922,1.6110742301534526,65.05778288680767,95.34204031786683,113.14494911407503,127.43818492222124,131.24389413748227,124.79396717034886,119.80208216349864,121.11121883626681,123.3977467097167,121.6522250677892,112.93136920774124,97.8662686370771,78.88575350577291,56.36285525080879,29.449734826828134,0.8190325308406919,-24.82996966682697,-49.278029953550224,-78.6304343419735,-111.48839011479942,-139.70334589489855,-163.37843090238428,-194.60437874981955,-232.81463826855486,-243.82083158953853,-193.0405148822394,-97.61963792227426,-9.39887254506869,46.43821163503844,80.4126752375099,105.54572750190945,121.2713206250385,124.31479737837793,118.4050368422011,112.47739736297315,112.20500467383384,113.76941407659379,110.72403914494845,100.98755811425495,86.54732477218114,69.99887140079045,50.83644223019243,28.105018682410986,3.029040091017907,-22.173193966605837,-47.55755734050751,-74.94017107174619,-104.84976593437864,-135.49185322962055,-166.73818652111953,-201.2127154807923,-228.97828231414937,-217.79196788045132,-149.32147638471807,-53.572771498148455,22.66741653107917,65.31058777001432,91.95237681051998,114.03742571055076,125.4282432075053,123.79620070419257,117.6834497498182,117.19479897054632,124.13596032551237,128.92011281183812,121.83622128413812,104.98832770044477,87.66998520801643,71.1525172184678,49.377808640182856,23.21543366606364,-1.3229227965507755,-25.475656676194138,-53.09194386684534,-81.36250213948401,-107.224246033966,-134.74516163747293,-167.5201721076309,-199.78102007890465,-210.43475122081503,-172.81570762237678,-92.90722657486279,-10.891503681750496,45.10647535710711,75.18360771076168,88.66289510189539,93.02734638494931,89.92804354275926,82.44773290125423,78.71667658312955,82.36296859791814,89.78971104958065,90.90054539079584,78.72303319807887,59.71195667765428,41.412784561213435,20.761302391544668,-5.053735216211502,-31.295517379538452,-54.012081172259855,-75.16658642831061,-98.45435535329449,-125.41436245273796,-157.08431131411345,-186.37742712346872,-188.6844804133277,-142.66017285847013,-62.137484357965775,13.644184933493563,62.249195133693064,90.71557250346626,109.35334480336455,119.28595080296678,120.15095678719801,116.53705262999438,115.10257915705625,117.33998997811305,119.27069877143157,115.73644295266459,103.1960774950491,82.00578903009085,57.36920767263963,33.10265177223269,7.967860603328366,-19.065762062971807,-46.99413103671318,-73.93743364460117,-99.09421541984186,-124.09132721964376,-152.60886834048966,-188.5962846034429,-226.99131577187424,-243.26946362132333,-208.1149332160504,-127.04314842977192,-42.29293924875114,16.731214291021892,57.91484694902612,94.78567764428422,121.5828894303757,130.74447556551874,128.78045879393395,126.51251908665456,127.79931432492006,130.8555792734463,133.40023164000317,133.437266602475,124.76700547072979,102.66682956775152,74.24703444629449,50.79833768826767,31.733172202183773,8.286067857706092,-21.937987579538184,-53.9647416891672,-83.01783225674518,-108.61327112183055,-133.6963673922975,-162.01627139978356,-197.6707763807516,-234.21509160423238,-242.7800966497291,-194.40579682462152,-104.20611568669725,-20.654023902923598,30.857938977481886,61.94038484801072,90.27636636336048,114.2305637730965,124.02985986562965,122.75581204081465,121.99366756437851,127.33783717792559,134.79034779747502,136.28580176902636,126.90889100709114,109.36903416891404,88.47526166382532,65.17482080078028,39.67241344120221,14.799093178695536,-8.739655065616535,-35.16016039362431,-65.39000280892152,-94.37498352683225,-118.51227608147259,-142.31374458168864,-174.86291441644175,-213.56113274473145,-229.05907482483462,-189.60753389320675,-105.91198963153809,-22.635726307419997,30.964618328447393,60.69560129140684,83.8602090703888,102.62740878591782,109.46510221066562,106.18997980592849,104.00310302804142,109.28808461481104,116.52513790772268,117.64992574082748,110.85265525517528,97.5570040779813,78.99962154627013,56.7213491545559,33.43018603505601,11.385079427175764,-11.50062472411668,-37.516531612792704,-65.13204225390062,-92.25021946738609,-117.53085976974505,-142.27065559105296,-172.96373312958664,-209.1801744462487,-227.8753250277948,-198.4411475086367,-123.13777698106287,-39.487251297867275,22.077264954358455,61.368906403233495,90.97179476898611,113.5807340036698,124.43952903078042,125.70888947752678,124.92849965124435,126.34936012692009,130.2242849918913,131.87565844206185,125.89923272319025,112.81094680236237,95.91646697451634,76.5768117364886,65.0,111.0,81.0
-113.71753031596978,-144.33610604390154,-176.36116369612373,-211.04201737490143,-231.3179014618279,-203.47284757059833,-122.17715796997923,-28.057468884927477,37.965281824880115,73.72541925195006,98.89061351581746,118.7770500913086,126.05806915387157,121.98495402687313,116.6505331201149,118.6905316193491,126.30952273143188,128.26596921920355,117.55928359966695,99.72851384429597,83.07102807572161,65.58056189113653,41.97117137580281,15.828769828197885,-8.094604089337569,-33.089837620248595,-61.43754142235586,-89.02399240820603,-114.73126171733148,-143.70564897612675,-177.486941520996,-206.4277651195457,-205.19010610306148,-152.5942292815461,-67.57897948289721,8.35046865804104,56.073568920494,80.36349328455555,90.68688797767162,92.89538298265936,87.88271232380025,80.6738937354347,79.04273458261254,84.46275881126104,91.27874038753114,88.69930884669601,73.43362496013256,54.30907705613808,35.96269036622518,13.72375601018461,-12.870124645622498,-38.23270006686378,-60.099830819294965,-81.56862362951217,-105.81844424651915,-134.09613916212214,-166.57590695628156,-191.16296459418297,-180.54825511206602,-121.33951937408771,-38.11923001810408,30.565054351745243,71.9033042489733,96.93352295009421,113.18376358650141,120.37959576411284,119.23659210001244,115.69828450757595,115.47984183695692,118.16738443229306,119.0152700476823,113.11846041964277,97.80513240875729,74.96375061689372,50.31503346221269,26.02019896987938,0.33806946908851165,-27.123149283940876,-54.9553735929862,-81.36329381335817,-106.2064134552098,-131.75925023870926,-162.17124098992747,-200.1279278634084,-235.4937108118823,-239.10709742979572,-187.90486630998973,-100.9267632436795,-22.358582987026246,29.576056781471326,68.93117301271549,104.10970709260367,126.0106287753801,130.77496670690036,127.82826694751449,126.53608162955487,128.63378167177845,131.6956964362313,133.84746821868794,132.181950899527,119.70086761838375,94.51455953593502,66.68998277882368,45.218937361495605,25.711291015484196,0.10599757867122628,-31.279841077948713,-62.776040269182936,-90.67437457060981,-115.75867952920285,-141.34686991412275,-171.48376651150323,-208.99595230443873,-241.25459608942276,-235.07536806838624,-170.63340455804675,-77.43916972494212,-2.4764894607013908,40.94052914652222,70.06057920937121,98.17624606170281,118.68903118723706,124.30747801260634,122.03299711244173,122.93980001161898,129.6117981143173,136.18013271238502,134.70679742376132,122.42715130357341,103.55392043170374,82.02512364192766,57.946421398336845,32.27942497395545,7.999923993785092,-15.897674571242858,-43.65033472749877,-74.16929217231407,-101.8120015618711,-125.02497168752159,-150.51224924764267,-186.20024229932275,-222.2304001730011,-223.8646726060172,-168.22534753600956,-79.84812928268877,-3.777409411290564,41.14358614799685,67.58775390101567,90.07859347597373,106.02288233362461,109.13412698387698,104.94705094119013,104.8082850181878,111.61304050777268,117.68351703778345,116.44524687337213,107.61917956668044,92.68127778991261,72.85371140493301,49.94554893929902,26.935314429942892,5.030236258745509,-18.707765484126572,-45.444907077492545,-73.08326059886397,-99.78503615532763,-124.51426482706506,-150.2364958560721,-183.3978291157178,-217.94040710008025,-225.11787135311562,-180.10957549326142,-97.96270363274706,-18.886168723960218,35.146985679822656,70.51319891794066,98.44163393781082,118.02757414166598,125.46290301186549,125.41348491471302,125.0297684027057,127.32385049377459,131.23660650206202,131.03563852094257,122.69042184578025,108.21617971727628,90.56612903511835,70.57102314048088,48.63062467158643,25.801971848966726,3.1455290503227884,-20.100262746559153,-46.145728435826086,-75.53604849663216,-105.76888067528652,-132.80534543980517,-158.93297241463324,-193.55856261300627,-235.7651449037017,-258.0590903291154,-225.54536773279432,-141.24770833767255,-49.58074024798314,13.952245214334303,52.06465020087122,81.7019257360626,106.22787047504724,120.90790265471043,126.30233812999839,126.97512588807761,128.25694162514046,133.17722844768707,138.72437037386436,137.82935330038273,126.06623535027214,106.40722386773403,86.54181178636266,69.05066990907592,49.44458550958445,25.391981560435703,-0.9047593217887349,-27.262220492172503,-53.7162473517269,-80.98659935718051,-107.7782746687693,-132.31175860862822,-159.81010159692988,-196.3995752823823,-225.46526813808617,-209.85710820991835,-138.2168468222158,-47.07488913461503,19.788728441047827,54.678142346877,75.84292103703577,91.92177658030063,98.83117474844103,97.52989746008372,94.1611578848255,93.93041446466859,98.09114995594476,102.29317032204285,100.70096501449147,90.81128471998774,73.82477229904508,51.93217755896465,28.82879680739557,8.142229813508717,-11.69198443725871,-34.47522198083203,65.0,111.0,81.0
80.25513277621882,102.47375079710127,116.24916192272734,120.73190835163255,118.12465958098332,115.18409061615968,116.12895501166707,118.839267375368,118.18327770538637,109.68513028359979,91.74936585979212,67.80446722553977,43.32099894111032,18.805485096603746,-7.4513106544143906,-35.2152351049838,-62.78606728844275,-88.6414016242222,-113.36622860018187,-139.8312000135774,-172.44607972081766,-211.59762514284623,-241.32853001286406,-230.0380400325121,-164.50751023138048,-75.7318513835479,-4.903742777953315,41.442642775754436,79.74975393653767,112.26924507130514,128.90021445489543,130.1721279486002,127.0741914689821,126.86929335934703,129.53873061717292,132.46137181396725,134.01927183864066,129.99037046638088,113.47281594957475,86.14981658823173,59.77547796953068,39.82723804963381,19.10904271874437,-8.592886768761556,-40.612378931506285,-71.25535530155892,-98.0779432622247,-122.94812829119674,-149.36539640835775,-181.67150411091552,-220.05617880900016,-245.01498073985144,-222.10676165019964,-144.33159734155285,-52.474454939324595,12.846581797229664,49.872701067935445,78.2663462914613,105.4365090005732,121.78402556883267,123.90044431275173,121.64489760825424,124.42517289220193,131.89055062156882,136.86233786037508,132.16956094077995,117.40090100859426,97.55252996383395,75.35095375772863,50.56425475530899,25.034502278377907,1.2656244251523157,-23.42542547294345,-52.40764741776311,-82.67652095834282,-108.81884633444815,-131.70496528245425,-159.68049168151336,-197.77713980956798,-227.9578213099463,-213.51038101214115,-143.9630386765078,-55.02535714136599,12.245231863345737,49.78010998313152,74.2963208186732,95.77386639644236,108.24657532910734,108.14980597599585,104.10836552112598,106.27770557137848,113.85927534866924,118.18075699898367,114.60171000211992,103.87882460025638,87.39379180631406,66.43964658577289,43.16997490016373,20.573185750119407,-1.49771354745957,-26.19085197213717,-53.4408104321621,-80.95652931938815,-107.12920737606152,-131.53771472244063,-158.90521896097684,-194.13329252586075,-224.40739126287065,-217.69015259473807,-158.48619364921808,-73.20055895470472,-0.5905079712464039,46.63566011815128,79.14511864627481,105.23343492921055,121.38436664732869,125.84683543517733,125.12785358869853,125.37265991022336,128.4752329299725,131.89225368997722,129.46450164689074,118.96867863164177,103.37478280110395,85.02142562376338,64.3969374781279,42.067289548425094,19.22067796677661,-3.4127264611079173,-27.26153866164138,-54.34211075678365,-84.37853396950884,-114.00684966475627,-140.07677412763093,-167.70172091660922,-205.6595157944594,-246.0466023808059,-255.1992490042114,-204.99862982402433,-113.2999380721993,-27.779159739960793,26.747252548455307,61.01224494213964,89.54095835196382,111.58741417402607,123.25082656436507,126.74844592732882,127.06167991112164,129.312411493732,135.00080499793285,139.4340561748665,135.57009368916866,120.87583323747661,100.39221247436011,81.37864754585604,63.81736580706707,42.9048771604862,17.892600338140955,-8.55483184739489,-34.84902776153349,-61.51486146510786,-88.90323859572945,-115.05023939287598,-139.51616596942654,-169.56467175232038,-207.1129826596862,-226.99309892619488,-194.042640098513,-111.57277693654848,-24.087635181890708,32.4932862431139,61.43095191606283,81.12389333239109,95.00474444418231,99.04285353823026,96.5041899424458,93.60408475336351,94.78750530272299,99.58028758070606,102.62921434534026,98.68765539154835,86.54088723480523,67.8863303583021,45.16797505615592,22.553164885258962,2.5247286246779423,-17.884507323596516,-41.72380306514673,-68.16910474451173,-94.60901615174755,-118.91467783742081,-141.8876489645708,-168.1595443372371,-198.0038611550633,-211.80754205001455,-179.7438705634592,-102.76765308845307,-16.661912235815088,46.822280671144924,81.81844606313678,103.33566126622823,123.21629640173528,135.7860083479465,134.08316196718621,125.1915782776808,122.77706181391746,129.07645624378756,133.96965416851023,128.6136686772864,112.8207886377599,92.76463264986255,72.47418915539544,52.2947266998506,32.566491055309996,11.432368061235177,-15.808473178956554,-47.84959081870939,-78.194757398287,-105.86906026330601,-133.0584735743576,-159.5314176863935,-187.9875651428649,-222.49350174283518,-253.3903041569962,-249.8596692415909,-189.13791524103334,-93.91896508455008,-10.76730662768539,39.534728012629714,70.11269170626561,96.61673464591357,117.85109357028439,127.63445762934914,129.9209084350047,133.17467476174372,139.62928643867127,144.12025732227997,140.80179602532004,129.90866424133833,115.4762999892046,98.65958300006822,78.72198986422741,56.310389940041354,32.72093291761898,8.095391355526878,-18.70385871243529,-47.026872457891784,-75.18921610188431,-102.2071253782891,-128.2857529626835,65.0,111.0,81.0
126.34614028000756,133.9633591868085,136.68505854452906,128.75003180373992,111.97306982680507,91.38106459681087,68.43915972078558,43.10855011672891,17.98416319385607,-5.538829471069091,-31.364494717715647,-61.29419722556838,-90.78857098044097,-115.49915249243438,-138.81653433461895,-169.8603869221699,-208.86494000305333,-229.76655526378494,-198.18933587939736,-118.05773626840897,-32.27088908018364,25.60454905491076,57.398716751617755,80.88374816689713,100.68859089942697,109.32216582114098,106.82500117490434,103.87467715741484,108.26043077205576,115.79272779309356,117.97833431603395,112.16464659484907,99.65780144736276,81.72839377050465,59.820884875821804,36.47420936485074,14.284782445044323,-8.27751521271303,-33.901940627002595,-61.448454141689055,-88.71893360696657,-114.28436940684254,-138.79066991870326,-168.35453320090613,-204.62436406957045,-227.6724237076293,-205.54817893439807,-134.60125076426647,-49.70941530592347,15.41664696742068,56.92807843033326,87.34443244713857,111.172415196412,123.69484120490043,125.81006427867135,124.95262741030947,125.98012626932179,129.6872558190456,132.02632051101295,127.17808203822584,114.83297030904401,98.31682545967378,79.28490259521357,58.07543469362109,35.461747881371956,12.675648728594409,-10.067683286062545,-34.710329159064926,-62.80574846279113,-93.19589242004884,-121.88068435922935,-147.43739744242947,-177.44619509895406,-218.17171891516782,-253.7013934383997,-247.02743304732925,-180.7561872779337,-86.0615594262847,-8.840154901481114,37.84551199700307,69.61506914691066,96.8490801285404,116.02713735692431,124.89947910406885,126.92438297518441,127.33414547945954,130.70104958359732,136.73792168935967,139.4181451174191,132.35081936305548,115.18083769330771,94.56156688091677,76.37454185960777,58.26559398087088,35.99831145485158,10.284289828078402,-16.17500453301872,-42.46867422630208,-69.39235266122776,-96.71529316215918,-122.11086119441876,-147.2044516760689,-180.15902531248506,-216.45871847959245,-223.81031505064166,-173.775437682213,-84.58609447658114,-3.99311021340755,42.79076730049876,67.55454547027722,85.97108479041498,97.1916999867687,98.69525183527698,95.4570392900664,93.42369051185382,95.98138853033613,100.92253079616893,102.35026689066036,95.96926269120837,81.72900655693886,61.59006763268268,38.42151099648509,16.540874042539585,-3.1275323478523367,-24.394470470397227,-49.20029962893317,-75.93032070119972,-101.89437750851822,-125.53794136978316,-148.90992443277383,-176.80409977711713,-205.0857008942952,-208.10952824955527,-160.89492553836843,-77.03480942672024,4.80075039696669,59.435519262334694,88.59278175290287,109.21250313409881,128.09817534325256,136.7352253241319,131.60994833591036,123.39828614787125,124.02910682411562,131.15256380943728,133.66625463668407,124.90135081024343,107.182754751371,86.88242904978785,66.62741287644747,46.54161788020745,26.816145123050717,4.317962200550606,-24.86359207869109,-56.993070553920035,-86.33410000617131,-113.76094882101226,-140.7699163702572,-167.29945071714047,-197.3477306763376,-232.8275023131601,-257.50838515858754,-238.14739694713492,-163.07862419736142,-66.94765251796932,6.999716144939033,49.44669452436949,77.93177280467009,103.66442745198984,121.90287421127975,128.6557479903581,130.49159615236044,134.84204050246248,141.44395092523294,144.10109552425493,138.2517826120208,125.96876675671196,110.9046962537804,93.21977027791438,72.44221275961837,49.57102982684435,25.759613813917465,0.6023241485221129,-26.818063786831438,-55.232414029151016,-83.14224314783145,-109.76943485317581,-135.98786663306575,-165.67821868563027,-200.78788081790796,-223.87718374367807,-200.69949208809862,-124.46503223640403,-34.628079534848695,28.342532364843162,60.099801988894306,78.45068454208663,94.5498599682053,105.75698280275991,106.01544610483732,98.09011167280947,93.6212677001534,99.38478295246817,106.28029888686899,100.05312966379108,80.83450158730368,59.690920043206035,40.66243052391791,20.796941684757577,-0.45871340917862596,-24.648321501824466,-53.092160013872196,-80.93003209463558,-103.74294370650271,-124.86640695248349,-151.69007727773007,-185.34887369758854,-208.7492978354224,-190.03734208090114,-121.05072611909466,-34.384632755541325,33.20815483616162,72.49310147651792,96.05311496011598,113.16217184914129,120.37400117142693,116.91514866782975,112.45559742255736,114.32831506020726,119.59508890435633,121.96777249711927,117.59084700273777,104.4881002208007,84.28808344937741,61.23513584559606,38.95944395281845,16.170064694152526,-7.59611741584545,-30.12173818201915,-53.92645334770296,-83.76090948150527,-117.11775568297324,-146.99382243171172,-174.58397402152724,-206.6050505726344,-234.12049781894268,-225.0492831562847,-161.78919792950444,-72.66165854210988,1.867087073124154,65.0,111.0,81.0
73.36184643689153,51.633136748843775,28.846799465284757,6.153753612689902,-16.88514134651184,-42.46619004343724,-71.48367381501708,-101.85981746047541,-129.41654443490435,-155.1660339882975,-188.24467175391047,-230.43211857510366,-257.6998083207509,-233.49683410255423,-154.03425251823504,-60.55089813858274,7.336969876497847,47.76372654643936,77.95529411360151,103.45660441955438,119.56454998490253,125.96997477851164,126.96445649281465,127.88880985809104,132.35534901455554,138.19830731233313,138.54534761690246,128.23424566803325,109.19997990070055,89.00565114439841,71.38710618810714,52.3235289151928,28.792772736776932,2.628072989331889,-23.766947042680968,-50.14916485151755,-77.32405322073107,-104.34162054087926,-129.07856280461172,-155.62796419990588,-191.2629125480801,-223.38315393270827,-215.46673222667658,-150.0172848862827,-58.501009193880215,12.988498715331113,51.24369173848174,73.2970163122828,90.21508726313279,98.49988739157996,97.95712006817787,94.52082415900377,93.6706289976175,97.39967416552612,101.95907827877059,101.38637064764421,92.58349263512696,76.4238436589114,55.02221447050906,31.807785635976998,10.755348324627823,-8.934957561542788,-31.22445224593551,-56.84351743608919,-83.62145575593317,-108.96174241774874,-132.1098813061528,-156.35820800948017,-185.65628232624962,-210.0822040619124,-199.90576373373102,-138.8044453021329,-51.5892039563074,23.802426832020384,69.80686660045922,94.74082529791795,115.07381046299594,132.0745661200263,136.42522384386132,128.86503390354298,122.4613052881345,125.88370160984101,132.80555414105348,132.35596636618183,120.41056331201447,101.3662231914311,81.01999793906376,60.78593389596506,40.845827831507904,20.850661913760998,-3.4225118621018047,-34.18206523784758,-65.83977222553766,-94.31737460082776,-121.63947952734638,-148.4008178440127,-175.36305061157958,-207.2894933420411,-242.4141103553593,-257.8040022632954,-221.4116004171656,-135.20741737895656,-42.09876879567884,21.93920254467514,58.26382024706166,85.64907791983028,110.073535887051,124.90361891338266,129.2674304384473,131.33041721056736,136.7398564362475,142.91960371927442,143.31451099682033,135.15685566665329,121.82917447057874,106.11517494100187,87.50978875811624,65.98570249541548,42.76573316131264,18.693543874301785,-7.102700734191943,-35.011467084360085,-63.39360319348475,-90.97716893048455,-117.27659010615095,-143.9730405726957,-175.50681663217424,-210.16208717223319,-223.19403781959176,-183.04249621285507,-97.61400595577004,-12.75015457017065,40.06692424988223,65.99088970762085,83.24607555463659,98.61661751905085,107.07160284493276,104.13677553018111,95.90300198516098,94.32760479883883,101.9964874919406,106.19017597405376,95.38347520209724,74.50750852572133,54.08570818339333,35.097808030753455,14.78836017910956,-6.9946481225908546,-32.54164083073338,-61.493367118410504,-88.05597269556205,-109.6848681936981,-131.76809368494145,-161.0187663201256,-194.5180791930413,-208.87025254970536,-174.42323018877912,-95.86523358829601,-11.88267305845766,47.12593591415418,80.23402356409026,101.65004148480493,116.51376141947507,120.17818526144328,115.22270751304555,112.30197891833295,115.80756239214423,120.78985049701124,121.52770844197404,114.70651946933981,99.22298004258147,77.7008590692679,54.68196183924728,32.55050760150191,9.286377415531202,-14.246367632545528,-36.61442454157423,-61.84491495209214,-93.37608795574653,-126.28703809960255,-154.86506646074338,-183.27162702681386,-216.1418683576529,-236.8014049494768,-211.89304285877267,-136.65067560894022,-48.38463834711091,17.90787333614354,57.19094979782267,83.8367420763219,107.34689125899286,122.84768267836672,125.62719771725337,122.71211840358147,123.87734326761893,130.81447308447238,136.8542722853274,133.58349050920813,120.10390552949055,102.3703369950287,83.4560448922786,61.59224989896383,35.62553910931312,7.7957412568751705,-18.251387605330986,-43.056498105199736,-70.37085104111253,-99.53914034198557,-126.9518604408352,-154.25549029232192,-186.03740833855778,-221.87232950078243,-246.13844711512786,-227.73861468710203,-156.2786848010953,-62.32054408282111,12.420084266951097,51.81151016949611,73.12622862660146,95.97319574504971,117.23991091301542,124.93172657840715,122.17220940271186,121.39689692649466,126.50124459032673,132.4270880446271,132.26255278221856,122.54390530540262,105.71640900049108,86.61811916768112,65.61339566655899,42.57368248493644,20.1962505179372,-1.2758539590623685,-24.37684721195108,-51.70083719770855,-82.07309117983138,-110.50646837552316,-135.29418196238828,-161.5604868298605,-194.9857716553229,-221.1322323314913,-204.69690036681058,-133.29027507046226,-41.599912646972754,27.138541923508722,63.405432062626986,84.97574212960686,101.63069870787817,107.12436557761498,65.0,111.0,81.0
-38.35027056381906,-64.58568059064145,-91.18170812145104,-115.81667453001478,-138.75721991639207,-164.31682646562737,-194.27740745362598,-212.1040065374164,-187.11557391964848,-114.45786041873792,-27.28631154392191,40.16592238281537,78.3558614104959,100.63544571273681,120.74195074539158,134.907395910803,135.0237333871776,126.2500423891428,122.4669135391854,128.05485286452802,133.79265555997452,130.02182603842036,115.31876402293865,95.48156996590248,75.16994618378851,54.96531138521534,35.18314591672749,14.516916506532606,-11.775119754521027,-43.559358676000734,-74.36398133113438,-102.2291777607487,-129.4724666615659,-156.00628214478448,-183.87635734293204,-217.65596563894005,-250.4552968805579,-253.52006807801683,-200.19150563712614,-106.82907458393413,-19.96876708923886,34.445332081916824,66.45228198327703,93.21791730842696,115.62568138860823,126.9571603566537,129.71184662682933,132.5114269705157,138.72804879016576,143.88658845993731,141.76104607874987,131.64035133624384,117.52017417179145,101.07449368534009,81.54814149387393,59.38899117093531,35.90447207964444,11.481176988179483,-15.004692659300135,-43.23552479225357,-71.4871259825982,-98.68970112108704,-124.79308494457362,-152.38382580815625,-185.7775273054103,-217.81743170711266,-217.7642262655877,-161.30357924693243,-70.9437197052597,6.172570800701793,49.46596779787273,71.25908186982018,87.96710803881803,102.10241919747067,107.35179216639341,101.76799073306502,94.33874628920424,95.9295644666663,104.31009947487212,104.71149558537488,89.83300171124327,68.30772221093095,48.62258367060187,29.3871060411174,8.689126316161706,-13.86586778699147,-40.76770810386057,-69.66983498846174,-94.7055233876172,-115.65675545740565,-139.32443532930046,-170.85330035206508,-202.1703157974178,-204.6480581570065,-154.86251009758533,-70.31042977974988,8.313576886763196,58.77290802713106,87.08515818323572,106.78185117941491,118.86388213421577,119.19362473838657,113.75579907791946,112.7569457736376,117.40583812957868,121.6114662639468,120.44801031434176,111.0681331436297,93.44320579317133,70.99780394771588,48.250052225537445,26.011298837072047,2.3733414843525478,-20.750023766192513,-43.34535572929187,-70.36274576457846,-103.11659557407454,-135.00799065711834,-162.7046226528185,-192.49021247212883,-224.81950517826328,-235.4618870068722,-194.1932274245638,-110.47208218847206,-26.167643444834948,31.55733776371033,65.48707367369863,90.9512937114298,113.0413310543783,124.85566449398495,124.85773542821597,122.36188439835827,125.46382985965731,133.0706188611032,137.11131311782935,130.51725820468067,115.16264913259363,97.05156622870902,77.55053868442626,54.47706373897359,27.59912830942862,-0.010264470027980796,-25.373206150943176,-50.58794317907905,-78.79653189767126,-107.70039957548204,-134.63038466091876,-162.84118689057752,-196.25773655475933,-231.33710364118014,-246.45562094690314,-211.84391119190533,-129.44098959209597,-37.31962574103891,27.144449374598473,58.65308283648127,79.24788245848598,102.91637835027241,121.09126928547121,124.6437212834113,121.32958442366204,122.39158916299304,128.45093587483015,133.25865353514197,130.44232359239635,118.17138951635162,100.3092680177266,80.82341108785907,59.05989733265534,35.947390543308515,13.986614729837239,-7.647492545260985,-31.777675033227574,-60.36710053074636,-90.67721411286256,-117.95286941085314,-142.34821580900424,-170.5519986839637,-204.697436153078,-222.2056490451595,-188.92947721839747,-106.63295767205493,-18.16413111012694,40.388940311550726,70.29857588477851,90.43290025717265,104.65092755449213,106.28984055580774,99.91532380296512,96.41739147309934,98.42384941729277,102.94205112840018,104.97512270889287,96.94544847106475,77.43969890764964,54.39473066139893,34.93541673533705,17.564144682856092,-3.312456418090186,-27.216583270454596,-50.72166209522557,-73.64503648128891,-96.68422126438794,-119.76761101437762,-146.35958373785306,-179.03952533582301,-202.09204368808412,-183.1780317530117,-113.40325548526147,-28.905840219566375,31.880299145432293,66.84808043171961,90.98933990751864,107.18893856000125,111.9305820127515,110.74613217597451,112.36807856267353,117.77367777980052,123.12847637616407,124.20397906582176,115.94283260392697,96.83921198890181,72.69264697606108,51.19456093559539,34.42601097304389,16.919566158651634,-7.027013756702641,-35.733734354889016,-63.170055423705115,-88.0381608814842,-113.0208603982349,-138.4820651669197,-165.5476649529882,-199.1208103967846,-230.59305499280802,-227.36137880476716,-168.30187613405948,-79.94858260449845,-5.389089905370404,40.59639041526425,71.03164464072441,97.25764308413972,115.46104187776919,121.22520711901315,120.89400913472217,122.93357910393122,128.30037481306243,132.55909539777153,130.6470791847246,121.71935411457181,65.0,111.0,81.0
-132.41014998608276,-161.34335091324454,-196.13587643166352,-222.77252733215212,-207.25081888835632,-136.54676096755313,-45.60447566770399,22.02899113087271,57.059541206426836,76.21543131165896,92.53450902266468,104.81351785432452,106.64111836825089,99.22629600911823,93.62576589444309,98.2024631937003,105.89685324729938,101.82589928481052,83.73732252992454,62.34966378313166,43.18774649599394,23.534964115147723,2.4687782213072356,-21.146193528344845,-49.189603594455725,-77.48029408814838,-100.95704609907432,-121.86764806316087,-147.61650435283585,-180.83849663403583,-207.4027261177808,-195.73443984902693,-132.22979308117658,-45.406472913800684,25.951636827462444,68.52067841337643,93.33052320275233,111.31896218794934,120.14110521362167,117.69408211161968,112.73525560562088,113.73743820604341,118.94681855820431,121.9751994005773,118.66395189906396,106.71641525847951,87.25091704961916,64.2974365482612,41.890245346764836,19.30990051858884,-4.478349858017207,-27.165258101000195,-50.47092739428526,-79.42954756185799,-112.76017017437523,-143.29325455581957,-170.74778963175743,-202.11614868261327,-231.7671602231486,-229.4692394128183,-172.69882566945452,-84.38367025339042,-6.386707797155224,43.13407964839287,73.16393305386613,97.88325607028487,117.82819118588138,125.788379148484,123.89563050526907,122.54694023328453,127.47444550907694,135.0270606589264,136.40625500404835,126.69043351583355,110.03211415099712,91.64440073048989,71.32811480609554,47.020595468535525,19.507028871807048,-7.584156955100203,-32.47290097153781,-58.4181000685432,-87.28432027027435,-115.64408250027,-142.41364153254165,-171.9023515237327,-206.74599558686674,-239.23472819787574,-242.37232825400955,-191.68765690393911,-101.80538270466724,-14.864203348611925,38.90478749698569,64.66143116151673,85.80984356568425,109.3986829247409,123.57694990451985,123.7624816575948,120.94340320340115,123.84377830077662,130.29701304056877,133.42196289893533,127.7896831822062,113.32848274658237,94.8150525368192,74.81632370060719,52.37868951763425,29.448610174624818,7.814016801768648,-14.22844518285703,-39.58796153233184,-69.19511617082762,-98.99104783301031,-125.10771525359034,-149.73187600685034,-180.22961282154927,-213.1427800418575,-218.75943079537382,-168.74956155516224,-79.52561957510082,2.48229422729744,51.12164200358079,76.51698567805829,95.4820222643475,106.51391850467634,104.7363961076566,98.29454998231631,96.53285920511873,99.63262733577469,104.10369893359798,103.97301157680985,92.2452846668093,70.71943500969063,48.281161908835365,29.98450380623345,12.021265325644988,-10.08981825537887,-34.12379281078989,-57.34871619495232,-80.30429621777496,-103.29673493591646,-126.8293668331141,-155.38054603899477,-188.03201169119853,-202.20431431191707,-167.34038986398676,-88.30331183905214,-8.091476679188053,43.94116684659015,74.48678310636508,96.70947977836741,109.70184846541136,111.73554935413323,110.70924159685481,113.69090592526308,119.50039969541808,124.09771927288796,122.97124363622247,111.40593851390908,90.00215370981891,65.95867934772821,45.996127649158765,29.779933149559238,10.756153635996608,-15.104608930501444,-43.988418690421504,-70.5078843837582,-95.15996647127078,-120.37504382972304,-145.9231174433641,-174.48717109963974,-209.5197262547906,-234.88139032908666,-215.76114053374675,-143.67611831317257,-55.61004058268311,10.560656748345771,50.19894468005811,78.98408979427231,103.69777533358636,118.32272448701045,121.28623580997805,121.04319561656166,124.27944308991307,129.899143801015,132.78984685980046,128.6861149109983,118.21291307382936,103.43052287408305,83.49895302687273,59.24997725997566,34.64411453908591,10.927144647405306,-13.939265877503836,-39.41693354942544,-65.13868643615818,-92.31395347646422,-119.97903591285304,-148.27049604586412,-181.53489965369346,-216.73769005020708,-229.42936012357825,-190.6887032382647,-107.17106570264284,-22.133381421429444,32.43216175479712,63.46537191998483,89.09326281102496,109.32072147086724,118.02992059734797,118.91031163663692,119.92020329846767,122.44768682385354,122.6362032033666,119.6340242539489,111.80710089273794,95.91636499702753,73.73813896988224,49.18282804287872,23.91991852270737,0.12387825302207023,-21.926266906265845,-46.83628026175522,-75.10605802874397,-101.81149652537576,-125.78217137341068,-150.89390945830644,-181.93155599557454,-210.84194821426811,-206.20451483631052,-146.520527704886,-58.22095240747457,13.932018747446362,53.85076820579307,75.54858373013172,93.58007233711338,105.73654322295212,107.28748826295008,105.19403608133527,106.2177907281059,109.34118489696608,112.21620722055268,112.2655436787177,104.37913305525164,85.52786801485946,59.817274761664386,35.60589242702987,16.265095989752066,-3.362781861737063,-29.72749459375022,65.0,111.0,81.0
10.823755637325055,53.05248374046833,80.51106588369025,104.47956394528775,121.53152001323011,125.83433553732662,123.0202246411197,123.32303110220467,129.74034773376513,136.4437821897648,134.6984585714663,122.28192908519188,104.80231434326534,86.08822729634404,64.74971423550741,39.274279569855956,11.461017967335845,-14.928835816954852,-39.6724979173726,-66.54200999701489,-95.70712961768665,-123.40866260074101,-150.43955437332332,-181.46520327073716,-217.195203812986,-244.69252996256583,-233.4831791281931,-168.06419684206384,-74.50386443210331,4.5543694388751605,48.189874004555136,70.42548648433552,92.72903564737383,115.02521598688772,124.76553729975329,122.65974177687524,121.1200899951331,125.61845900580487,131.8546672222108,132.81766935179203,124.36021159647335,108.1664511941384,89.23267090883292,68.57053253386017,45.65977609803636,23.087873979832892,1.612403926662875,-21.09530097288342,-47.796992590469,-78.0345745578542,-106.95666964218947,-132.08818953127724,-157.66806025468435,-190.3241742057078,-219.32715958467563,-210.31248415304663,-145.06999958262793,-53.1888291216884,20.06433058463305,59.87498497491078,82.36583004230522,99.88782427505846,107.18877012708838,102.79118991209089,97.14490724670836,97.06617043270762,100.97090533092717,104.9034189064772,101.92867824246602,86.67526517231266,63.95157760248183,42.58605303908864,25.06521745539669,6.070744016274566,-17.02496500012806,-40.93445927888624,-63.959339639785,-86.9727781292994,-109.91386168690906,-134.33195774032896,-164.91161301491883,-195.57392095203966,-197.9537670104149,-147.50362889515876,-63.231956180394874,10.081322024489399,54.183410237354266,81.56032973216541,101.6572155446313,111.21241985755088,111.29654929875585,111.0764412308542,115.26043404585913,121.12574777539756,124.59899894025308,120.82922372671922,105.994360505622,82.95064092695885,59.61633073557966,41.15928999463636,24.880366346194556,3.958428426780809,-23.44624309301945,-51.99326263964005,-77.67772663996134,-102.35916834745534,-127.73304452579325,-153.58475636472662,-184.10942865050154,-219.2879238736041,-235.2629543185731,-199.36832971552,-117.73348840194825,-33.359488719599504,24.15000856573397,58.98219897981642,86.70026421709898,109.25325582087252,120.12516325528905,121.10215475428679,121.5421666624345,125.84791449042301,131.26710921383716,132.39598896968556,126.18188988281995,114.37865940324926,98.25158359380774,76.78045867661247,52.018839864196856,27.784083263246238,3.906560540642788,-21.314757921015186,-46.75866584304585,-72.83422053352753,-100.33583955357982,-127.94359535926665,-157.1940161004557,-192.15432346515306,-224.26066390451768,-224.17423185162394,-169.6203286020599,-80.6701265865236,-2.8677326171067614,42.82420380713025,71.04859038070364,95.86853951514654,113.06509481858453,118.70362843295123,118.94517920285278,120.65994338832044,122.85508346653617,122.0844215334044,118.04876101038127,108.08451508975753,89.95144004461048,66.78176017050764,41.892413622687855,16.779291905168662,-6.274425993970892,-28.63504629636814,-54.86215437751788,-83.15388695010081,-108.91853170903218,-132.66738164919394,-159.18181656603284,-191.51839086147385,-214.59688945989024,-194.3801219665718,-121.79070210673484,-34.247616732241006,28.512865837779728,61.088522556715795,80.92967967720463,98.08026706336521,107.1636980213916,106.59743390110174,105.11283474352805,107.03117159547357,110.27566825608359,112.70298159225091,111.04824326613192,100.01583659100653,78.45567677999895,52.33411653279476,29.62676919052656,10.96488590753678,-10.139343687620418,-38.6293052086736,-69.6060371196206,-95.91864985777427,-119.8953309599019,-148.27173586079087,-183.70729868718303,-217.78610003716892,-224.07343301344986,-175.96279728250312,-86.97208266802878,-4.306429426835337,45.31164190657397,72.93222190033579,95.05792366483742,112.6467793164255,120.12695154497918,119.16745159784583,117.0566205706434,119.19126193058501,124.82014773257013,126.90646907230202,120.01460602745793,104.1743258884882,83.88770172161634,63.28707946566897,40.94437059498611,15.94722461678406,-9.188841092527088,-31.727222424066376,-54.17942917502058,-83.23086388920018,-115.11558260933296,-142.4499122280765,-170.8344611393664,-207.2415938842815,-237.81358450443705,-229.95815696910955,-170.1213534209413,-85.07594974633759,-11.892564923630653,36.39635961046792,67.79912790853326,92.63909745386276,112.09492921041326,121.98917391412274,124.02636848590214,125.80466928714668,130.42696311280986,134.57342865388847,133.47658863989582,122.94452991681656,104.13065448907561,82.67398583749683,62.21703746140318,41.4495107789158,17.984374118751376,-9.271938545678669,-36.84137014357211,-60.17544539004023,-83.06386338416891,-110.24485426301175,-140.83509164032643,-175.7253954893671,65.0,111.0,81.0
106.7822161951626,100.7826213643136,96.5260579731673,97.933947247316,102.33738359637013,105.12700425865036,98.77118984067717,80.45685366555593,57.34263243735208,37.278946728275635,19.995511776304067,-0.2734573934766472,-24.006782211058926,-47.65063089221298,-70.58280240309915,-93.62654916665146,-116.61577472574001,-142.4147327164222,-174.63232381135953,-200.75481300359496,-188.94786791773242,-124.6377362994649,-39.30467986254101,25.579233689492963,63.08114422336836,88.13715514556652,105.67791006161282,111.86191360920212,110.87421039360255,111.86941543799279,116.96850217415418,122.55919197289423,124.49456629360212,117.71263023324083,99.85897863355598,75.89434492874156,53.74113929356292,36.53578707936922,19.555598928273692,-3.4398116668569174,-31.869780991943696,-59.70779751328595,-84.77051196498995,-109.64152281154195,-135.08490360742283,-161.64664529649275,-194.30568578930252,-227.55776768001462,-231.00671150444603,-178.866719918055,-91.68815656080307,-13.608957919187198,35.77116797787093,67.29493375210244,94.04839621960738,113.76126082869528,121.03835627868234,120.92098198074237,122.41359532366697,127.52570651872081,132.26196654833439,131.34757152300364,123.21857831239645,110.20879014704194,92.59643886361152,69.77127426167688,44.8669101773969,20.968597369599493,-3.260628388257031,-28.68729665294553,-54.149925389546446,-80.67298785682262,-108.34365433221316,-136.01141759093264,-166.67722359332222,-202.7085582881919,-229.06578155314213,-214.0420112931318,-145.4815533859799,-55.300377238341675,13.436196214519953,51.78734040680641,78.50746710081329,101.98831527148762,115.76026488381204,118.92489498318966,119.16910269041041,121.45646849178107,122.97619226211329,121.29055528036346,115.96804918011192,103.63072132570223,83.57069655851073,59.70111666221156,34.56613674540659,9.838659484805522,-12.578761137052428,-35.72752575963718,-63.08043623759785,-90.94723741150852,-115.83053668837162,-139.77859152704391,-168.07969852344613,-200.51338480700676,-214.55575403171588,-177.80479977038772,-95.8173034803162,-12.61197779231466,40.41125929064609,67.33367921544811,86.21722440522703,101.86561636916575,107.6912711636477,105.88134876954113,105.36307030675611,107.94521450693951,111.14898411501822,112.87260220302103,109.01545591977242,94.72261003922273,70.98142976551048,45.19712215982787,24.035516444780228,5.454749222879699,-17.614275331343194,-47.75955224742231,-77.77183467424521,-102.78613981237804,-127.38903444041978,-157.87679967750205,-194.5014447430418,-223.9956628571326,-216.17150064996397,-152.5814161191847,-60.436530893185456,13.459014062901742,54.60071106796574,79.54977727143418,100.88385442747236,115.96527408441469,120.42042358946955,118.35923497597385,117.1215709709826,120.69824196833592,126.13160147755474,125.92902065880811,116.23444885823683,98.49799396642699,77.94413151589484,57.131001338945154,33.92510412174838,8.549483196266623,-16.016973726754273,-37.89224645500972,-61.77668595808032,-92.62126465065204,-123.50452816167508,-150.0351844641839,-180.61577291913434,-217.9814041367313,-240.84287990385974,-217.49343869215198,-146.28634507533852,-61.561130073063545,4.488736250583388,46.651504286822814,75.38658060746695,99.00787688597842,116.03664845202655,123.08216766522379,124.26373325346897,126.92847791000338,131.87269626422614,135.02582200540206,131.48540776031317,118.14405920537472,97.94943480824485,76.63982369171322,56.37412766577819,35.02924347813527,10.469013571531821,-17.50020315464133,-44.01883938723545,-66.51620780976873,-90.45015730814282,-118.78054739620121,-150.38948386637728,-186.32403440391923,-213.42352254115826,-197.10626172311942,-125.61299834141086,-37.97274243944602,21.729992417396637,51.93496860082453,73.62553318993461,91.49811533024747,96.97112260529819,90.41446639148346,83.17935343590956,83.69919893307328,90.97526936760484,97.98229989124573,94.78122962433595,77.94866470980237,55.53694833027859,34.81793018580406,15.331318979558258,-6.99699232101261,-32.59368140859328,-57.08818081967376,-78.89105173827603,-101.54988337785785,-126.8548783021186,-156.96536553149423,-190.53322493399423,-203.6486714861401,-165.9415485721502,-86.00369032528116,-6.722714958598107,43.954495032558604,72.62403458405502,96.73444741698344,117.73707970688577,125.9439656615493,121.21371417473377,116.5164292352827,119.25930905165868,124.00942813330835,124.13807739835418,116.60242017191983,100.701454613935,79.3148520324119,57.133799303487734,34.26670401321164,7.371057607532406,-20.86731298376775,-45.67291669269354,-69.51217483471976,-95.91528362628354,-124.87096517746656,-155.63608083195598,-189.8338175449034,-226.4819106144727,-247.19740283121618,-220.8688497958672,-143.93655152543815,-54.954986299940515,10.00829700113926,48.12335829823678,75.56198812373097,65.0,111.0,81.0
