-26.981604030646803,-1071.6838061108817,-1349.7385669919563,-1154.6779224514912,-1026.0999752870005,-1026.3799747521455,-1010.2104167252205,-957.3474248625034,-915.5919659165652,-860.6525405255836,-725.2701762067431,-516.5574860387021,-316.1720707713712,-178.66464057411503,-93.03608512038315,-27.809878407372302,27.558566398225903,67.5329496772806,90.729356484495,103.96582577976267,116.2201719285527,136.5258886791445,165.0974572367535,191.2715029972893,204.39646183191132,200.02719707715346,180.90793180802547,154.33320855339286,124.81343012159768,92.02518335131235,56.631265096095646,15.89602333575032,-35.246306467825185,-71.41285113548994,-37.53002269461005,75.97108255402422,201.8011315349834,275.24424006432224,294.31503299934343,291.057381400351,281.4866560018153,258.94043168320593,217.20156739995753,167.612089554468,131.97005993363322,118.04174352113282,111.89558331846521,98.50450492158335,76.03017752371993,46.88456370674608,9.118804077792198,-38.60028505563364,-90.65188828282108,-139.0776511006421,-181.2609529619912,-223.73977185427808,-275.15369217095133,-319.78749462258423,-305.4679475888041,-202.95152739766627,-63.28428199647855,40.14229843297766,86.94115015578437,100.15816438399857,106.00325556923507,108.63063103181833,94.48298082068312,61.64853935221689,29.29149754902604,17.701830475087263,26.066522820280394,35.491881695354394,32.42435937849228,17.249531469049785,-6.612975739869156,-38.71346328256814,-76.83447204683613,-116.59169782042221,-152.68596327074772,-183.37471020828116,-217.86655695827477,-265.0505323904284,-302.00520860863327,-270.84301495484164,-150.57359638903912,-2.568150298106129,102.91219269058944,155.62634568664365,180.6472889752167,196.53495868273666,204.28662989008689,197.39322214389722,175.63695359054535,150.80110469761385,137.2697638218204,135.50842139565557,135.24946552967938,129.590934186304,116.79564933374381,94.02120434511122,57.68000228019647,11.296514823470911,-36.07896925417098,-79.70144081712277,-120.84274564912378,-159.49128779224426,-193.1456628175566,-227.3486582120939,-273.2363138284871,-314.5841826438472,-293.87547676237295,-182.3751337813214,-36.06498416344054,72.75678907635316,130.04811885442564,161.09815449525445,183.0992737811755,195.3916679482377,193.06143004214837,175.53106486921726,150.1772085223387,130.08078151439426,123.69423098013085,125.57742276126376,125.58001315092275,118.88002979110405,100.92705965400376,69.43619896687686,29.698893890411934,-12.476098741114091,-54.0800153132195,-92.34032806752718,-127.78548523039349,-162.64240864678715,-195.5961723216986,-224.0658907655416,-253.5357153895577,-297.218072768495,-343.03558701982587,-329.48838313990393,-214.15320593231823,-50.10622229676504,74.86950927365827,136.3664956559086,163.6779621814251,183.69774097413537,199.88791902233567,201.3684311762978,182.5444668899752,156.0419276347031,140.77657055757626,143.2317750682505,152.50184941624852,154.31770954941604,143.94144734943742,122.52793934129316,93.69109691129967,60.205210886263835,23.169006867907054,-17.388659865923508,-58.23105094455757,-93.08116401260193,-121.08732252191182,-150.1077040916125,-183.63794028426994,-216.8566567852658,-252.20814803608943,-299.6383889274744,-343.72755593442093,-326.2874292671754,-211.34253014985805,-51.05838236375075,73.19554893500438,136.80648164010486,163.62112837728705,180.4694113755253,194.20016979423295,194.88665476227717,179.1695254180815,159.0803797287787,147.5576777949971,147.99806576737217,153.7989275278634,155.9522157837909,148.5200901838017,129.86064881244874,103.06879992754853,70.27818848097867,32.88084802286096,-4.475324830741469,-39.28590208008577,-72.95799129013666,-106.17484931542793,-138.993921585711,-173.17339429430396,-206.7756809927572,-234.3160098120355,-261.9447760410146,-304.74419491950033,-342.6477565282302,-309.8307230342066,-179.22334536975438,-18.724537152098204,93.30740158405884,146.34225336193,169.60314581335922,184.56283253160393,194.2175361618388,191.28622774784242,174.43147102511048,153.98150447268137,142.71389363106843,145.95834982384778,156.0251512587677,159.2391275823505,149.4984253928183,128.7824672128571,99.7853858753397,66.44778372779467,31.570014142317746,-3.8280750547521856,-38.91707745452055,-73.21482830374514,-106.23626911866975,-138.76516231576693,-171.31528238126342,-200.71725136846393,-226.0553017359091,-255.00746784309356,-297.84184184343854,-339.2966719611071,-322.5124740111747,-207.41446076906445,-41.729493819980284,88.08224257015331,151.87186470469086,176.93817782061484,190.46455687776896,197.0337831412641,190.1953640149201,169.88523971037162,148.5763785209773,138.93354830997689,142.41510188047792,151.50111089688656,155.07618323901076,147.06049771095437,130.28036585597835,106.83408177596704,75.27598183688563,61.0,116.0,82.0
92.82471449561,101.87989482957441,107.59537377875503,106.79455713831304,86.37654311843689,51.12901350511399,23.342931668926727,18.741868183804222,29.571878563740146,36.0708501674814,29.079941676223925,11.195491183132187,-15.06622503392768,-49.288753209102836,-88.36896573636315,-127.62946701124679,-161.9187086124174,-192.32319256785567,-230.3170955374859,-279.0259805058126,-302.46164613256326,-243.8498258347406,-106.76355887661275,33.94616173638207,122.6492097297771,164.54761738670217,185.83589003532057,199.8902691632708,204.0228119934732,192.32978843270917,168.0262687196571,145.36359544946558,135.94768355251443,135.72187267683177,134.29477643193277,126.68299145902333,111.45272678163923,84.94146125054716,44.93079965235582,-2.650954161524983,-49.07551108404753,-91.75255402625498,-132.396191862748,-169.72997619767966,-202.40582007685285,-239.23338776248846,-287.6738856927451,-317.70047157148275,-269.962427504152,-139.82159235239328,1.1255986470834682,93.73218202289205,140.54658044076407,168.17679928431937,187.89973898748954,196.36259109188742,189.40278999303754,168.47359741231003,143.2542836647568,126.79415683490406,123.90996920219756,126.06801696352743,124.49092848906591,115.07863643159226,93.10682866218133,58.472176934022016,17.611150397628652,-24.688660730184097,-65.54806870600287,-102.74443567559055,-137.88843345408728,-172.51749306659167,-204.27709180246904,-231.90442011133644,-264.31592072663335,-312.1857732171232,-348.46831710604096,-306.16056663508795,-167.4072905601637,-7.337348306775426,98.33987249216604,146.17342021874563,169.63474303563575,189.11872404285242,202.36932669779094,197.7902376319798,174.7707615505656,149.83768913735452,139.87423413067228,145.95818746805492,154.19066569116382,152.58082600826316,138.75493847501104,114.79726209806289,84.4129807375816,49.87232627751715,11.766752548621497,-29.42648520429369,-69.15186453754896,-101.62443843252113,-128.99501777293378,-159.48819052101686,-193.43492111624496,-226.38010225977865,-264.4916966133922,-314.6877012583247,-347.9277085981444,-302.4739925743214,-165.62797199870846,-8.993102561875293,97.22510980061442,146.90234262817157,168.75707335090826,185.03763175237523,196.22427096681662,191.69905079257748,173.12334132147777,154.50250968445877,146.60041236524765,149.55732019808465,155.12166430629688,154.96759296705318,144.19969824945244,122.7954794297027,94.19270729829985,59.790753228906745,21.86647210588695,-14.766687072734701,-49.05483294567413,-82.62868091944831,-115.63295860418035,-148.68369485373873,-183.203698717807,-215.45866980221726,-241.5221086874268,-272.5325888963765,-318.6404643440489,-343.3640745932927,-280.6694094615184,-131.5529620975159,20.46337226411459,113.60268161529098,154.8141897981182,174.32411616165587,188.15059286719483,194.9714058951857,187.55460666851806,168.2826379840301,149.3254815082511,142.25796404368523,148.78052994534184,158.15909817628858,157.72998274452831,144.52370553609748,121.10594903137545,90.42167839130286,56.47175178696402,21.356951630274718,-14.026044535801576,-48.927677500912644,-82.89630162943112,-115.60366988936192,-148.25384862319444,-180.2955496486317,-208.30261550538847,-233.48606191234703,-265.82945467318126,-311.83401063386685,-343.397428255373,-299.04962318589395,-160.64864556041258,2.3334831850865876,112.67351769260446,161.4830907098421,181.43829034732954,193.3158355248179,196.68545780691065,185.34965900766505,163.12036964767444,144.29651287152078,138.80171526511432,144.9416632669639,153.55306185856233,153.94753301369758,142.9039831719594,124.2603985451692,98.5349734660585,64.97285948022025,28.05083497312149,-9.184089846076189,-47.13386786952773,-82.39534253497322,-110.91448313219715,-137.64412795818822,-169.74891402450876,-199.7656518744101,-223.24466355032786,-258.02461381281256,-309.71002111352703,-328.83029997232484,-250.44503260089712,-92.57048662804004,52.84824006442803,132.057721100741,162.24994675366628,175.8678220928214,182.25046606864422,174.38853881841152,151.01839984991759,124.10669401432948,108.14898334042246,107.67256600398568,116.44299614943488,125.45783731590289,127.1787848124832,114.98878176023592,87.68830757690453,51.92434263981883,13.403035016810199,-27.16897177704886,-68.45554096286628,-106.57847917159226,-139.0887687472188,-168.01533362479563,-197.21883359017446,-232.68079440837528,-276.35509101841564,-299.36999305927037,-245.68504906211257,-108.95044892009044,38.35435646030616,131.98641438639802,170.86231712350343,182.9693126052888,185.6764941309479,178.09388078018372,156.8539229127005,129.8335162681872,110.4138824075729,105.58785850507564,112.49747028923488,120.35417714398244,119.12017643293947,103.94904337586763,74.82744090470736,38.132085688373294,-0.20682064504793618,-40.380451420739554,-82.40441227462006,-123.63602487023559,61.0,116.0,82.0
122.76982338349275,110.19441533801613,84.17205804134451,47.01341266507748,5.416414653278936,-36.78712157987498,-76.67258281263148,-112.97975811783611,-147.9815630595446,-182.1517719200567,-212.5365086316709,-240.08944471628655,-276.6516454178493,-326.5611759450499,-346.98331481038315,-274.0194428819403,-118.9142552462519,30.303503523524988,116.74927900247664,154.07465712097613,175.417867779236,194.0878717372326,203.27893512519933,192.53672586655972,166.83955502263257,144.99837956263045,140.4265024484393,148.83959813056708,154.9797178973596,149.80652109847483,132.7049078417476,106.54706562817806,74.79562356826017,39.24997291856498,0.07148263834702816,-41.35766421226192,-79.40538443679489,-109.68546862346143,-137.2345567585938,-169.2053363702375,-203.0525996737101,-236.29662276807423,-278.0446597180673,-328.6313080541556,-345.20258334711593,-270.33997627050616,-118.31284987197412,28.34848865350898,116.32035805778303,154.7404991670646,173.58708515782007,189.2715344759576,196.82643605516685,187.24584706196822,167.1063094776889,150.89311518132124,146.6121246697847,151.32634386477082,155.94443557601912,153.06517826910022,138.96088245198723,115.15500683988628,84.82646792914437,48.97857087469548,10.998076398968427,-24.84418689549436,-58.781554831157045,-92.24780236602766,-125.07879863636802,-158.54104953529858,-193.06406816262157,-223.49662506378507,-249.10367816914948,-284.73931156723904,-331.0462453110322,-336.26702644365497,-243.61526868451008,-83.86673957051697,54.19922147819589,129.44232516710585,161.59708609623257,178.68927607847425,191.20012460718098,194.45506014311218,182.7625356525786,162.1664805660308,145.72901326408888,143.03005354174076,151.85705573188446,159.39094153756318,155.12084460236082,138.70369389501926,112.80640505256093,80.80559961562565,46.404600655500865,11.120723855670693,-24.179680001761763,-58.86448922155198,-92.45476161941095,-124.97916708731589,-157.72226529448835,-188.9038119113297,-215.58423652454067,-241.51116477039398,-278.0347029538448,-324.92786182735756,-340.8613795211728,-267.02092377051974,-111.79731999299464,41.44725814021805,131.84603471070645,168.81739594666652,185.4152856487429,195.49327142465407,195.03276299704675,179.50832853965227,156.67852333979465,141.21674957668688,139.68493004000086,147.69201771687366,154.8619341566738,151.80401357730497,138.15174929448548,117.66424779463591,89.5275656888115,54.40563799844721,17.343230541925845,-20.120407528097967,-57.85684913931071,-91.33239141690913,-118.35315736180772,-146.3920279634713,-179.21772653990777,-206.7724204129413,-231.14080078175803,-272.25039518266317,-322.03768171716206,-317.60381452224277,-209.41546776291722,-45.34171093754956,82.76090775019716,144.13364521605246,166.96173832634008,178.65274567719692,181.76633658222585,168.9026198923631,142.8812212595757,117.91675008032956,106.55268062174625,109.67096734718983,119.38014835587163,127.0192483306832,125.30948821848514,108.46115392766752,77.86386849635679,40.9873264468118,1.891827464791571,-39.16521526971261,-79.9821572279968,-116.53112019745915,-147.65601001056228,-176.22562909990754,-206.48916237588043,-244.88908358553155,-287.53296343552097,-293.75162702429895,-212.52503237400853,-63.569974867146,72.08439163452782,147.6897162168298,175.95841480586833,184.48670543269412,184.83065420545068,173.2496859973421,149.02786837173957,122.95190167427324,107.45629789530618,106.7573372470681,115.21368994514278,121.2271523187942,116.28297061987854,96.79288757056882,64.63131619474113,27.143519478997376,-11.555132715786261,-52.429669069254956,-94.5183803846083,-135.0694527018797,-172.3010433457054,-203.99264072793494,-229.31206530048865,-260.1880700616337,-307.1980756105741,-339.94981340271363,-292.10084809063414,-147.95432429650245,15.525085411601966,121.89655921537211,168.5597403285018,190.2418402871461,207.266781437947,216.47564100535604,207.72809272812705,182.32338725395695,156.06181366355992,144.23170529323593,147.33954665745162,153.07643457960086,149.84374923953496,134.4634036268659,109.44100215695987,78.1660132160152,42.58115343816853,3.0764677512398566,-39.77337432936708,-82.40763870648672,-121.14507819260272,-157.1275141770712,-193.00855501097755,-227.87179481808323,-263.319594059516,-309.3603672789303,-356.1791738753165,-347.009737970214,-233.82350106114467,-62.0007007879709,75.10843684824319,145.75829542632354,176.66480060239542,192.2605221868339,199.10359566508123,196.5857285362517,179.739753131351,150.85508916512717,127.07215633103888,122.10545664498598,129.22207029388503,131.9518222174639,122.12056441063464,102.42229811982452,75.72034605173542,40.95043367190684,-1.1449973756885263,-45.035947910904966,-87.24454213424723,-129.5989281173521,-171.06032677062927,-204.14991169692416,-231.50912565413068,-271.89489537046194,61.0,116.0,82.0
74.97542502430386,37.97603379921988,0.35057701380398587,-34.75636210029916,-68.4887570095856,-101.7966320483136,-134.57777739857934,-168.53867665172714,-202.56567150289231,-230.98296258056575,-257.5923030533397,-298.2636375881214,-340.12665289833063,-320.2914010202697,-200.50197128151396,-38.41715472669356,82.24028234513285,141.67806572502488,167.2538753165153,182.77772479201852,193.4865740564101,192.59242725635215,177.1821728721019,156.4191939808243,143.36411301377072,144.8442978420913,154.8081608485924,159.5498952306822,151.49174009617553,132.08688270279188,103.9912543689095,71.01014402560719,36.26457378384625,0.8848462158391469,-34.28009182507942,-68.71100403567515,-101.90543928334797,-134.40194164808392,-167.07414100511934,-197.08835805602047,-222.73550761258414,-250.47471503704853,-291.41567678736664,-335.6357906537428,-330.3168651001082,-227.59231264137935,-63.32336278468197,74.76048015353808,146.42881926037174,174.61948537540883,188.97178882763504,196.790127922006,192.02582348586304,173.0016844600421,150.91979077560484,139.3753209142054,141.40229091833973,150.37166424569764,155.24364152254455,148.7434872208978,132.8796076346989,110.41457776514088,79.89338913347743,43.71304801578661,6.616914973827675,-31.123797474791957,-68.21228115903756,-99.64340556196974,-125.89618092871406,-155.68191140044308,-188.14460953422795,-213.3393000438348,-240.62441560154315,-287.65590580283583,-329.7913443801579,-296.925859945307,-163.38401600525964,-1.6430225911372172,106.67958526503355,153.04404220071478,170.9371829056879,180.78918419436766,179.8609102026838,162.23351826431355,134.8458887357482,112.95125857271935,106.22585609047654,112.21691964108255,122.13209598055442,127.8017091519984,122.12190990935017,100.73495407791182,67.54936023655632,29.896614092716927,-9.803910781413537,-51.15726319472383,-91.13051017258917,-125.99949734039026,-156.0094754482981,-184.55187380707235,-216.47811856502074,-257.73511867119436,-295.82145312878225,-280.27419758769554,-173.21372486325086,-19.617154297648423,100.35365071682362,159.37539654202118,179.5340620741746,185.43831295876083,182.9570275055247,167.25700339984553,141.03891332551933,117.01589717257454,105.79792536613543,108.73893806100195,117.6938136089458,121.15503508915553,112.1990751266342,88.53060841199692,54.02020840590371,16.097698150591732,-23.108616489137628,-64.59230595586615,-106.49447137525831,-146.22714401908007,-182.17865991118842,-211.74180842928047,-236.8269095219515,-272.3954568156504,-320.87108088254126,-336.9757808177559,-258.2908143255889,-98.21681631925748,53.64176600962614,140.08862088411604,175.98053442384557,195.43171903134007,211.230454872735,216.06761253377402,201.59099256432685,173.97113268894913,150.80305990211494,143.99846055922214,149.369792256089,153.36698046188187,146.59661487154943,128.05940399390707,100.92647826112025,68.28818972427398,31.573059140497893,-9.048389059085803,-52.33738539468144,-94.05015811185584,-131.6683414160311,-167.47486319475541,-203.2777800815635,-237.70073713548055,-275.1741954000726,-324.49623810501464,-362.5039287140363,-325.0593786689031,-185.83665598472385,-15.734526026535391,101.68312519397898,157.28169330642558,182.227356430129,195.0674934955268,199.51382260420445,193.38075689114592,172.0893233581647,142.55019785955278,123.60410417063316,123.65430808329171,131.0791593814689,130.41613918512826,117.22444186494386,95.43286967955534,66.564587049079,29.362533756509034,-13.919460166590582,-57.37902535414526,-99.3685580315662,-141.93987045600312,-181.76692437702124,-211.93713386405005,-241.1401328748015,-286.56925992020274,-325.66243959587,-291.71142713309234,-160.14631176256262,1.9039245076142075,115.59438347753773,167.79122391984083,187.8425604996167,197.71398902731534,199.61035774247927,186.5542912316994,159.60103606503353,133.69240561376068,123.66636852734177,129.0632858272785,136.10208775670702,132.34201250140902,116.29596763470273,92.40915473930566,61.7172061731465,24.40482411133305,-15.960753167980892,-58.361928662161716,-103.02227596184804,-145.6141504331178,-184.09790347977648,-218.74260856835636,-248.78308896963838,-283.22857691392505,-331.823371194372,-364.70073681485155,-313.9249170446047,-165.32374218101702,1.5995284015822144,112.33769308434017,163.27791891040877,184.4683798497133,197.31712723848133,207.16955317615285,208.3159170052871,194.7772763803476,171.74804581241804,153.11187055436,149.06131418876208,156.59235823844654,161.97832195771485,153.2765963183094,129.60356957839355,97.165296419421,60.63357294276448,20.027855313876994,-23.896917852871624,-65.7830456731155,-101.90405617567536,-136.1662137863989,-173.30659710738433,-209.86963623308878,-239.99492735980397,-270.0066401305759,-315.4596822756368,-362.18481265142634,-342.1929794182925,-214.17981596602195,61.0,116.0,82.0
69.76526257508203,32.99086118793318,-4.175719954229681,-42.1092256359135,-78.05804370429468,-107.43920546418434,-133.81327370417085,-165.29726207719148,-196.2914896518214,-219.98267456499892,-252.06668279859383,-303.0546660833859,-330.9749987835829,-267.0374932117109,-114.96185779706,36.99650722736554,125.14985404924164,159.71203998608763,174.41415312270956,182.04147026459663,176.45617261778148,154.68932497681334,127.31176674961222,109.34320607262237,107.00127610624438,115.07825641237653,124.52340306464606,127.62841023528986,117.55630656357889,91.99749885623132,56.90802890746976,18.647647236219946,-21.660919088788415,-63.04279569985253,-101.8189957269508,-135.0417316023304,-164.23869385578197,-193.13128674715165,-227.34984463179492,-270.63655213329343,-299.5975186408319,-258.47824519864247,-129.75314891039312,21.075406127116366,123.1873087177296,167.83484971844138,182.06313130325017,185.77012759260236,179.9130663221079,160.3061854905551,133.256088989827,112.21231861362831,105.38800802203066,111.24878785116373,119.67229395212074,120.02414588720798,106.84267322097412,79.32944665654213,43.17496540586325,4.967368288466666,-34.88241377748834,-76.79024881605628,-118.27921348128072,-157.08117595182375,-191.5090907815092,-218.98932756598944,-245.2839127721668,-286.04275253318434,-332.0433820291796,-325.50054048303673,-217.0646172034724,-49.46956671495077,85.74045307242685,153.9683891531841,182.2054218034509,200.4572895326185,214.28321573649566,213.93517890441674,194.27016175827885,166.03375469977996,147.03034441411646,144.84902417299543,151.24738107416667,152.6968670054149,142.34184098994783,120.9413676694383,91.96402700643017,58.07935815548789,20.23480666237355,-21.426107859142842,-64.75577869299508,-105.31007435465266,-142.0458601676728,-177.85612261261144,-213.39238176292542,-247.7066120580313,-288.24302445715915,-339.0522986444853,-362.28740494064044,-293.8095114373204,-135.19641625508612,25.50838115375681,122.84017732146424,166.38843288730297,186.8755805221844,197.1990141706257,199.0762023104381,188.82254647010686,163.64542432855131,135.21132866888422,121.87985554283988,125.8375334379338,132.17357331894428,127.77087110414232,111.64084131475899,87.8756134504239,56.685162444545924,17.23148487667073,-26.668795899913533,-69.56757510274268,-111.58311549302454,-154.10179123784863,-191.54212581333613,-219.53436097066762,-252.4193331597079,-301.10733440418244,-326.1732397880015,-262.21664614926885,-112.16009044593171,41.69446976866042,135.95989853514237,175.51921378635546,191.31871357192446,199.35752033288102,197.61773902565864,179.73471166414308,151.17667999218042,128.83153674834838,124.10743157798045,131.63502563862482,136.41435613681318,128.7759594623951,110.05904300943759,84.29004723943693,51.499025396577416,12.904288619443712,-27.92799979076857,-71.15732247645138,-115.75121101282186,-157.1032701821949,-194.57911345832255,-227.7706179738792,-257.5754055721119,-296.03234911313984,-345.73951060096647,-361.2342477502289,-278.79876721539256,-114.51793785790929,40.79591010096465,131.9850764674392,171.18344766564144,188.53213076352853,200.57287639684242,208.7851180763282,205.93872454634564,188.55641322070736,165.27726006463342,150.29337444521312,150.53445142123462,159.05835396470872,161.16955284208186,147.7568678879579,120.83382501086348,86.96077330932744,49.37060055618254,7.509303838103245,-36.49015585613495,-76.78101449177187,-111.68607771222894,-146.57995010731958,-184.27264215314608,-219.28600663263265,-247.96984194269027,-281.14143183107143,-331.04112409948976,-366.7431235268963,-315.3949152961805,-164.30001358900662,1.3823451885404026,108.86351901705204,159.75362050371027,185.16562294965087,202.5610639020808,210.7302504380473,201.78374976576967,176.91064164325164,151.70479791392117,142.58631568273782,149.37466644602807,158.522067824931,160.1205415007325,151.5972610693105,129.58954164301753,93.95201587102756,53.71300416250979,15.423924610378021,-22.377131942710655,-61.34463737174083,-99.61411130242998,-136.28174424133599,-172.01674859232574,-205.83618601423615,-233.30882535649022,-258.4630738823074,-299.03213847102586,-351.7604229947151,-359.75369620000964,-261.4915955481366,-87.39256947184079,63.9313490792837,145.18147536938747,179.46007858128092,197.86247675739708,209.27117848893607,208.0672211503169,190.32308516943905,164.73955275547047,148.080601630792,148.43124368231597,158.4915849322971,165.0671272711666,161.5429361280677,149.10340353049864,128.9220898005664,101.07728327617359,66.15064605093781,23.825246721992773,-21.110730197231845,-59.86838425148509,-90.98202400905375,-121.08019395003564,-156.824749799557,-195.03989182702577,-226.113950150901,-252.29724244984115,-291.11148060367935,-342.885642282783,-353.72645163549487,-258.3994361894531,-81.85528478288575,61.0,116.0,82.0
-129.83092070201832,-167.58980643946674,-200.20705501061477,-226.02561162143857,-255.1148084378159,-300.5193502990532,-338.829660775296,-304.77685411168767,-170.51638839451635,-3.920466948148124,111.79906516293755,164.53459068513342,187.78529512569992,205.21780448407304,216.11723294238453,210.06634365802466,186.18134889453415,158.9447161014004,144.7790621781168,146.45043719867041,152.6568158977901,150.9883265842677,137.14946348635192,113.198589726818,82.60430846457835,47.54633754322765,8.565477706943824,-33.967888144361154,-76.91401390136899,-116.21726247801978,-152.3680194832456,-188.23823606288937,-223.33364346210269,-258.21016482640744,-302.4895660017641,-351.5733015115193,-353.9263938942418,-254.31489340297938,-84.61203755960176,60.86457984889537,139.40844670351134,173.73505878391387,190.73090476215103,198.66185550081192,197.63530736293876,182.90062790621002,154.86823392834063,129.26308614987246,121.72865182300863,128.19647712546055,132.27611015386216,124.11209500545614,105.45968919316358,79.70702527178706,46.077376684683706,4.71050604803216,-39.282330797989886,-81.67053094930262,-123.89923591483779,-165.85196197210502,-200.3646257822894,-227.52330331217905,-265.4131915471736,-313.93158997418703,-318.7233032096478,-224.89636165120214,-64.04751439149892,75.97406050368357,151.61038249299608,181.39947193185316,194.26978734116327,200.21941725782685,194.18354127788106,171.9340528147174,143.31194697834712,125.56812890127435,125.64003021743117,133.93385927611575,135.60412467601432,124.26982616489627,103.27395341729726,75.57254716637901,40.76798735510033,1.2593893988552574,-40.106356765128375,-84.10712278705506,-128.16294415525078,-168.27395726896674,-204.71283536641369,-236.40969670355034,-267.1206309737664,-310.1469407610401,-357.01733878043336,-348.96194142422416,-236.23307659278078,-64.80132069169943,74.13051107728427,147.21344715748594,177.37862159472874,192.24882637271122,203.57432714465216,209.44995531715637,202.25396275149197,181.8032852906888,159.55035700362885,148.84760339041958,152.75590706800955,160.9451936380292,158.98125656621994,141.07895589150766,111.51249652057267,76.47896232076957,37.72732829944577,-5.221714972261597,-48.74255920330891,-87.26851740880609,-121.48883434729123,-157.29657292081956,-195.0082445134716,-228.05868281036467,-256.2707929734953,-293.97777847623615,-345.84012091543923,-363.5868250167953,-279.45210038796864,-113.36637496949449,39.583745739998676,128.01632159498033,168.52963446029537,190.78604860315835,206.23234341152877,210.14094767675223,195.76666212037082,168.76815364616067,147.02616361064935,143.41473186988557,152.39448167049912,159.9467581234146,158.78266606313272,146.81102917476628,120.41289949994948,82.34072398134232,42.402421544652796,4.6075076008987885,-33.56878709293838,-72.55759611881494,-110.35846964140667,-146.6707999718334,-182.15124013544008,-214.57375524881581,-240.15186337659503,-267.8958496009098,-314.511907374963,-362.21847574524605,-343.21484782392434,-214.8430427990107,-37.495608561572766,94.40536587166099,158.2103840262084,185.57894584051903,201.9982611782957,210.5512784229707,204.53857767678795,183.01001645194873,158.35862607447427,146.49830159908606,150.94124411688426,161.23666678072286,165.11907106359865,158.75803319543832,144.0801086536657,121.62642802357772,91.72845181614565,54.63784359835856,10.689206471349852,-33.207312225480514,-69.45494358347186,-99.39446920603815,-130.7227408715373,-168.0563893911068,-205.02567749868703,-233.5653470694249,-261.4317101325528,-306.0096947790811,-353.79803906326515,-338.35075144835423,-211.63263469455467,-30.70256353903593,101.67788166557284,156.95980252210933,175.02640756965712,187.06101798246866,192.8886641934914,182.16276447917244,153.95161828325485,124.94780887081717,113.24144830283585,117.8466951717781,126.21359156075482,129.26212709474356,123.77592517381119,107.41467863386009,79.36540455778653,42.8702152083274,2.290940546768543,-40.184564885040224,-83.0650508182781,-122.26431734727701,-155.11962596112946,-183.42587187482002,-214.4407081737373,-258.7100205259118,-305.3723199569188,-299.6877445649406,-195.99446657426083,-36.63301424809255,91.10031336266664,155.06794477482563,180.42870683736666,190.62755211426523,189.65947555555408,176.14170405710246,151.63485862711295,125.71720542642795,110.91162319313534,110.86306569689958,117.78324960897201,119.5552360402178,109.54287486119483,88.76591188565814,61.23422134019247,28.653771379808827,-8.701031176475349,-50.48258569915752,-94.7247350155324,-137.10701743399628,-173.66952466444673,-203.84851090535471,-233.19137328132544,-273.28935037661296,-323.60173242527475,-339.46114635643437,-260.34889849931346,-101.73586554804108,47.92706092371008,134.42763990807055,171.15819545604825,187.67897749281005,198.2153971981141,202.79601492444192,61.0,116.0,82.0
-279.74102456149427,-323.1616786573892,-302.3480739879242,-181.54401457541272,-18.061485982065328,104.41284624969683,163.40589463129567,186.01748537055235,196.7460520341828,200.07655650943462,189.28349364690365,163.54339747773722,136.43361424387726,123.91556521964114,127.89380647402685,135.61411292055004,133.63214095082654,118.96973273767392,95.96162933728533,66.23204728325184,29.63710529036612,-10.498239805917216,-52.540460695669445,-97.0778096419874,-140.196215794306,-179.16661730022048,-214.42342933150965,-244.86262255091162,-277.82287344732146,-324.99921782972547,-363.70920009203434,-327.16652840580673,-188.42379642586633,-18.302759655107977,101.57121930740185,158.87337453906187,182.4155598926786,195.75556085259876,206.1675910681938,208.96593922493642,197.374213024858,174.88621322338778,154.86167691762287,148.71882573473877,155.3664698203346,161.91502733581834,155.39095054393607,133.41648524912392,101.77119119548068,65.70716211681021,25.69677658901244,-18.019922684972492,-60.52828401394739,-97.35023061020179,-131.47164035086325,-168.231657517413,-205.31094196719823,-236.30466715150146,-265.3915468751782,-308.40824319581634,-358.02652266994596,-351.22215743651043,-236.055060890807,-63.94525952377209,71.8929115925086,143.12614120394403,175.92644626038262,195.94837840259527,208.95533354659997,207.93244080469807,188.59947085884951,161.09829921205628,144.00715042300442,145.3512196723366,155.23367413355587,160.6020481565554,156.57593164409906,140.76932861777468,110.19727469341113,70.6289454273981,31.322153560862766,-6.265884791853032,-44.84767707051742,-83.65456113100348,-120.96965952563122,-157.01039867494015,-192.0607999095068,-222.64093520529363,-247.07951313176588,-279.14431547569046,-330.50141811223784,-366.973733161673,-316.7069380206343,-163.8491828204741,7.990919468779483,118.82323328128743,168.2915346974257,190.94895927624583,205.53850916919868,210.57481845482434,199.60991125799956,175.40753317349714,153.14022109606282,146.38027330975754,153.94869548186287,163.3790289667505,164.27306906391235,155.3006190554995,138.40536128483024,113.70686627278128,81.79266818872107,42.49171262916805,-2.450014351354548,-44.59350348684404,-78.47022581228094,-107.94065571377854,-140.9556468177395,-179.27949352122278,-214.1839995344308,-240.86152652563192,-272.1630451470439,-321.61915447914,-359.3523721221265,-312.8412466024005,-159.97670806414786,15.764835211304199,124.39258994012486,163.95538031534284,178.6802076092666,189.84784634699244,191.84340248876316,175.37892771032116,144.6214440913624,119.4280150614768,113.39913683225225,120.41774400640497,127.85407040431231,128.64071342537608,120.27499164709769,100.43304714659506,69.4812496859554,31.41089821504883,-9.816746084440194,-52.67438581443817,-94.96343014710935,-132.41366461004569,-163.5721366077376,-191.60882676362368,-225.60723572791582,-273.5936283383431,-312.1925491398705,-279.84338149671095,-151.62809753526093,6.500542332093076,115.5790132421994,164.89448466410224,184.50187961268904,191.55617039013535,187.08149393171462,169.93861680793415,143.67822681972203,119.90018739388621,109.53772822203139,112.70181865511293,119.27212006827855,117.95467836826651,104.46058779958223,81.37176453549361,52.32479642989379,18.339469535417354,-20.349611310351243,-63.1770161343356,-107.36958429586457,-148.3838615640232,-182.936606833696,-211.97346565712155,-243.1623931115622,-287.748083456143,-334.85588374426914,-327.7696367269331,-219.31338808606043,-53.703967263703454,79.75676926742479,148.67589237583235,177.05582604229443,191.10016490678714,200.4645861509814,201.71201486709958,185.88169774717264,157.76866068738542,135.34960129648596,128.91821736379572,134.05617314616248,137.8945440851198,129.69066482052347,108.18143659589926,78.05042298094897,42.86103289471566,4.2573219485746865,-37.0385342473265,-78.92750686777978,-118.71479914152626,-153.705650217768,-180.07707744235384,-198.54529946441144,-219.32331456364312,-257.9130163195644,-311.8330675732749,-331.1675102307547,-254.807610038253,-102.86421230667571,35.22613620580377,111.27263385571835,147.105671231825,171.3026897826322,188.50586409095513,192.68767962580196,179.95799687074452,157.1834657086331,138.5952539218611,133.6736935187526,140.58000556336643,148.5221762065292,146.2333458522191,129.86140644317942,103.90481927451796,76.1497339966646,50.1461239756859,22.99374504128172,-10.553030897790524,-54.62547143645343,-106.93731799755588,-158.02474859667836,-198.2660341355177,-224.3111657062165,-249.5242628689942,-294.4969787015196,-340.28626328522535,-319.32664080895546,-199.75135199010137,-47.761903163791764,56.76931837020198,108.88489295285724,139.80294973166014,161.6514539473162,170.75134944885775,164.66677701949322,146.85866722487458,130.21037129653303,130.1701019438629,61.0,116.0,82.0
-187.59422497714053,-18.116023369803347,98.43297822243994,155.07695761453337,182.40249794154775,200.6130127915069,210.4876048971276,204.08529431066827,180.68285605583776,154.37455575869498,142.66985928796453,148.01292128714312,157.62488512870829,160.45890738539939,153.41177745507437,133.41568164402173,99.20267310827674,59.00697825718754,20.41709425899146,-17.260464031279447,-56.14714679194885,-94.6118869728047,-131.4701427128992,-167.2991109013624,-201.6033354406903,-230.06214681839506,-254.62186727308384,-292.3421932607546,-345.59303650226383,-364.0916568389985,-280.81235594681544,-111.34088321535138,47.732932317030816,137.9152571701786,176.28281442205824,195.7884575079719,208.3090522889976,209.19745855726123,193.47564161656314,167.97958198656985,149.32743447932813,147.54020724748406,157.09195052027619,164.7364035344602,162.58443485590462,151.20441923834954,132.067322828349,105.19495742964867,71.23621422546269,29.808239070764873,-15.327759145406482,-55.2199058895436,-87.08708510900624,-116.82453769975452,-151.72214377656,-190.19179437982876,-222.51431963544,-248.5040450446174,-284.7219960592828,-336.6338486602896,-357.52783293980303,-277.5879231117907,-106.3841524720552,55.90471333921298,141.03497105531164,169.10465351997118,182.22274908206168,191.88451761919322,189.16279833789548,167.27025232375317,135.80684728820606,115.66570914603966,114.68074439483065,122.97578365728552,128.9055960413702,127.26521632926206,115.79462692220265,92.49634257466622,59.00391676189427,19.709991904551035,-22.06562555362347,-65.13914373384152,-106.4334565615823,-142.00944437779248,-171.72422546838789,-200.2649964946723,-238.1526672684377,-288.0380989026614,-312.84933168058996,-251.24867370390842,-104.69011185620982,44.97579810399824,134.79286176250147,172.38784734223285,187.6371841536877,191.52508986307853,183.4187172136315,162.9068200346049,135.9327560690153,115.28461012119715,109.36480221710227,114.83160570392602,120.05003703050939,115.28805002264538,98.57266223532551,73.50447699001893,43.00420851581316,7.633911541116396,-32.36177889576924,-75.99839529669923,-119.74091330904119,-159.09350427033792,-191.699912931545,-220.2312774569617,-254.37854910758188,-302.7979852650922,-341.57787557297524,-306.87378950984174,-173.15657169236997,-8.85253777217662,105.79462299423453,159.57645528873738,181.8783451120626,194.20915341352983,202.0946339584054,199.08889778351835,178.29548761410828,149.960064957283,131.79870746740477,129.70101928176294,135.91163796970022,137.01192759910893,124.66814765150365,100.15458504571384,68.30293549990085,32.023655039011395,-7.448510943675554,-49.214858600625355,-90.7359404004883,-129.48366878470495,-162.3361336329332,-185.96038803437924,-203.6277254231216,-228.09069038172822,-273.12395930817314,-324.28167195838284,-320.1692112918161,-215.12120741586628,-57.80695147263466,63.494778184234086,124.06790748819233,154.69898116805385,177.1929335046956,191.35651005400544,190.68325301091772,173.81895732378132,150.77795243697338,135.62815731960475,134.8154980319024,143.3473380470951,149.25853450591154,142.88353384648553,123.00068609169917,95.77498649745596,68.4913535063665,42.64193394318759,14.191254491560478,-22.128761924144605,-69.2330730144536,-122.29788620809515,-171.1049932727551,-207.06304924529354,-230.59408398926092,-260.14237340320807,-310.11605060487415,-344.17637865127375,-293.67295339604476,-154.65964135145865,-10.96668555276512,75.81357090714118,118.93876487421592,147.11150413894782,165.79290848951544,170.53315425700822,160.3594139606698,141.13379165348803,128.08329603707725,133.81071343108403,153.28017528313313,170.44933223122453,173.91048673171377,162.13060204311898,139.91929676386684,113.98489862167044,88.60494340000571,64.81290234533587,39.69362895151564,5.250429964304575,-41.52493046575577,-94.00281196293008,-145.39890206729825,-193.57753861499205,-238.98248147644992,-287.84102387540173,-349.5786660158504,-405.85202245841697,-392.9334868731146,-272.0258604517229,-105.98950555463622,13.069230057283203,68.86401449460872,101.51291899629595,134.5299404832155,159.69025234236724,166.7174424561471,156.34828018347395,139.63744509919076,133.31420862948386,143.5091604325477,160.45249391013672,171.98154167060943,173.04061918334318,163.01052126008426,143.61742517969225,118.17504648013399,89.28816689509021,60.693479916942266,34.2621182675415,6.078716321820965,-26.788759817139542,-60.44440657129132,-89.17162012037244,-115.02551249181462,-152.40708070464362,-217.62959298219653,-303.85472143485913,-362.6947582059643,-330.4914663220096,-204.75322901592892,-62.487708027958824,31.383022213582148,77.36700224899113,104.03551531623278,126.9735434206493,141.7565068627429,138.7735352994931,122.44538019078351,110.27255632656416,113.28792188867047,125.74729683751531,61.0,116.0,82.0
-53.83231643074889,88.9022221272175,152.80835817076152,173.27100632674984,185.60429876144198,192.8687816032394,184.76268503427892,158.26133231978304,128.04870971014614,113.63682299133274,116.735525835103,125.28446134366969,129.30739746680266,125.07733825863365,110.2954377270989,83.68980992085353,48.05027700045453,7.823954300071746,-34.443451382083545,-77.46427071775459,-117.3953133936519,-151.08978814300752,-179.72927873580687,-209.72220408073474,-251.99265346829142,-300.6432145906737,-305.818402397613,-214.90162073923284,-57.68353962908746,77.89149397706012,149.53016341097384,178.19243827837414,189.88913534612516,190.48805259530153,178.67795240413383,155.27499725118597,128.7504163913612,111.9828740019758,110.20425064928654,116.92045679375074,119.93971858976401,111.58239300727494,91.9981587006269,65.20270962183847,33.27522654713259,-3.4579959615771965,-44.700529814449546,-88.83449168991355,-131.73244100689467,-169.20698537637412,-200.07427684730573,-228.93405675950797,-267.0033026610303,-317.4046769925017,-341.9123134717504,-276.9369206383591,-124.38561361871166,31.28112357836126,126.48954555700738,167.9499932567758,185.97020708875255,197.02834396295,202.83602239129195,194.8327539647167,170.0252915126652,143.09871640111362,129.679922567397,131.21928743267335,137.3010729653475,134.9337751368873,118.60941944008253,91.53476408478821,58.193948226865295,20.926156575029545,-19.364024561935363,-61.36557430571632,-102.31591347977941,-139.77282783359075,-170.14738538866774,-191.2798375067874,-209.24759327771065,-238.7512567626199,-289.236442387736,-332.05717329174723,-299.97712399373984,-170.76763310447708,-16.29938718628812,86.28672863991794,134.49436045348475,161.77153261136192,182.41806076591303,192.93685408142204,187.23767788937883,167.13536903071463,145.08890272946255,133.9372749551789,136.78757789641236,145.87691584414273,148.9090080763935,138.35449027535037,115.5176308463531,87.68646674872099,60.99113765275368,34.925045918522095,4.723177616985306,-34.66502944917298,-84.37595913658207,-137.28961995707832,-183.06611120305644,-214.67656637270127,-237.3647330210262,-272.85600946967486,-324.71175142837524,-340.52227882306977,-259.8979252945347,-109.40551072517819,20.47238290551927,91.15944418724379,127.94839709989641,153.67972225338207,168.73675002775306,169.03405471480121,155.21755900085262,135.9351851880497,127.66315828872315,138.67602988772435,159.16870491212785,173.0946646622384,171.93982939218972,156.48653077876295,132.54170847465613,106.50565502724697,81.58505678257316,57.990003581291155,31.045568900196145,-7.169188611275174,-56.48368792434417,-109.13525965461218,-159.66738629972588,-206.87977886055276,-252.2346327780821,-304.27000868197507,-368.5502252906426,-412.4473370469052,-368.2678581822005,-223.9136055017737,-64.26345869558261,34.28332096108699,78.86702362400268,111.01014405718276,143.25183770031427,163.74995014808147,165.219703760504,151.4280174006379,136.12746906218808,134.77254802568226,148.34166443302473,164.706306957131,173.42749191902817,171.2631664311488,158.21804132942543,136.7678874127657,110.05013815543332,80.81404014688951,52.91454661307628,26.541107966247782,-2.989193901674298,-36.726014552063035,-69.39160381387421,-96.51202601430002,-123.78417926202694,-168.004710428261,-241.71723266269777,-326.73894412516046,-364.69428749468386,-301.3310529324075,-161.33341079035128,-29.28951612332786,48.36536586556875,85.94698483870077,110.92861198526599,132.6064751960351,142.89229081367802,134.76320684420483,117.70992619295505,109.55517347019779,116.45974950466535,129.3680987285701,137.7252272025518,137.37356270288504,127.36034964276743,106.73751694625317,78.94067942752815,49.487051670245826,18.85380802527832,-14.3656436857338,-47.281100716302205,-77.64257796062584,-106.58825359570089,-134.59949116511967,-165.13627419052696,-199.45637820771594,-232.71423294152308,-267.82538802823984,-305.3802798146513,-308.1694846734718,-226.26687913274165,-76.3261097265862,65.38679411281998,149.65073614372452,183.95055821503644,192.37432268023252,186.8857236623908,169.3205577314619,144.66073865717777,127.66841711480882,129.1140693475203,143.40404257181135,156.6004039781709,161.0586021496243,155.97097628979031,140.54208303031524,115.18552866580148,83.72862784397643,51.43429151956196,20.402498706686714,-11.076500691089695,-41.416931172525224,-69.66918102903558,-101.67960664272091,-139.69697146728274,-175.40249120622616,-208.0249961998635,-256.4352627916394,-319.9301181865579,-341.46293283564955,-263.5672599367984,-118.06059609211165,5.394388215701912,65.89550039990876,87.77514984624243,105.29961318644044,127.38291017683866,139.49499609817798,130.17992455242077,110.7653129242048,102.26590415582295,111.07514653500719,125.28199465837571,130.58011869232251,61.0,116.0,82.0
202.3918094582898,189.02095017626877,161.58006944061995,137.47502207059676,128.88696373135795,133.13681938036802,137.9286899528819,131.62342026367944,111.6528271448138,82.40897834141302,47.76632413231987,9.574641034137883,-31.43770077606599,-73.41958371484772,-113.61626825533838,-149.46781643466414,-177.12690982184776,-196.2718776008388,-215.8376982713845,-251.42512072015737,-305.0621999193533,-333.26798877571935,-270.9030720989374,-124.29213290832065,20.257161638188418,104.30937566864809,143.36696911819806,168.4024806309961,186.81086257453606,193.1078903038007,182.506376599023,160.28869524782985,140.38110779712983,133.49000604267718,139.31424248933408,147.86363671448444,147.36305007514426,132.75841313138687,107.6244799693401,79.74587446706055,53.56997230351621,26.86323504984972,-5.531294974908165,-48.13117167447294,-99.80305518128736,-151.6666469613144,-193.77263565013666,-221.39413512610167,-245.30370522335758,-287.38554781659286,-336.41896762540887,-328.13040695375787,-219.75999440412042,-66.34853770675178,46.486841064382176,103.75988600341914,136.21149581013066,159.36725318857887,170.4142258711345,166.30914493819458,149.54636667098734,131.7156158569414,128.9935499953293,144.3718610142586,164.44745328963023,174.41751506162092,168.7444314773779,150.12852917397464,125.01747397419552,99.13294715928183,74.70806013779435,50.925205973672526,21.387897154993063,-20.573608192652962,-71.6958325992731,-124.05802901924741,-173.65421775989228,-219.96938070475218,-266.02890686323803,-321.991907469145,-386.1554352696967,-411.29698510525884,-334.4304240776123,-174.63205728770515,-28.310357556143664,50.76962191913327,88.09857638454932,120.68798699180391,150.9316330196323,166.15137968121624,162.37916533231743,146.35625653365994,133.8959213889352,137.5746276224846,153.3847901137611,168.26504835008782,173.9519893052382,168.55765181598463,152.720628147021,129.48639798651334,101.69747095393949,72.47858719489284,45.3076763760168,18.52495092690004,-12.457844605354419,-46.5718634699832,-77.8025312614351,-103.78019023064178,-133.9712243327244,-186.27401337381417,-267.0525245040385,-345.7223066833866,-357.6273548839124,-265.2906874582492,-118.92479237063759,-1.0871413342713332,61.94854908567189,93.61922006429084,117.67179618480914,137.28093288048132,142.35936574847656,129.9424260927407,113.81009376140524,110.21172284802336,120.13258749459538,132.55690460024624,138.56485000806617,135.53414655075807,122.45949318674998,99.15849890780935,70.46007347777771,40.864585210035266,9.479800626965726,-24.09989212045955,-56.28006144539457,-86.12485282869129,-114.71094642547767,-142.94686411511233,-174.85705986747436,-209.29162313106718,-242.27910548078242,-279.1567684529263,-312.4354818860835,-294.22250891809506,-186.9908161729536,-31.181291688572244,96.14255284163136,163.53902956274854,188.22251169321535,192.04490225421046,183.01544103840124,162.4126828616675,138.23319606782627,126.12251586820989,132.5309228049428,147.86302995383207,158.87788970340742,160.5783019300063,152.6202905101311,134.1254379093899,106.48825966703926,74.28252730966605,42.3998439816005,11.383251519038255,-20.119137896587496,-49.63478259092996,-78.22618042066958,-112.26881537558612,-150.6806465217893,-184.55725229800902,-219.5078589591272,-274.72866594010446,-333.95348521287735,-329.839535389984,-224.60099801911312,-76.74331427346708,29.0775601248628,74.38916780178558,92.30433448968121,111.5755289374451,132.74911002349145,138.95183437951115,124.61749268426199,106.48915309771758,103.30607882557811,115.39117167829566,128.0853103596688,129.92836630589346,123.52733685159136,114.29872479095842,99.02752097660641,73.6171766270904,39.78041547174525,3.382246268759085,-31.991693730228025,-66.99333452039616,-101.29937458414656,-131.45345122603322,-154.22117083513214,-173.05575190336,-199.4853579024093,-242.11150375152585,-276.8245364895357,-244.12909087989829,-122.99809814203584,19.2655591984408,109.17217108066319,143.38712034742846,155.29113573187183,162.33615645028883,161.4074791505525,146.34440575987537,121.0776235423779,101.24140874302545,99.10609522120724,109.78052602034978,118.864509680218,116.98983685820252,104.17881213755314,85.25813151283631,62.60251605875061,34.97498289957062,1.4534489535597896,-35.55851228089194,-69.32974269225438,-97.51485642154933,-126.20811186016019,-157.00717214664905,-184.02615237663562,-209.44876554916877,-245.14131633747712,-283.9979357501005,-278.0465490112034,-186.42819722112523,-47.16587458705834,62.32036584398665,116.88280687382945,140.81544396887892,154.93793488327842,162.54712050184997,160.41022409124548,145.69390173231199,123.89917470500797,109.70281178376183,111.75916564178074,121.75004343582174,125.59642901984381,119.45399993411543,106.83637215769245,87.86372546223345,61.0,116.0,82.0
131.9589528177778,150.46158448399504,168.81097988346238,174.38106431639056,164.44496595302695,143.23217230267997,117.4588991865277,91.89305941472486,67.92925117809001,43.39190226831564,10.6069302018308,-34.77231003699269,-86.97643660173064,-138.72707545344997,-187.3558164066491,-232.96760365019304,-280.6992124159671,-340.747355659692,-400.70439547285144,-400.9910027963881,-293.03177609723036,-126.86339538908194,1.4170384224518278,63.7302338026137,97.23157407063869,130.2582748530046,157.2746120139175,166.90569122947016,158.44345365048449,141.59899967796673,133.14331927890856,141.4515379010487,158.30531287622236,171.01003495270982,173.5442685650743,164.95653600535562,146.61398609047254,121.8229084688995,93.21327883220277,64.35667762636585,37.760709371387165,10.109045431345756,-22.224259307076874,-56.15617994494955,-85.68742234934714,-111.33137272496613,-146.0681667400142,-207.1803546592297,-292.4877656374514,-358.98160054618756,-341.15592514582335,-224.49920538272497,-79.37633101791118,22.19237131140854,72.94897546517495,100.80774656920204,124.14300010246318,140.68605197077733,140.23320512655482,124.79167985970824,111.0789219071089,112.08363313717516,123.98874238698583,135.16155962386375,138.64251093651094,132.86209477065515,116.65718335054366,91.13219736239917,61.953137334332034,32.08701960571456,-0.11902235461384686,-33.687226873763166,-65.06842388676594,-94.51764172398094,-122.76204189245712,-151.64748749481654,-184.82609186579526,-218.90605768161166,-252.2282712265148,-290.5408688514267,-315.15844783269625,-272.211764276719,-143.3848589505527,11.195819354298896,121.54246904403372,173.8702235867531,190.861136261554,190.69060881938128,178.12687384600855,155.13260124657566,132.88631606889604,126.24476796498377,136.71577420829453,151.88967569470964,160.34783471914884,159.30746050358303,148.369469252543,126.92289246273894,97.40469215578129,64.897879036239,33.45822517392822,2.277851012174544,-28.96605010413624,-57.72178551906246,-87.2988455005257,-123.30281459321981,-161.17232977538006,-193.65298972791126,-232.9382028306319,-293.7943250503924,-342.4986505005705,-308.99331910497614,-181.89154496389384,-39.4892818228121,47.35391249515335,80.6625626220223,97.1539316907533,118.14289762558226,136.77405360578473,136.51667713584882,118.72826343239358,103.60446356504818,105.72838225650987,119.73339450665588,129.86578360084636,128.57043420538434,121.13613089662543,110.78145883089317,92.76156938689424,64.49107769195183,29.256835697096623,-6.948693109766973,-42.10594603150172,-77.06784821976714,-110.65063969020376,-138.80211718389052,-159.68886325998503,-179.2781592461283,-210.2958283286038,-255.26919721509876,-276.8398282044022,-216.67070007685737,-79.83869389936507,52.15392425722063,123.38870892624067,147.82480405543572,157.71747492557498,163.2494359033853,158.59571350688623,139.55671300492014,113.99554004861777,98.67995487031905,101.47916545664526,113.16361400862922,119.60690303992011,114.2260431394845,99.1373078768454,79.11873140510727,55.20174206616164,25.8842424265396,-9.131200904469749,-45.94313184527654,-77.87034015851539,-105.46376069020967,-135.1183355354059,-165.3908805125044,-191.0526201546456,-218.31521894710477,-257.45250742411065,-289.6258568582342,-260.42833633242157,-147.44831074455413,-9.93325396815165,83.07629690132674,125.63906133992589,145.51650821621095,157.90253520521694,163.11972318160977,157.4348164380862,139.57166914529662,118.34520730367055,108.69343410305751,114.51894812109775,123.92306867447776,124.71189401438764,116.36080400319074,102.11949784795486,80.86895040712079,51.88819107510325,18.64346095036711,-16.076821464089452,-50.62153947458502,-83.63304672262909,-114.5909402864844,-143.50679163387449,-169.89000338214808,-195.9761947705146,-230.61747615088694,-273.80189714418964,-290.4834471288585,-231.40345696082846,-104.49979195168436,21.33661788863997,99.42505406296283,137.27699640933508,156.15149175823566,163.11556328365066,160.40058300672516,149.88370118368067,131.9708098189349,113.82570509188587,107.01447431851362,112.56679624240482,119.15428529675485,116.49396472849823,101.99702625315267,79.20985643651184,53.2584891326856,26.280162265970148,-3.5038463413383303,-38.031058150244775,-74.60850074414127,-108.19679739244461,-136.79496557471384,-160.50340043875846,-179.59904810386584,-201.6471131614416,-241.56995297868113,-291.0523182592847,-294.82095324118325,-208.3525369786221,-68.99772995169727,46.5472406384182,105.52060609071376,126.37438704526502,138.85882277428425,154.24274635378757,163.41207952357522,159.30474822591236,153.93304049280556,158.33927225487736,167.3282405336405,173.90167950652992,177.4568085631749,175.37539179388318,160.1911223350257,128.19638681430558,84.34829990290196,39.5922040547269,1.4205952256493064,61.0,116.0,82.0
127.741023875806,137.08443707602203,137.95293681020658,129.30767908768735,110.03339689360159,82.8252424064317,53.43060983645672,23.088490910195258,-9.85914101189629,-43.04975251531711,-73.7011716866229,-102.80616372292852,-130.83450790205262,-160.77946460653763,-194.85884679824431,-228.36243189849026,-262.75948583757753,-301.1130223494135,-311.9871102066284,-242.39548807989758,-97.57849397672398,49.42014560762984,141.85649542505007,181.31922189318755,192.16597519196225,188.32238549811126,172.29060623128453,147.87640208539597,128.94757199566286,127.90042532456279,141.27804944124892,155.28390095812406,161.01627917417912,157.21944815700206,143.2158771155322,119.02779972184031,88.07471626506312,55.64677460834698,24.532620422589545,-6.868959250586961,-37.55093518161881,-65.8508436166558,-96.99375103902689,-134.5344421334287,-171.04724102524918,-203.2518654620688,-248.54353222973654,-312.1807151276982,-343.7418014566842,-279.6036317206427,-138.00387471035813,-7.45567696587627,60.94691539565665,85.66758745274849,102.583861875602,124.58867851744047,139.0787128087672,132.46964261803893,113.11051515282695,102.31158430661236,109.2162672989899,123.68765729541099,130.58582019888334,126.72473817606054,118.573868782627,106.59562296940224,85.60122776861719,54.75789129447817,18.690028082194925,-17.171999157197707,-52.22021659974773,-87.0532570217869,-119.53336448434322,-145.4899066683205,-164.99323702205822,-186.49518635941683,-222.5696005960477,-266.6952505310842,-269.55651067129145,-182.1725422982557,-37.335285464878666,79.42245935136263,133.60871816195976,151.2390983574493,159.88549920731842,163.2943956332883,154.49684290204846,132.14803268494487,107.83700272147085,97.7634666682313,104.62179891160602,116.04942671497578,119.30178822127509,110.63188268492667,93.71877387346044,72.6707175631293,47.341716721645625,16.28951162453527,-19.897997106406596,-55.86058741219205,-85.99343521688948,-113.65895243614524,-144.11745317235855,-173.29288034111178,-198.15596733498734,-228.37781877465187,-269.49660919949434,-289.9236721201723,-235.1401284546813,-106.36490411152701,23.05539673378792,99.40524136099216,132.63410851492,149.69253017963896,160.28545348992006,162.7738062650413,153.36662381389175,133.11225466045664,113.84263891066195,109.09737622132317,117.57764099272667,125.2768324886176,123.04294601124879,112.81946550428961,96.81379691174875,73.18762369156077,42.54772001037763,8.692365445589013,-26.150449900734205,-60.35617883824506,-92.78892478889182,-123.16644123116008,-151.4036766720143,-177.1719466516063,-204.67127055193308,-242.98196860630787,-283.8086357230287,-282.48642141602386,-199.19599747291457,-64.86422975028928,49.28517856165457,113.37850271855524,144.10652998960356,159.31845023573598,163.1870025193055,158.1727885048991,145.34301067243544,126.20340735009329,110.33652610294965,107.71650620239183,114.94739668796068,119.59458325739165,113.45374810121474,96.01632937300008,71.86444350244567,45.58238827890813,18.104359921968122,-13.013046960900178,-48.618683108507156,-84.79701780533594,-116.95678045924211,-144.17566375375105,-166.37359328955495,-185.03060047398301,-210.85981758791576,-256.56714272335284,-299.8856780651594,-279.16163975305085,-169.97851723936924,-30.487691801783384,69.2517645993426,114.00095178534514,129.86964024226174,143.1366650341871,158.1515893970709,163.37695405169407,157.09951511590373,154.18522358443914,160.90075105856613,169.58391366575282,175.22548723596964,177.73147666145096,172.6454220263906,152.61908085680102,116.32347707945391,71.00098536895773,27.84826372811968,-8.72189965203269,-44.464714979250004,-81.6657311878489,-116.87415206196349,-151.91746667507724,-185.94086764090562,-213.9034620084201,-244.790316729639,-289.25326166176814,-318.9744910666582,-276.07730085157976,-153.0870868659081,-19.05331639821642,64.55901613792167,99.65486306699955,115.14302952471017,126.36578252171762,133.7989409741608,130.6957785546148,113.26879199774817,93.1614968960889,88.3428797019287,100.67672795785039,115.27337084647641,118.71063512596848,109.44843027396738,91.47180859559957,68.58460265844026,42.04322510188887,12.608589762213464,-18.27443647660737,-49.111848832602476,-77.41865994789468,-102.8204054684989,-127.14610032654033,-149.44327795138946,-168.50410268114288,-194.4394333364986,-232.19095577100913,-246.97365480945334,-187.0172561530386,-62.235981001461816,56.08514717319132,120.27117686654097,139.49383813068735,144.38251795607408,149.68812303826107,149.72467747776923,136.43545822471023,115.17330394763671,102.00211963214882,104.72161440214099,115.7012822984016,121.96404280271129,116.47893563107087,103.65447059020985,92.32770993637699,79.3304065020756,50.900897953500255,7.612114585930296,-33.930930065947905,-66.25307867843931,-96.10011786275955,61.0,116.0,82.0
130.32965204095746,124.58029673438816,115.73928861382674,101.61474835897553,77.58331113513415,44.576895483088435,8.1868426040132,-27.324161838452692,-62.33461486993408,-96.864744878443,-127.83962202344561,-151.5809831548389,-170.42045319902905,-195.035795085275,-235.85895359691258,-274.7379287363857,-254.08864165872197,-142.44703727611977,2.3713081882661426,101.01733811484996,140.81658344441814,154.09022333509367,161.68220760924095,162.27692217837463,149.17103505200393,124.53143456286163,102.97317468207547,98.37421844707741,108.13983893047764,118.18465222142719,117.95088461077376,106.3470114213949,87.99284999091093,65.8700625088793,38.99371975830119,6.228600109757781,-30.657335104058067,-65.2135383827171,-93.89034201243878,-122.17658277483162,-153.00379272163542,-180.72473939903364,-205.70909417379568,-239.62893969094966,-280.0460059715911,-283.52388939046506,-203.07682193750156,-65.42259366642637,51.10407559665245,112.05834438613644,138.43191808454455,153.3943798461806,162.00433871969202,161.4064674457911,148.3083075383157,126.71233403914493,110.67115337090472,110.7011500757794,120.52807272534822,125.70953969534725,120.7158481979603,108.83366328923383,90.84918398388768,64.8913361714376,32.96053050211366,-1.3426480790645063,-36.16593751044497,-69.93786601116429,-101.76971427667435,-131.57208872973544,-159.06484430439235,-184.54064007814284,-214.3749409522137,-255.85177063974754,-290.3123509725674,-267.07686016862743,-162.41195496479554,-27.2757358776413,72.70912285770034,124.58258921327001,149.75619568582178,161.52611544830458,162.53124658500843,155.30044055228592,140.20445358539894,120.69857393105991,108.06059511593837,109.30716059573638,117.07171329622264,119.08252946066857,109.43432217544856,89.47747361004569,64.36725370072598,37.834041088716326,9.61276879219226,-22.935514218955724,-59.25959937306848,-94.61643872966863,-125.30376780583487,-151.13668346897296,-171.87978065806718,-191.00616563699097,-221.98155052246508,-271.7162204896038,-303.1089620124533,-255.4455155211422,-129.02003696551373,4.26532108804772,87.08448818516648,120.09117739311424,133.31139876873164,147.68480835517113,161.16272103932764,162.2317171310211,155.26032160440516,155.35433920419723,163.5890226967646,171.54150796638288,176.32999386555758,177.39796331283603,168.6223052539826,143.62916156181223,103.66362357027585,57.883339322435,16.74240517346344,-18.831445633204932,-55.22925733643759,-92.08239460102261,-126.86525969635096,-162.14908317933745,-194.61363355130942,-221.73537955784758,-256.48008858627514,-301.892665088798,-316.0668818577444,-246.7101356020916,-111.73960065500205,11.336646998642893,78.39501176317923,105.08604710776322,118.60987047561953,129.11133390761893,134.34813649781614,126.94982748726108,106.84624934772889,89.6816900642394,90.61857060295164,105.44961446166518,117.6898259748819,117.19116684589459,104.95083415808965,85.25796672005767,61.27845129136204,33.7725994452583,3.7807379032046047,-27.290573373066152,-57.63992788771726,-84.9802263059062,-109.90699297963431,-133.95574461632228,-155.09062539783744,-174.62440324482486,-204.7524834769491,-241.43491078966423,-238.61959452043237,-154.96359592966505,-24.163044828606306,80.69580049473615,129.0768683277,141.2455748437317,145.85768725437103,150.73176425549482,147.3430099477194,130.46382835164312,109.87510615563176,101.25605835724282,107.62912093324042,118.49707796517067,121.60917491554727,113.08575138216122,100.01560167611345,89.34169789022145,73.1390452110004,39.2918806061491,-5.262962587247019,-44.064640281990336,-74.75046100700483,-105.18699526971342,-137.17507819161293,-165.11674771741315,-187.39231425100726,-208.1721332718864,-236.00347824192417,-270.758521178982,-273.89924857510687,-197.29817060120504,-61.2615646312781,56.53705010932657,113.94326776382016,129.07053226968824,133.4890688384633,138.51223403745692,136.52972588253735,121.61982326966427,104.16049930357892,97.78305173049135,103.18702611859483,112.2007135271376,116.94547828009306,113.58162262691025,101.13883260800947,79.9568750939816,52.00059984539183,21.086840353059863,-8.733446994072908,-37.237256866246064,-66.49420578511275,-94.80898790650738,-117.47758380264524,-133.45560887600152,-149.27061824446906,-177.043025453898,-220.25811165936312,-245.2407713727086,-199.50903770322083,-85.68750638649335,32.24787075374515,105.22610252816887,129.85047109707767,129.6576733932423,129.49141453824421,130.633453338661,119.60098670744034,97.85490286528041,83.87313761994523,86.8998906014658,98.71484074075984,106.81392454560203,102.54183120141168,86.49839437488434,64.87395962643856,41.192934193240504,14.523461761118881,-16.090874461121082,-47.370557704767705,-75.71062665708753,-101.53819993175682,-126.99311127422912,-151.8498766514284,-176.71399290231858,61.0,116.0,82.0
84.18169130916576,56.08636352016641,23.19376253707319,-11.424489877729869,-46.0872308598068,-79.35189924144895,-110.58261971542434,-139.78901881016466,-166.51139558563568,-192.2379818423767,-225.23060463906813,-268.41528975150504,-291.8327970601671,-244.25366199021587,-122.99372592217782,6.94278114638681,91.8787371708559,133.6625440195913,154.36268647725603,162.81384098865732,161.21737570495702,151.7519012949664,134.62656002289893,115.79586311875245,107.0605176113555,111.47138380909537,118.66263716052048,117.55038916423268,104.52620655015836,82.52164900962002,56.77848555723807,29.96674791519446,0.7334338235368467,-33.205904172045514,-69.8113113084531,-104.01266016152394,-133.25815987437988,-157.6520798427161,-177.1702408251843,-197.9732392257297,-235.01105902836673,-285.57129729057647,-299.25935004174016,-224.5792580865417,-87.65003084055998,34.36532946780738,100.57025840837466,124.61267819572072,137.01793764547898,152.23847440600264,162.99996908485147,160.32045788222263,154.1429595634716,157.27047560554936,166.19555155268526,173.21537343182823,177.17779210760665,176.243572803966,163.1887235467157,133.3354838730314,90.50147404865778,45.227142423138304,6.166790351855399,-29.080266360253805,-66.04990738555856,-102.26250208235483,-136.96159942100047,-172.1568550380263,-202.69157946183637,-230.24928940525453,-269.4204906838604,-312.05678227869447,-305.6330101835516,-211.3864822452238,-71.68606732231893,36.58854284159374,88.8247538265426,109.56064233342606,121.89445745697358,131.4592859171658,133.79600534485758,122.01400739900366,100.66735927416329,87.86839102677564,94.14152286358336,109.95131145117354,118.95598755281914,114.68062348274171,99.8362024377984,78.70977135576588,53.6706979018427,25.29138740404515,-5.135908319103196,-36.257242485887915,-65.89047652939203,-92.33107890731931,-116.9541311108983,-140.51158945095972,-160.48941846240083,-181.72737235660256,-215.9579721040015,-247.39851479375207,-222.9028686571148,-118.67837940208932,11.380526334646694,100.22495877298672,134.8231248680288,142.53453748996708,147.47064728580904,151.05715031594852,143.71877896347885,124.13181341892201,105.68094296350992,101.8572916111788,110.91990736452627,120.58726412740401,120.19892774970013,109.30605116682776,96.69971276572211,85.9402610846362,65.3117192541949,26.711589373552734,-17.531312345487905,-53.4460529665359,-83.28110166644875,-114.46891796643068,-145.88599091482186,-172.02389772840186,-193.2617894136616,-215.05067295573167,-246.17117256882466,-277.56719871446205,-260.83690308605793,-160.97844032690998,-22.143942184782812,79.35400875385207,121.07383116104806,130.46118087580544,134.99564091902565,139.1622036255324,133.39795158006902,116.08263952591938,100.87132049855555,98.42348743154369,105.83070077142872,114.25752578933817,116.88287086739464,110.9263984822085,95.8668092061733,72.43755511847276,43.170533690511405,12.242871973854024,-16.990206835202635,-45.59079615639159,-74.96760489780976,-102.11841973714827,-122.631025220334,-137.58030987393846,-155.49886183820985,-188.5534367107185,-231.8883991608694,-240.79476401751324,-171.3679315879169,-48.98099018314218,58.85592991086322,116.5829237590464,131.00413818232278,129.00092742734338,130.27721844541412,129.1074955992121,113.73130788111182,92.21741240807096,83.13220287489838,89.98430775296244,101.94187987700397,107.02228559924944,98.85889261521181,80.57577305026385,58.216856275161604,33.89537011322846,6.018327448565083,-25.27720002242774,-55.91883732403767,-83.32909975644772,-108.87340305713812,-134.3174846849557,-158.80408382201918,-184.94238646943404,-219.70765641699015,-248.25323777790103,-224.19063649935143,-127.80667951663217,-9.140588157129391,72.13940628153496,106.79254523324963,117.65429727709413,125.84412120166147,135.23696446556664,133.88824284186836,115.9346497823407,96.40205025726762,90.84290837565004,95.5914585700838,99.67566128742958,97.64575650105974,86.93006064914046,67.45621164082765,41.602557580314425,14.04558613529154,-12.076697086806016,-39.258022942804864,-69.2899647368277,-97.46114132951952,-118.67943058505861,-137.11951683101302,-161.97598553220385,-195.39562426605443,-220.69634259222428,-200.25263703089485,-116.53474004344301,-9.825272254711093,66.8871588332166,101.67835442057196,113.612767520275,120.30164038349174,124.44299779905715,120.05510510773873,103.52813301338837,83.15332860288329,73.40480616513074,77.68895510043515,84.27391401250091,80.79283780685635,67.87207884485787,52.24773675165974,33.16801441999672,8.686939003775725,-17.526460156615137,-42.6897813509188,-66.92236653255902,-88.34291388375564,-106.08684770534833,-125.62253444404303,-154.11255822221747,-187.12629520389254,-195.06056751570662,-144.66223934463602,-51.21210938721764,30.32467374442842,71.9263819685255,61.0,116.0,82.0
-4.062478641906519,-39.55721275110768,-76.78161232957895,-112.27900585577643,-147.18207178599252,-181.72532814295033,-210.38691943528175,-239.88521329483063,-283.0237710798008,-318.0626463182144,-287.2107835071847,-172.00639773487288,-34.70084131098857,56.80598677611925,96.68317154996963,113.46455426237226,125.00361323873918,133.23268186361346,131.98097801242045,116.16459944553756,95.26158963739424,87.80379049003153,98.50620443520805,113.80093150363888,119.05026615922199,111.28351623229335,94.21105212285487,71.85020314864988,45.77447228270481,16.641935650110067,-14.118865785877318,-45.09879666212459,-73.84657591067041,-99.53323960049423,-123.95117036578264,-146.71578043638937,-165.9029277000915,-190.1105069055422,-227.26001404242572,-248.49812398759138,-199.88955972665676,-80.16500435050733,43.04627430356119,114.9490367444616,138.37145957752267,143.76791348641405,149.04485383922568,150.40752002131754,138.9550069127133,117.8917936654652,102.83073793445625,103.60472650227896,114.24738528513018,121.76583904601452,117.83809655538492,105.41597953409429,93.67275987341883,81.69060696678861,55.80884893587984,13.653423472448026,-28.965039874136107,-62.2892015426738,-91.99680798669951,-123.80771046743209,-154.0987378031657,-178.4994271258155,-199.13480069451444,-222.8023670235096,-256.7036384410997,-280.30202808259793,-240.19257527171536,-121.15593969670356,13.397137179681522,96.82760404674393,125.53963040320437,131.6211446371968,136.5733630154751,138.92087828185737,129.17030686982494,110.75437285045622,98.7546772987098,99.92000857491578,108.54194311228736,115.80090518229899,116.09040590639701,107.50507636546891,89.88382529996507,64.41874248872536,34.20227618123482,3.5808990289292844,-25.19323025632078,-54.04451444574923,-83.2693217331422,-108.83204997028152,-127.27049754516776,-141.9142513264812,-163.08162900605092,-201.2474492162331,-240.6877772196229,-229.24748883415205,-138.4865503208722,-13.782513338764678,80.9948090884177,124.19462001916516,130.83146734628605,128.82686122066988,130.90299536997276,126.22917455645923,107.26247968445958,87.74987119636123,83.82288818722397,93.489110316486,104.56447896947303,106.04888733108784,94.31516483773105,74.34330835530815,51.425796302190754,26.28744304531323,-2.8077238741952897,-34.39429162610549,-64.16646030331178,-90.78851804304878,-116.22746518511084,-141.53970491497188,-165.83411987518332,-194.03720305085773,-230.2917283598153,-248.8092448802188,-202.7233404608852,-92.52836328138169,19.63114969965872,86.1681390686424,111.21949927993606,119.72818001235439,128.78553621283015,136.57055553213092,130.08919360102206,109.49177980308596,93.15197801622398,91.70020727545702,97.18249967650213,99.86002179306602,95.50298131574775,82.13715327123836,60.47733238547797,33.578709606808395,6.37437663569731,-19.647258514763045,-47.72484768848509,-77.9500325629878,-104.3273889990824,-123.87490842996182,-143.31773973233126,-171.02250890160522,-204.9453152007614,-221.2119202868475,-181.81573292655278,-85.27797486844823,16.864638515345668,80.67844519519483,106.44963440961332,115.69260203008528,121.9508976408088,124.3612759923602,116.42075266753832,97.36710942782352,78.75995749600504,73.50826749606993,80.05787383940937,84.55949177487345,77.67983017522855,63.50111466518109,47.27609161175667,26.56595276215992,1.0825910408475528,-24.910140249699193,-49.8100011854515,-73.5319260679986,-93.72721191988865,-111.17803755639872,-132.7579849624479,-163.97957821754693,-193.85906854668963,-187.06496373506005,-119.84934907356255,-24.20003772549132,46.340774596255784,78.11301222424113,90.59414696438958,97.65437571405768,100.16683748120244,95.28426442790688,83.88769195096816,72.96259870984326,67.63512621761312,66.43017313798207,66.96688839272781,66.21749102970162,58.93256107406403,42.91622706370121,21.094234187283003,-2.2760301480682017,-25.101808891430284,-48.06493579230172,-71.22207651708038,-93.16414592374193,-116.02272180386488,-144.7640190660959,-170.32936455153725,-160.1052958447417,-95.01925583910565,-7.521645591472852,55.58510827157442,83.57656522423142,93.00509290668285,98.55592435173011,100.36385709492448,90.31648916005503,69.28833324364072,51.40617419991583,48.54140573004107,55.88370748354288,59.02033533873281,52.685761240112264,41.11695399672717,25.365207466115923,2.515292473157835,-26.555269655124256,-56.24456572846025,-81.36915912345866,-102.9824777733765,-129.2038440491115,-165.30715859518304,-192.61282853331343,-173.46825953534852,-99.93856108872856,-11.612809459426542,51.40252397740943,83.50480257793326,100.47078101613783,114.48437259504256,123.960189550965,121.66370199846656,107.18429573998287,89.818050233784,80.84256931667349,81.21675600331544,83.78867323379716,83.564069289295,73.1751854736709,61.0,116.0,82.0
-100.96758619643452,-133.02117245817348,-161.76456993059847,-184.6416684452034,-205.22233016037268,-231.5971680975625,-266.68436621464565,-277.44937451116135,-212.31359159049583,-80.03857006732295,44.157803581043346,109.50202301061071,128.22031642370123,132.8558563165417,137.99221713705327,137.5647704942687,124.12056716451853,106.03790460141056,97.82896957161928,102.05339249595036,111.11295574131694,116.7373288515356,114.54829706243999,103.32137961791855,83.23286498731217,55.99347165141781,25.210506858803974,-4.8867735694242675,-33.41977623567612,-62.56352293854224,-91.26414614562522,-114.8986993020671,-131.55012488885382,-146.76547484869388,-172.255048969765,-214.3658046397323,-245.0912741713084,-210.46975288666627,-102.66356617270264,18.56743453544708,98.59656974632898,128.65968982418644,130.0516955938478,129.185988885947,130.9334159996227,121.97884020111351,100.73170521780773,84.73633377667248,85.70935188448786,97.09885080747776,106.33788004591365,103.9037142481705,89.08949143264908,67.89856818002478,44.46989673837447,18.322106230385124,-11.86716390220195,-43.33267395947762,-72.12690006917765,-98.15564415776127,-123.59810310824183,-148.62516015142876,-173.16267281757706,-204.02989686599264,-239.60980411656118,-243.61238194798565,-175.39564347175138,-57.23891313434893,44.18883004878223,96.62092649748898,114.32799691851324,121.98369411699254,131.71294481522793,136.61134502514184,124.95479705582864,103.47461089639499,91.29789429107988,93.12816906273801,98.49471214611019,99.45150775446663,92.58601443113753,76.64081906359455,53.04085941387308,25.55539638967143,-1.1561996974314024,-27.414504527251523,-56.424630278008785,-86.26763823753782,-110.54327123111948,-129.0515302204646,-150.27124126016744,-180.7344370946911,-213.17223302859819,-216.8154736133578,-158.17038455965923,-53.64294501949059,40.009116869782005,91.16192155429681,109.9146681885322,117.62904080038263,123.31406171077998,123.37926819966965,111.75971292525564,91.22795992628872,75.5942356967773,74.69045594800517,82.21940668367682,83.78404886308304,73.95399826694121,59.03441533516701,41.903095785601096,19.52464732020741,-6.5349382937274605,-32.1888152645128,-56.860366691132505,-79.82268269347954,-98.83302977356846,-116.6171187145188,-140.80121030881813,-173.93824001927086,-197.47978969999255,-173.5730708617315,-92.49490258963199,0.3762300502024223,58.87929161839669,82.770341008805,92.98955809582363,98.97326892851498,99.60574612507364,92.43136804948651,80.32878457932071,70.81946888142232,66.9997370515072,66.48454632284502,67.10254847289546,64.98824588660442,55.15109111409105,37.00046834146884,14.353261619636116,-8.93835428146718,-31.666620767971356,-54.804421313893776,-77.70436342394586,-99.4291967689165,-123.65155434101929,-153.58286164055173,-172.68063454680856,-146.4729974933011,-69.62214520274979,14.522724307183026,66.76820798863969,87.34292731206641,94.70386408816067,99.8101125792637,98.9399425842514,84.91608275450035,63.05091306424369,48.892605364024256,50.24617934435294,57.738440694584256,58.04067368184964,49.6924302884708,37.12653886059741,19.56554422598596,-5.430503416333193,-35.367643467058265,-64.07655578146131,-87.72523448576919,-109.62983204500149,-138.82805592640693,-175.72476541447801,-193.22472129733117,-156.71468242261884,-73.66350841358236,10.122560132589253,63.31333555378104,89.19194164128233,104.64045384281137,118.03389277407535,124.71903065301426,118.48271907026194,101.8819869454939,86.05912406566415,80.26769196835616,82.02430087068093,84.1947704305679,82.13597647354493,66.47603811868142,27.199152944550804,-27.356500307938813,-75.25286415366284,-108.22652551516052,-133.62020224098967,-162.70120973393972,-202.6001648811776,-239.24871165609036,-233.47716641832397,-164.05666615492092,-65.01755161858743,12.826917189839167,56.63662721445624,85.07737265641683,111.95158720688272,132.9436291923455,139.78239563675731,132.21196852553712,118.05684918495794,108.50847531209008,109.61862829759576,116.03265938560939,117.00019815199218,107.42891070774661,88.18922733740052,62.887512393810155,36.45223804185239,11.38015133266359,-15.171629301723337,-46.145502037005194,-77.4511110353147,-103.67754736947343,-126.93864559437884,-151.5008574032763,-178.90572489285438,-213.60395518148928,-252.86616259143858,-268.0738298488957,-225.59742975550375,-134.28515482273156,-38.088841766539495,33.152571565787746,77.3035440711583,105.81596048386038,129.9806708945822,149.26028149956016,155.15489020574427,146.6499930902668,136.32975548123284,136.65516066088975,145.69920165098293,151.98522018494597,148.94048265163997,137.75126511525184,121.05551432577381,99.90737107196328,75.8893295275834,49.78709556082443,21.709844808927674,-4.871942427423591,-25.76715032801065,-46.39774952836315,61.0,116.0,82.0
-181.05012936040106,-214.69857550453818,-246.37745737057486,-231.88117948731522,-143.5437465717738,-23.65654692056906,64.31734942269189,104.13297569173154,116.68584956518006,124.55424367558744,134.28228104340658,135.11895584498302,118.89552559375939,98.35879320389712,90.73285341707162,94.80786373786428,99.41121295069202,98.38015374563872,88.89106876814989,70.49287666179995,45.264636173343646,17.64030640505778,-8.625122048519415,-35.451735723572554,-65.23590220382661,-94.0712455873981,-116.20714172382225,-134.4709172912221,-158.0806583772605,-190.78431597943313,-219.06769491959335,-206.82612072441316,-130.36836687419319,-23.14506113739362,59.295958376529526,98.88256544948771,112.56115089611964,119.48208671906872,124.2256748987008,121.35867840807586,106.26442746608308,85.52623973860213,73.78259230183029,76.63773996772744,83.81247271684859,81.95775817863255,69.84390927088481,54.436943463758936,36.043506293481634,12.15678182246831,-14.08284660820357,-39.389471854271356,-63.78949854561734,-85.74223983088518,-103.7971012927439,-122.61566368844383,-149.73498103956533,-183.27756303857214,-196.94659242951224,-154.85326288255334,-64.16628117767621,21.705444982130746,68.39438437183915,86.40213098044752,95.09774380804002,99.8526161477705,98.35350801408036,89.12579698631372,77.02394195237933,69.19674897659725,66.62502562675776,66.64964065790893,67.02441177706652,63.07795711158947,50.64307153584824,30.71304839227674,7.5754162955451525,-15.532419326411608,-38.28448927685729,-61.53004384982705,-84.05076370589951,-105.88537615565592,-131.89934639335934,-161.6702186963479,-171.0395541109475,-128.20874315022607,-43.67404144526025,33.5886951914234,75.19979981489891,90.06868311893254,96.32568332612853,100.59420043758199,96.31803297106387,78.77923303521692,57.51514924724821,47.807870354556364,52.49328321707268,58.88881482914958,56.298004835469165,46.3991820911078,32.730335191669546,13.105819963679243,-13.817025607287594,-44.06116792235219,-71.43512051500161,-93.88852000828098,-116.9287630002474,-149.30973879245747,-184.6147771088303,-188.99619879359625,-135.77408678298215,-47.46519491921216,29.042693167756145,72.86250862036016,94.07830657389576,108.73896678298715,121.03006321435682,124.33351731893525,114.37194890462271,96.6541589400049,83.23420111794908,80.35356756971002,82.82790931942029,84.29288224187937,79.5974948457443,57.66298733797502,12.043984276578419,-42.65959479976988,-86.16128951247167,-115.85522723243531,-141.1513543036383,-173.15631727007752,-214.96310937011543,-243.7608539038991,-219.47771806723998,-135.92072468901563,-38.85831096269566,28.426522211426793,65.46857717600498,92.9155269087695,119.076154835118,136.56197957007672,138.86160969176422,128.30128466725571,114.38193595928169,107.74373089139156,111.41934686267491,117.25371723333816,115.34887854447163,102.74711048545468,81.28805655303113,55.16531715269073,29.099329920024562,4.075415106170373,-23.6992722983692,-55.48639851082901,-85.6107660137355,-110.45514891607094,-133.8234967661782,-159.00917171437786,-187.954550342817,-225.20178535657857,-261.57324791183817,-262.4076351049766,-202.51463688806794,-105.07839647155012,-14.436294430085361,48.32947156875416,86.51341920549862,113.00096753276354,136.39949556693082,152.65466218113647,153.82740975204902,143.12195834962412,135.1041311979035,138.83099053761887,148.27363589399064,152.11218429259864,146.39692787423078,133.43302264693128,115.34983471027213,93.18952794139939,68.57401883793898,41.81997534869625,13.609434248347897,-11.490666871657368,-31.23429967053941,-54.03099451652643,-88.81386414406774,-129.69237635536197,-165.20527875234632,-192.744360160903,-219.3883673478298,-253.53968568717795,-284.97908038622666,-274.639604434869,-195.96992437562363,-81.49738652196314,12.174438189971207,64.78118892178472,92.30273053346409,113.57061757410803,131.91104135282959,138.12747119263864,128.08728948602726,113.23490507945631,107.74170813267453,114.41184832284327,124.94502803530797,128.05024372894525,118.3824094780285,99.81254582819861,78.75261475778589,56.32177318832245,30.597179060245498,3.354747803333244,-21.917635903391407,-45.92103384860364,-69.44071371632991,-90.38442439698085,-107.68058017715569,-125.24443757031527,-150.72478743666872,-184.5556413638591,-205.08191488033228,-176.1898152127905,-93.9344168834456,-2.9020547985472946,56.819695994015255,83.88353167748521,97.65286967508025,110.16306989044747,116.3102544074709,106.58885627045815,87.75493491819537,76.05229272032389,76.3171564122104,83.52819010336916,90.68639049337817,88.91095410643422,75.43398197470766,55.334874996152074,32.30513244449937,7.824037545628593,-15.425769937975318,-36.046701540315794,-56.9502203718963,-81.5536905930241,-106.96669823010673,-128.55102977044982,61.0,116.0,82.0
75.48560655548893,89.37613726695974,96.92086986434909,100.20511412527804,96.40491831838256,85.5599387121613,74.12980947683546,68.03689843205413,66.45280339809172,66.86961910181232,66.58388777993402,60.418680476228175,45.48508453675458,24.16903760147158,0.8197600103209987,-22.084174232232154,-44.96636476494795,-68.18846623275947,-90.29677349562762,-112.70779384544232,-140.64583272738648,-168.15342960582734,-164.7089467765926,-106.14799956896415,-18.524919308397667,49.395158758584536,81.35912242524181,92.16243252248685,97.88364555001355,100.65108744780395,92.47503576598912,72.28457779143913,53.038870750311744,48.047646104965125,54.86222226649515,59.18436890670803,53.938507833078326,42.84667693021692,27.824275749905233,5.997403663961825,-22.498726412331894,-52.485376439028805,-78.32987697840291,-100.06380178901867,-125.10229390176282,-160.26555507579624,-190.89386897259456,-179.56347417043494,-111.72386501828582,-22.474712971566984,45.01129859685511,80.49775434285986,98.5097563415736,112.72207813794863,123.25173227663274,122.77106676502663,109.56032785938639,91.82794604025251,81.38311266979265,80.88284309333672,83.52448595077361,83.93768390344053,75.60157325090319,46.69967114811424,-3.9178011233538728,-56.87380732908992,-95.84424272334118,-123.11079654849036,-149.27582340935976,-184.61807329347798,-226.40575258510154,-243.59316732182324,-200.11006410677825,-106.69545281763234,-15.529126314987181,41.3623494462491,73.61198398895208,100.76557974679196,125.45731806287819,138.84884146956605,136.8177105782898,124.10115083713922,111.36500864248042,107.92836268765834,113.40936121283843,117.77033050406169,112.7777645541088,97.31081932166104,73.99127530432439,47.473811997018174,21.873883608877733,-3.4767987157416043,-32.62384062139888,-64.6702668505802,-93.26516472437534,-117.12298373518996,-140.87925583406582,-166.78642079035177,-197.78286942777444,-236.94387091403496,-267.26670406172576,-251.27965081795878,-176.14877923072237,-76.64356444473582,6.728978014575633,61.39374464742529,94.77680797239496,120.02736580291743,142.2535137973647,154.7040968855628,151.41549423371345,139.8632547437323,134.97499723029975,141.5221966475948,150.3145028674856,151.39905523995455,143.2555053011036,128.6981991054981,109.29275509645383,86.28136801512011,61.081161357035704,33.695617768730216,5.777516087253801,-17.572949768275986,-36.94180104650618,-62.79417579853793,-100.58465335056624,-140.8323482022752,-173.8178768938815,-200.06255472391678,-228.3687139646937,-264.1967104155684,-288.29902400391484,-258.66870579691414,-163.86371294408917,-50.439600910647414,31.280636637894375,74.28056700253127,98.60142700672282,119.45456559042798,135.41046036817687,136.6500586519138,123.5418423790876,110.2987043156448,108.63215982347607,117.58484989989202,127.01643514817196,126.55290951089619,113.60226186491087,93.80745363898566,72.5089599648646,49.25212546731751,22.685418597244837,-4.201106057730768,-28.88658885791395,-52.8252325789826,-75.8652634423975,-95.70135921696686,-112.40321494296104,-131.5017494067676,-160.0812152071324,-193.46686685360663,-203.05689668759322,-156.56075014187653,-66.12925749346874,18.343175543198697,67.24614190093223,88.38467732963885,101.3196795294998,113.14345195194285,115.23345304629896,101.32479047491087,83.11615877791039,75.05361962875963,77.95658734622799,85.98682306792844,91.42272233435955,86.06263348139365,70.05909019551784,48.92246805119194,25.282280642323904,0.859215030272453,-21.618013554162545,-41.83047457491094,-63.67908337749559,-89.06746150724952,-113.69589829825182,-134.03179233374902,-153.72351359362912,-182.3078721884421,-217.69128592521673,-228.4965239724901,-179.9712634824003,-86.09944397611423,3.9387607301688052,62.393095852826754,94.36239065722691,114.61656948334434,129.65140579655062,136.971812334379,133.93573032947512,124.43815927180222,117.88714487386358,118.69378709765296,122.633432247321,124.3391243996268,120.60012339337142,108.66468328684526,88.31379909370102,63.743688000475196,40.34194385170768,18.987466246508312,-4.118968507145218,-30.61522045159608,-56.30442519229047,-77.53675800859409,-96.64258168120476,-119.05828975043653,-146.42373919942966,-174.3320246781135,-204.7492661801608,-244.28708259483898,-268.53401183392225,-231.12665651787967,-133.1731829524844,-30.301285506488053,38.662838408430964,76.76866219476159,101.26268514340757,123.2976944774364,140.7780058273089,144.73422516368555,133.92959920408583,121.00113519616673,117.63396919707826,122.71695489752038,129.98724880463297,134.07360441728872,129.8470737125948,114.4564464091005,90.83518674165714,65.71639471887805,41.532655071867346,15.553704295659426,-11.849109031643891,-37.087773869394894,-60.45873320522295,-83.80873597980145,-107.79530584850477,-133.2937690031378,61.0,116.0,82.0
69.81848737661808,33.747120712193,-20.040168952574778,-69.77159857947895,-104.50769121598024,-130.27228436141638,-158.23700001401636,-196.83828932517233,-235.86971798790614,-237.9967627700739,-176.24238442296758,-77.84019755538499,4.618677934243279,52.18779371983291,81.47407794398754,108.49171461702092,130.8476627612401,139.7902112479579,133.8374237414979,119.90781771596184,109.1920291227274,108.93480143237991,115.28505172468864,117.45048116597954,109.31427925533963,91.20354962656327,66.42816860121522,39.89515512855424,14.700095662410833,-11.385448320253003,-41.84102262067133,-73.52016960837553,-100.47353859573846,-123.8164219814953,-148.1081928098115,-174.95931946424307,-208.437472388272,-248.13657315194348,-268.9163006466502,-234.82925182201743,-147.7309547074407,-49.782973563889115,25.378386966489447,72.63859097193262,102.4233385670772,126.89426463925668,147.28675774888384,155.3345305420942,148.25175939978953,137.24265083773125,135.9069925178676,144.4006076410682,151.64304468564012,149.88720823084546,139.5958831102903,123.5584132957867,102.92967950277065,79.20587638208985,53.396562390468354,25.489307213880316,-1.63116762718108,-23.238761268728727,-43.223187309495735,-72.68521306515575,-112.54754530081257,-151.2920293089551,-181.8087351411535,-207.56015976780037,-238.14930716091231,-274.0864263075245,-286.9153960385354,-236.78533123182558,-130.196528535382,-22.37811789254051,46.97690706299822,82.27296206444316,104.73291458847042,124.99580655688905,137.60097646695834,133.86241335123233,119.01157337348616,108.42298347288776,110.47093424308598,120.79916488612717,128.20600601649556,123.94924029822704,108.25683933334867,87.72572411388138,66.10790311609965,41.86633132122034,14.750567444555795,-11.533865771716897,-35.812708578389014,-59.672389475212405,-82.00564541337388,-100.71559295954299,-117.30716563780207,-138.62171115534426,-170.02109338238478,-200.45896568122538,-196.00332698442287,-132.95900717238646,-39.00990774127857,36.341958409183825,75.2855218479122,92.30020819057937,105.01391643344738,115.29947654723979,112.66597600035927,95.68540852544679,79.44351914170389,75.0017925287625,80.03089692821045,88.24828296908912,91.18535985487519,82.28745211540394,64.28780086197021,42.304998951064874,18.18104654295014,-5.926927298857581,-27.583969934529076,-47.765070880680966,-70.75757563216943,-96.50903266429778,-120.01714698592106,-139.40352787826905,-160.71037617842845,-192.64795632962927,-225.3190995375401,-221.14164190754747,-155.4624497291163,-57.71585107758937,24.302017256967947,73.66523740229157,100.89991505188513,119.50773517910594,132.74611656634198,137.14752318180587,131.47246906440554,121.86011088643858,117.43192512304896,119.79910315028617,123.51545240913111,123.95236073345158,118.07908628948675,103.54501583498563,81.37719080816025,56.703497843326325,34.081248082347855,12.676905454427947,-11.526315282159262,-38.37034968003967,-62.911829806264244,-83.03806663365394,-102.57504777963587,-126.58188769837226,-154.62002311952904,-182.40644542935803,-215.44206351765428,-255.0283714297466,-265.45648420397964,-207.08297095264678,-101.34954464988608,-6.4236541342582205,52.10076638237648,84.53616545431976,107.71909603138039,129.20090029780977,143.63792838848983,142.77778353470342,129.6923949368529,118.8656795698515,118.516039804909,124.84356960542752,131.7242775036302,133.91390301203634,126.54221003434085,108.19130710668355,83.47591272210892,58.72227983854997,34.31269373268998,7.615455621584193,-19.45280075427089,-43.920002531483874,-67.17382174962357,-90.63650166892728,-114.98837780390079,-140.8629140811724,-166.36587950799242,-192.3843160924446,-226.7976453624476,-264.70594809458936,-271.1556364274177,-215.71609968021878,-116.03873496026475,-16.397298667326325,55.16227423895587,95.23670104923498,117.35960625405563,134.57388425866864,146.74832774447754,147.12214076205612,137.1029813162571,128.13826005244238,129.29868665418866,138.38301799530714,145.48100560238683,143.6612526473354,134.62236848062702,121.28589224024653,102.94667032487172,79.73927934743351,53.977282722035795,28.89316274553147,4.531580820053487,-22.855096582984135,-52.58617818073452,-79.35010966230368,-103.34917337875126,-129.40155115414092,-157.16204047931376,-183.54385873234202,-210.641586980344,-245.05393215313572,-278.2163389642884,-271.624654545658,-195.33303193389392,-78.32012063248635,20.326491300195865,77.64829219231052,108.88805889457393,131.44581828636788,148.93821691696346,154.3599964777188,142.9914453363108,123.68447152198543,111.03654245805394,112.69606589189686,124.5193039220023,131.6283991939315,123.46974405992769,103.72128939161414,82.47636913184418,62.22933725444354,37.78180186706979,8.794147124553687,-21.812249688831404,-53.39852492185405,-84.07659403380785,-109.57573473153215,61.0,116.0,82.0
-50.3770863920415,-83.54987480015815,-124.36886073219651,-160.9918662693305,-189.35395361216658,-215.50788816592717,-248.59487076472274,-282.1790342849017,-279.91599716494744,-209.79781699391933,-96.5759067016462,2.1311826057631746,59.73352925271902,89.28150530696726,110.79938089706997,129.9266159054673,138.31329406280577,130.06873932757856,114.89696127661371,107.69310406168086,113.04685131932308,123.75154766815545,128.35681144015146,120.3415679082502,102.53348812304132,81.59763556205138,59.47521513865506,34.202649466912554,6.91107297283614,-18.674348435819066,-42.73155554514666,-66.39941578590397,-87.81956484934446,-105.50972457754762,-122.6074540586284,-146.6891858297012,-180.06942242399185,-204.4962466780092,-183.64131765672522,-106.61526961326008,-13.711253425199429,51.072594099070145,81.48804220171532,95.97544962942816,108.60568451069385,116.30582935701537,108.75924738783947,90.14999518793674,76.86662538794216,75.74719783301349,82.3905096268495,90.06641531989015,89.87785996926978,77.7423840710469,58.21718141485044,35.499074158014174,11.0775271447103,-12.486050382568967,-33.39259937141537,-53.97266933431757,-78.10723425790663,-103.73781375656225,-125.93877046579354,-144.89732484603977,-168.71077427791437,-203.28073662787259,-229.8033923249153,-208.20707910979715,-128.15237652488094,-30.907383521450242,41.752532932850336,83.08313034795202,106.79924159120725,123.99691825560208,135.08599318201013,136.4265316168817,128.65171336610402,119.77718615187715,117.59741537334729,121.00024816181251,124.11369929275104,123.03936328684658,114.81202310887858,97.75520518879287,74.23493989063346,49.87597911998293,27.949149581834195,6.098602953404209,-19.194836824699788,-45.90876209679015,-69.10520028681464,-88.48075290557915,-108.92041012321167,-134.4885855524508,-162.7020989747395,-190.9090992780866,-226.9979136690981,-263.4086521933896,-256.1346021608973,-178.80023621499586,-70.72722333521567,14.165050428044411,63.33998953980086,91.59510916348493,114.13211206583846,134.5376910929167,145.137314396238,139.70329936518118,125.70033902550547,117.70099633409644,119.95630786932956,127.00932825571101,133.07222366043035,132.9331211456145,122.27637961018365,101.37773326302354,76.16448495636341,51.78154440306302,26.85940080688933,-0.3645618398465337,-26.79458396479492,-50.660901250357576,-73.91122320007004,-97.53281801156307,-122.33400555776122,-148.38708601286717,-173.54620880240097,-201.16507754228832,-238.42758256191365,-271.76836996449407,-261.727792731388,-189.53471895118088,-85.50263352318166,7.736289598516556,69.58882162058565,102.70612194104086,122.5820153739714,138.91282763276982,148.26570892988062,144.89176878418763,133.84159230276566,127.29727147083159,131.4868413743172,141.09473908058177,145.9403621317208,141.5872463621753,131.20280489314868,116.54437414377993,96.6731718459544,72.41296209858024,46.55113221495552,21.925903112430106,-2.943425289277158,-31.436118524815267,-60.78760137361703,-86.34676408978832,-110.5377928132429,-137.41674604419194,-164.97547749333208,-191.01232974767282,-219.66486127277227,-255.98540294445172,-282.4687746429339,-256.72790086825813,-162.98750898419345,-45.892453162767865,40.857077558330815,88.37594087907706,115.86082193582891,137.20833896001503,152.1400469119513,152.6845646396559,137.54314038361372,118.82172957378248,109.97307018644774,115.60213442239743,127.76848393620887,130.93293323933761,118.50451875509356,97.38593051323123,76.72468567447396,55.76738418565998,29.72092243894548,0.0499703502578064,-30.847888113094008,-62.54240760973678,-92.11991245978562,-115.73776289875934,-134.66132104371664,-156.48042344564448,-191.2642203085477,-233.63493263540516,-247.11215697622194,-192.64254576491132,-84.90300574895107,17.598386533159836,80.58841951141392,110.8402532869928,124.55776415595759,130.93130406638232,129.48720991995646,116.0797745490068,98.24876627427007,90.06126404012409,93.81642746495802,100.74858085727021,104.30838136337377,101.8495609975724,90.21210106682649,68.60101890613947,41.141187802458326,11.538484731364179,-20.542704045414684,-54.5724827872826,-87.53204327480363,-116.23779063679065,-141.16331479585733,-165.0590393849276,-195.8175818992386,-237.19624181172549,-261.46298120743194,-224.1072032308869,-122.36086551030267,-7.518684965425581,72.72641772891906,111.61249780311664,127.97256034331915,139.8583790646273,150.57018920624097,149.11812809502118,131.58511742547736,112.43292176135844,107.32585340758759,114.89299739393752,122.1594543858001,120.45901983492693,108.1958631757606,86.37813052094884,57.742228474824365,27.23002500670681,-3.553598280553759,-35.92379381829599,-68.56256938249616,-100.42894120898558,-132.20943150062593,-162.30050774781998,-191.06973803942992,-226.3446511760442,-270.1860164351682,-293.9567819258312,61.0,116.0,82.0
-131.530183726651,-150.7910083823942,-177.78862282746238,-213.437497522161,-230.05436478443423,-189.97055066877368,-99.43396280146418,-6.429055881957759,56.45701713539173,91.06186935507395,112.23795988325733,127.9996442625624,136.58279189409694,134.8852964761713,125.73819107539951,118.32572348369595,118.2622021267716,122.15186318984482,124.36135358365611,121.52265701805615,110.77962857728265,91.39886234537632,67.04035271757847,43.29524150608256,21.834820813984262,-0.8137977729449162,-27.00590244073007,-53.1153205717213,-74.9406927788666,-94.0172386398836,-115.74531307905966,-142.63455780008468,-170.66700586681225,-200.16189059490927,-238.90860335128102,-268.03132718991617,-240.41784663569723,-147.8636805490206,-42.39159316144919,31.601601784285823,72.84523758230812,98.25846972331254,120.45230222708157,139.0478326619354,145.19124436509915,135.85323632785503,122.29893030882438,117.46339744725496,121.78558627592507,129.09017411679392,133.9017890587802,131.04187099955996,117.1114229540812,94.20792802897608,68.98007407558119,44.796004163657756,19.168209939551584,-8.264442136222314,-33.88750140490363,-57.36762179629509,-80.67726916092028,-104.52809190776514,-129.81386278753956,-155.79158385931996,-180.87963741059977,-210.89602945734995,-249.96208697432587,-275.0589010195834,-246.71684373618325,-160.63188438163775,-56.045493969244745,29.10168640872029,81.51927311649088,109.1216263622092,127.60952995454069,142.68836473321306,148.63013802954686,141.9684023543469,131.0015913294603,127.43925600238047,134.16072044943957,143.36551467403177,145.5674953478692,139.03135091327465,127.44931547480608,111.349192022111,90.02171130961895,64.94679225098805,39.26371500998022,14.960165368290719,-10.777124282993869,-40.106975659552965,-68.6086332191424,-93.21516858335082,-118.00929128189061,-145.48602830112463,-172.61522854742242,-198.6681619733951,-229.48729599439244,-266.3200739224656,-282.18097637760593,-235.66358193419813,-128.63709270503037,-16.3710737781422,57.928872234572495,97.4943031763512,122.42018857062884,142.49316682420158,154.0939161901643,149.5881229722324,131.796485172888,114.8440305832979,110.20202244974791,119.12145989441379,130.19161864125132,128.83639239706508,112.79554599451555,91.17382112364734,70.98105166390066,48.816326358004815,21.359060351182826,-8.77491264981126,-39.9739177189938,-71.52143312330206,-99.62500627360392,-121.46870296573407,-140.18399038466308,-164.92084463119798,-203.76239923274412,-242.6952174852554,-239.0609698226859,-164.64811031287076,-52.297975284847,40.099964502391636,91.89502533730132,115.93956123040489,126.97495907742626,131.57463691631352,126.80984853402778,110.70585087383674,94.46541838488046,90.22508237018434,95.90000220098761,102.26314904362145,104.33874523743232,99.55946966178051,84.88763065693541,61.022381416010425,32.775951750331934,2.557778756826364,-30.272168293928548,-64.38002948045076,-96.32190655169877,-123.73352705028692,-147.97099860270995,-172.74973484378881,-207.15600303946061,-248.07978643211285,-258.3779816963788,-199.72703859880116,-87.78184203819433,20.308798592364575,87.59010384837477,117.67893779619098,131.36766958784932,143.40583075476144,151.93480269046592,145.343618393696,125.33005126692993,109.19177228734875,108.72650000682303,117.57233786761292,122.75514720132729,117.97337405299652,102.80602584916618,78.60017352193054,48.93293743089967,18.431665179723105,-12.738272789219675,-45.43553695038502,-77.8060505036632,-109.64273105667422,-141.17706286428398,-170.5346308613531,-200.1561095393664,-238.6721445487196,-281.2720037232611,-289.9148239032128,-224.24983677629882,-102.83725200747048,12.054390797852664,85.53887410688574,123.53787710169817,144.41143165585203,159.920738457001,168.7263810093808,164.02750352429166,147.24743467051024,130.636529480136,125.73864962749404,131.17964419907634,135.14214667722652,130.65406467738387,118.93818508565087,100.33158779167435,73.26764209693258,39.95457355492404,5.864194319778542,-24.137351236028408,-52.53502353209227,-84.15521273570548,-116.73775670831752,-147.27745144596958,-176.96344722400968,-207.02662517189978,-239.27620906241168,-276.53643071001136,-298.4830940671337,-258.9133798732843,-148.88843607219673,-23.14637416771553,64.18031804560128,108.03057520580262,133.0907263170623,153.61070541732252,163.82111118418715,159.19628877273533,145.48412351760257,133.7190611074544,131.83309046026042,137.72409731219852,143.89912226504208,144.68902779666425,136.4455769825741,118.49912598730752,95.32670127163517,70.45663152661166,41.78608743865492,6.876588003810696,-30.51438814216592,-62.154310873383324,-85.36612719777021,-108.0679016584426,-136.51126986628046,-166.41419262347637,-193.37282566051866,-221.57929679728497,-258.9797112917292,-298.0262005463395,-299.06734465180165,61.0,116.0,82.0
-137.3733542954969,-163.05350479026828,-188.61149252317517,-221.59213217169798,-260.4903478400106,-273.6126960484504,-226.54367147624237,-130.23218392419415,-28.389478449080244,47.59520980262136,91.31839090024287,114.86017403913893,132.43882821882127,145.68531227995712,147.84407531953252,138.66296802205986,128.84610808121656,128.51914858120236,137.05322216663623,144.99008820987044,144.42116358894253,136.09097923133493,123.32466939331363,105.6996030957568,83.04642868374391,57.432475286950506,32.13376793411097,7.8738449580816505,-18.971931160595688,-48.69751093223259,-76.03979311044408,-100.11608294985908,-125.7550114585868,-153.50507392148,-180.11263074149238,-206.72830929571555,-240.0300642183292,-275.0525591864379,-276.36143172179135,-209.11209701209742,-93.97146928327075,9.61202545248754,72.00953875925772,105.48018486769145,128.6674888211092,147.10377268701217,154.62363589324207,145.29046605244122,126.15114441144587,111.95843840637382,111.65624535096775,122.85064317983418,131.4775730467903,125.43182113155474,106.63529616313254,85.17307769319389,65.06416732597737,41.36882332868474,12.791809219523667,-17.678252919455332,-49.160117499930536,-80.20617907074669,-106.56355694661188,-126.89876647686522,-146.1965302664451,-174.68866870464757,-216.50490749893098,-248.12839314612765,-224.60929324122566,-133.29910369053277,-21.680480682727023,58.97635168787386,100.9074927659939,120.00176522943596,128.92919733754968,131.43820485678245,123.06867800737753,105.31267798661399,91.80230415505133,91.26420698950497,97.99774917880526,103.40355408828349,103.81129175492319,96.41410396028198,78.76028515003152,53.10092038984618,24.272886967045824,-6.66198154819025,-40.121315619059104,-74.00425618858864,-104.69742164587993,-130.9668319304273,-154.7620187063739,-181.30686201592096,-219.32087667113254,-256.4436338043356,-249.11695640292177,-170.57523492847233,-53.709915456763824,44.42878472380275,99.24836357181003,122.42478173538362,134.7432119504506,146.7485955781521,151.9235780094083,140.3261525762138,119.44209558081002,107.40326440676955,110.94557442191686,119.88636079424103,122.48015380592322,114.61547182053351,96.64688249539107,70.349400434915,40.09765017925262,9.582866078714144,-22.080383369177472,-54.89927081065102,-87.00054899371203,-118.85633499333755,-149.9332490301359,-178.72661804697253,-210.0641513680512,-251.60376562901268,-289.5868600954316,-279.20389962851067,-192.3120008188041,-66.47449122912742,37.82010351118156,99.3606153771617,130.58423324596984,149.2610149668615,163.48040871678543,168.9386485715527,160.023556316095,141.77391769582334,127.77388427376545,126.6953075026818,132.99185248725033,134.74304762397838,127.91122469603249,114.36432986167011,93.37217922069681,64.08574434478844,29.89784897421208,-3.2873900957580857,-32.21108559486504,-61.304438544391815,-93.68380506471343,-125.77828685977542,-155.84736358513823,-185.60123230361322,-215.9137383511675,-249.69652274220022,-286.3579302495095,-295.1237490359914,-232.81361837155282,-111.06933512545197,7.233452872087193,80.40331804350141,116.10949298519185,139.50372089086792,158.02680716008038,163.91624082476383,155.7274443459009,141.3834682291346,132.05497881364897,133.05118364620304,139.78827873486745,144.86572266300473,143.355621029544,132.14205047214935,112.0834397072798,88.31906249542634,62.73533317649852,32.324222449606275,-4.022073386656002,-40.56709119429494,-69.53821879463794,-91.50931782730146,-115.72560477815182,-145.31799496687464,-174.49546864559443,-201.00579993476404,-231.2524398775903,-271.2450129040585,-304.568309872808,-285.5532049573937,-189.49693373166943,-59.07102810378183,44.87097137317967,103.42907340577055,133.6971406776635,155.183684332824,169.21734098233384,167.38448315464373,151.707872036781,136.0737614754841,131.4514175508914,138.74699636610853,150.74417784940573,156.8099805793129,151.3933850428726,136.7385897562769,115.03156026310413,86.67507859481263,56.17750672894316,28.916592929207752,2.822357082284435,-27.498040189158313,-60.082550250792416,-91.3489271633891,-120.00366043324223,-146.71400693020297,-173.0923933356632,-200.160036815407,-234.86475960944415,-278.8114171934765,-299.1137944664082,-247.7264588500744,-129.94084441258073,-8.17068239768787,71.78176470629637,111.61530108266918,130.91734567888102,141.15218794022638,143.5995655922848,134.44387476889796,115.23643921886723,99.11902432812654,98.75720350219406,111.71837744347168,121.90111314936442,116.78193488486288,99.78702845870438,78.11537261549239,54.525187780431544,29.83312645987598,2.132695125571668,-30.03297963657456,-64.45194140546664,-97.07993651224855,-124.4553338279937,-147.5896904546926,-176.16975507279665,-214.69587735007116,-240.8059001243407,-212.0959592147037,-115.56923383011691,3.264174461839803,61.0,116.0,82.0
-112.95673155944182,-132.20099086160553,-152.99896413568237,-185.76956163894704,-228.5895629225667,-248.73502735960432,-204.0072613075574,-100.2500865470623,5.995407964298613,74.47342908146665,108.06147821225258,123.26708866058351,130.42031563011219,130.34815403361952,118.43694003144819,100.31499657844911,90.3407873233394,92.91981813778878,99.93996022656464,104.12699727864175,102.6361189167025,92.37553291814541,71.94058202496217,44.952637375278826,15.602785473977352,-16.11436258945924,-50.01734699747264,-83.34485709638923,-112.67823402154386,-137.98587133830853,-161.72278485755237,-190.96473247118303,-231.6815868409151,-260.98871659606465,-233.43689966811164,-138.05280154334096,-21.470792605744723,64.67358431681431,108.22307669130846,126.33512514255929,138.22111819672023,149.55797101237212,150.36509008884772,134.45193689110997,114.38241106190186,107.04855443062596,113.61366465994932,121.60959611209998,121.30488064880787,110.41149771314741,89.77010168206807,61.76883574263034,31.284876106824157,0.6254510527358581,-31.54031922701382,-64.27358184575961,-96.18774057347147,-128.01998791866896,-158.44985643283607,-187.08673952697183,-220.96917903038494,-264.5007089404882,-293.77399875797045,-261.5709792928913,-156.96106896948805,-32.24713622629937,59.79255370383719,110.63467362982095,136.65144188129727,153.83359575336135,166.31753957339484,167.86808032341122,155.17400594337767,136.69067235122276,126.09870321621015,128.3174437904987,134.35258387603244,133.58416706644826,124.63865041261381,109.17099647556186,85.6849051375343,54.47838514774911,19.936034599615713,-12.013452189933526,-40.311962629196785,-70.41124735124137,-103.16377025851976,-134.62097237979026,-164.40746030582287,-194.27025889973697,-225.07409118582558,-260.59578971412554,-294.00385238679206,-285.3935013992754,-201.34642074411636,-73.73334680600621,33.47150130970912,93.38833798794263,123.31377790254592,145.62933304049827,161.31813975773613,162.7754621159428,151.71831006639474,137.7431231216782,131.32990772907624,134.76311169430915,141.68975523653444,145.2765000234203,141.18701035363844,127.0596950691135,105.38819952142781,81.19925121527812,54.59719724680755,22.312291580910937,-14.955312190415768,-49.9273557611242,-76.26007067377178,-97.89544769156318,-123.9070549920508,-154.05653305832826,-182.28772352630878,-208.938641931091,-241.88807292899904,-283.20500839081166,-306.62139044782566,-265.05185519023536,-152.2391296669896,-24.51395289141307,66.09620484479565,113.98692142991196,140.3616003515191,160.38994732429296,170.54318477477312,163.77731738542545,146.52540989860975,133.380584754974,132.5288241846971,142.19527998425724,153.5244233757572,156.42668354093905,147.9349648064209,131.19938459543846,107.41971368738771,77.78469545537875,47.86958191579797,21.568716228044917,-5.444310817119979,-36.89188047422502,-69.33605545121371,-99.91686396779377,-127.82811531818669,-154.35089466767673,-180.69354381791757,-208.95503727583926,-247.2600527817551,-289.50104220208794,-292.91360471942505,-218.29173758893245,-92.21529311553904,19.90335020708105,86.55248060777134,118.55797769504814,134.59423281131373,142.79422007368575,142.2918844841713,129.53343936855214,109.52174834977669,97.1592383269204,101.68416960575246,115.76228648938076,122.11679508578894,112.68591064733229,93.83150212439148,71.41902005572888,47.541111507233445,22.259328556763574,-6.731001768605544,-39.91905118467697,-74.23802671525658,-105.6356489336258,-131.28642778651383,-154.7693843054301,-186.64367777158284,-225.2955262639916,-239.81233402437647,-190.10156275970107,-80.65196340804991,33.17267542073842,106.70783371147398,138.25627687857897,149.09284765023426,154.4354160921114,151.37654510675742,133.21437096521322,108.13428395272784,92.70582137570517,91.86911323006296,98.49929865582443,103.07051175730129,98.23249927977261,81.91267652470337,57.58010885605898,28.886634992268487,-4.6648476431057615,-42.51348785976754,-80.9335401410638,-117.05586744570141,-149.42360757222642,-176.85071994931639,-203.53189303285347,-240.71411741772022,-284.77327263419176,-293.333248229787,-220.35130181916108,-86.52595562689449,34.26762916646469,100.41927101018793,128.11019026661705,144.89785532021597,157.9193524456418,161.70534943432514,151.6941547304566,132.36051822527526,117.03336774457993,114.89600727647525,121.76900925452563,125.39303827774012,116.69944593844069,96.63673948546277,70.53636606771741,41.29998267281475,9.043572300718091,-27.103966141119248,-67.71988320853077,-108.61615602642391,-143.26379768789,-172.87869957850535,-207.50956569926214,-249.12936867369766,-268.77699638956847,-223.27857431303468,-112.46916456766158,9.454190039425832,93.66818212008162,134.20061757177487,149.74419964199458,155.5677741656559,154.4965762361369,143.5688398685911,124.39953176161228,61.0,116.0,82.0
-292.57041455670463,-237.3734169298416,-119.96511090040384,-1.102073409713404,78.17563225153195,119.85051612041168,142.0665032511193,158.09384582626228,168.2186971757073,165.5172224564829,149.80049963899884,132.32888282055615,125.60262026038386,130.26725575615083,135.06452346080704,131.72524418178438,120.85736040548393,103.28925022663837,77.32532685860276,44.577419987974,10.223401725694496,-20.372710494388,-48.609086907150285,-79.78027640380841,-112.49897636061833,-143.30815341765324,-172.99287251329926,-202.98258873916882,-234.66856023846077,-271.60441294049184,-298.1367097391507,-268.8320819772494,-166.00527051003658,-38.412022609195965,55.438398645318344,103.85156046918148,130.06446777593436,151.25779630247766,163.3365661970162,160.5420107683049,147.45360771275773,134.79608791374505,131.49197914283255,136.76193774284667,143.29264904768465,145.04004422506668,138.14423855117568,121.32263148075256,98.52673220926357,73.9040189573829,45.95605794733144,11.83032593836427,-25.693001912379987,-58.48678127545888,-82.54206644391165,-104.7309375623592,-132.47827752376662,-162.58165667533243,-189.88921859895717,-217.41973985203512,-253.42589415864674,-293.8738554839328,-302.9525265352015,-238.0884955528482,-113.81110241764164,6.587066233975275,83.57834644889722,122.80599542096748,146.64531619689205,164.79506820060868,170.3459699008011,159.23251097344703,141.7427280281558,131.78033542284197,134.53079770599743,145.7968844795601,155.54412844105659,155.04348754927193,143.81471071721924,125.07545593917699,99.27828466113455,68.87912140107687,39.93603510412754,14.155315766664605,-14.1491740436543,-46.349263540904,-78.42519102325309,-108.24447982065878,-135.53782032238544,-161.98090168771537,-188.3847584113288,-218.66645595078225,-260.28854798573155,-296.96453035597784,-279.6711733002588,-184.26312205097318,-55.95512799007188,43.87477402356555,98.40364160370471,124.25577429229577,137.67183781984394,143.73658925844612,139.89669415407434,123.93330481517835,104.49028327920671,96.73037447163195,105.48700855190474,119.08913561087238,120.89413839701405,107.82917222679653,87.60319398167631,64.6095240836045,40.46227828136183,14.360548860955323,-15.972620527156307,-49.903802184216694,-83.77583516708977,-113.67067742991495,-137.86719452463095,-162.72783903848148,-197.9043134897332,-233.98503547721955,-233.12419138582837,-162.7096109167341,-45.484051645590284,59.391139575864734,119.35229627758828,142.52257991066847,151.01844480239566,154.85281695209545,147.67183420485102,125.90722597561543,102.14125446974673,91.15103031224615,93.44767740033241,100.42514280357743,102.85298110013262,94.6225193865003,75.48138196021048,49.69132366879839,19.755234313895944,-15.303921512020018,-53.718127590436225,-91.68590277107788,-126.85441702301362,-157.85449474340209,-184.1872675211585,-212.77231547156603,-253.85207684273118,-293.5375660998363,-281.3645226769833,-184.96652789431585,-47.201112523025664,59.096888501833156,110.89707067113694,133.3519355549536,149.19564672919734,160.26459562893783,160.25450166388734,146.5706981989548,126.89723501300793,114.99333191985791,116.43434744325423,123.71344027247055,124.28863093236639,111.83123716220254,89.51957973443953,62.37085300972116,32.31797795250348,-0.9448726080213452,-38.43550199265577,-79.84236556738038,-119.42860455459322,-151.99606699188593,-181.88814475064225,-219.4120865994802,-259.1458118998838,-263.6090912331137,-196.23634234549044,-75.53632924345183,38.725281243915155,109.21108940891916,140.35874627848594,152.08393729649126,156.0837374099563,152.43874911443768,138.58987514585144,118.45008084157911,101.02792222760756,93.1767355135703,95.42984955479388,98.48288540628303,90.29117747945921,68.68540668588442,40.080304929654005,8.74257599982649,-26.000438641488685,-64.93013572990495,-105.78289236629348,-144.40709239422517,-176.10152977473123,-204.29036019619912,-242.76640628767498,-285.1503857684423,-285.3064042396553,-204.53134823539753,-72.13399598478534,42.70024088688641,106.79934732422953,135.5159823573374,152.17416100418473,164.8031237319255,169.90735100768438,161.28460925538815,140.91486927256904,122.69853949114486,115.81930077749142,116.85420040281623,116.89462930270558,109.52597731740485,93.87609816558786,69.6755196665439,36.84254806930851,-1.4302943244032869,-42.42121097156091,-83.69700468709938,-120.04459397884975,-149.5781397166646,-180.31669440979582,-222.17944960220225,-267.2298332166231,-277.54038591954844,-213.06196417560452,-90.66861433581725,25.66816401918654,97.44335770486256,130.09696894390038,144.42994651497617,154.0222959207017,156.0211774285114,141.25062351611683,114.39506942904276,93.67184124260737,89.33227308187031,94.23887215868314,96.2713458581211,89.22280129308871,70.48519020711569,40.34632096078074,3.3187941887688304,61.0,116.0,82.0
-292.6597535578436,-205.77677524219163,-75.93355738284185,33.734524095362026,97.80386490519199,130.4454118228837,152.58637987460105,168.11925778397546,168.64172519947033,154.1329957149653,137.65818829480037,131.30202932703074,137.28363629040908,149.2670551410231,156.64136614938465,152.73773912709729,139.1017917933751,118.34246021065663,90.72041885578376,60.12420564371262,32.33797527527721,6.485460737608885,-23.2226501666302,-55.77079402057874,-87.32043159454633,-116.34060583043944,-143.19183654728928,-169.59099838447304,-196.33825944924584,-229.48851025414424,-273.19364469881407,-299.7591589418615,-259.34249545129376,-147.38690833272034,-22.442371158090836,63.83900810675493,107.89144164275652,128.99650697340067,140.18611571258924,143.8571041699829,136.40388392406942,117.98478189061767,100.51456222691195,97.8002533296264,109.7386318714905,121.31826319827644,118.34696124223866,102.4214877793347,81.15230859988019,57.72199504751346,33.23470391797636,6.083859343428412,-25.536526458659786,-59.882229875856815,-92.97597241691246,-121.16820776469842,-144.45997890265505,-171.6811892072822,-209.46241682225858,-239.59044515574956,-220.1943526400318,-131.12687444981685,-11.58262056700798,81.56663690078322,128.84051568582618,145.66008871903642,152.68525215728386,154.32727541004581,142.61461528181044,118.4161659252424,97.33488586994949,90.76107639810515,95.41595213177021,101.95182200323043,101.70469855859328,90.0669812986405,68.50929068495948,41.49189119298744,10.165770092018223,-26.236061328531115,-64.87263714844887,-102.19535646452816,-136.31239059990176,-165.83729523817772,-191.66487376203744,-223.21376740765703,-267.18570190734584,-297.87246159970726,-261.7617014892785,-145.90098187579386,-10.919637561716483,79.02280582284416,118.9847918971079,138.2048136877806,153.13860755595536,161.65934457522476,157.58705789544427,140.89475503799082,122.14695502519811,114.1633452657739,118.4944534686258,125.05164664622619,122.02220045349716,106.13495794652042,82.02280212808826,53.9783918904344,23.070310316113137,-11.286862556742275,-50.14386455731251,-91.81171159859416,-129.58241823721738,-160.44828372589188,-191.6329005991988,-231.75655665021904,-266.24544690171194,-252.01459468721256,-164.42122210249272,-39.34448085513861,64.03371593588922,121.38019478660208,144.96693044325806,153.86354023873508,155.97960145347787,149.47553513792394,133.04703945890137,112.7483072635354,97.59813777527819,93.0089985181287,96.84283092978563,97.61549423573449,85.2103806453897,60.839447811443726,31.27131180910918,-0.8633195586000081,-36.86376353198345,-76.69278018679302,-117.39689169455663,-154.39892393167202,-184.05644877597697,-213.87854281169376,-256.0262740725185,-292.07937733253243,-270.478152108784,-168.55238310707753,-34.53700669915721,66.36921349763803,117.50668931578457,140.89329035518193,156.25981805890885,167.34517431763055,169.00813063768942,156.12421340329482,134.77514255637962,119.49555055810029,115.67543327782329,117.35468682407756,115.64956929932532,105.82860335406664,87.81472750662147,60.98893793902319,26.16903524603158,-13.054638179418207,-54.51298635148814,-94.93639088771785,-129.11953981941187,-157.77560579875032,-191.10817219590456,-235.9847020347304,-276.03367124355714,-267.2992058063292,-181.08727035371436,-53.75151181710733,51.361699170140305,110.0193414095137,135.24768557363683,147.50426557194925,155.85277002013265,153.6587250988134,134.02495113427082,106.99014412545378,90.7693313052444,90.39718349684186,95.51613199034226,95.31656559657657,85.0729849864384,62.822083312984226,30.08597085435095,-7.844797800086624,-46.42775086670721,-84.17847249549925,-120.61218918680572,-154.43622839228615,-186.89092428740213,-225.16320347444366,-268.76785523591724,-285.68426816732756,-230.44284123852628,-108.29477075811768,17.134631943442237,96.62295179305306,133.9240117328401,155.63424215645892,174.18578453706562,183.240757096858,174.79602029027893,152.55673881239744,128.28647600432188,113.84426193852744,114.25359694012208,119.97748084162691,115.10264475585817,95.17228465523061,66.5182991683337,34.46566921710519,-0.7544464055831632,-36.75197372116543,-70.69023454807699,-103.98932631155981,-138.78474897570152,-172.59948530417066,-203.1004345172865,-239.54022101403882,-286.9460935508289,-312.7654771799035,-263.24366945646875,-136.76950555775002,-1.105217866551966,86.2411707783751,128.35185750245668,154.5216575935037,175.70439283730715,185.89176011312688,180.22080844696114,160.8664506319969,140.11203416405982,131.0041033527009,134.83479203289303,141.63651156200055,139.7094167939439,123.87078529224205,97.09046125588966,65.60271780147612,32.21776102265153,-2.8844741295820717,-39.06166363930268,-74.1835305229075,-106.34208686720478,-138.1952793805168,-171.31968409788732,-202.36708420928377,61.0,116.0,82.0
