7.416759001015359,-28.141515095813762,-44.98277039660726,-46.34969273181178,-46.82988509766479,-53.13516112067365,-63.38947841289302,-73.021142276472,-80.04365595043,-86.41480019994252,-94.3136927530545,-105.64026154540375,-108.72206359387732,-80.47269042959671,-25.980932056908816,19.989126853513902,42.96620457361725,54.394965938608806,62.023199807764335,63.34120923214849,57.32745119492523,48.04712077303931,39.49696198215691,34.717794297657214,33.49618258638716,32.40658771612321,28.679215832326626,21.24990847220523,12.389079328482111,3.4824867397020336,-6.2417538390240495,-17.679225217026282,-29.396856209506783,-38.65829006218531,-48.6178962952004,-64.49029360891548,-78.19402699947287,-67.74127632221064,-25.93139706855685,22.59922150203417,52.08028173006351,61.92597280146023,64.87492293522246,65.96193643816922,60.59154937708189,47.654949504664856,34.64558507599034,29.122797837351946,29.195508037103846,26.02192183659607,16.31831293981814,5.232861981707862,-3.8639809701206778,-13.990040354144792,-27.21649071813429,-41.00255088678756,-51.12839334268444,-57.49798496532837,-65.72264062068662,-80.21052448234786,-91.47570862416269,-79.30296211274725,-38.80376776045561,8.221475973695663,39.91264028609282,55.210185146895846,61.85388131314453,62.767781897454725,59.146994204177666,51.24246892572597,40.4586402447112,32.773887209701265,31.01386268200441,28.694291983784368,20.036451940315775,7.756621962695593,-3.491637002104248,-12.962823175066879,-22.781592804915924,-35.225086578652956,-49.063709566745956,-61.18806286221024,-72.79192728070836,-88.5429481790867,-100.78055547579346,-86.71338945819627,-40.43475433108176,11.693825157235013,44.51029966096869,58.15969700598247,65.00984816628775,72.11382705662582,75.84148793313122,70.23424618852235,57.93419375304091,47.04448728287809,41.18223831187807,37.19988198524058,30.821904441206275,21.12928997836569,9.432618904684034,-2.7290053507164913,-15.166977146404262,-29.5687518088974,-44.78680391576398,-56.14614282076078,-63.9412815800578,-76.4971488973297,-96.20550506639826,-103.80070964287238,-75.94577694544917,-23.88996786118047,18.300162623157494,39.736254696702765,51.686702050581495,61.186767134304176,65.1551843182213,60.96935056132742,51.95802183328363,44.1319176694867,40.05437557910569,36.72966238742947,31.17116482065911,23.625527701707615,14.40429858484184,3.0131437385084086,-10.02822026477883,-23.825149463824566,-37.10662409137751,-48.191803275966635,-57.7142009542781,-69.45775634246026,-86.2423496120503,-99.76606569845234,-87.0220987979117,-42.09316836111721,7.535393281463283,37.74751188024345,52.141754538944525,62.19876137257315,69.06142478551705,67.84555868593334,58.98302944539284,48.43920614284139,39.90059605057643,33.534740095875556,28.943287259043057,24.627325221087304,17.541051186367547,7.597020720139438,-1.5067768697078352,-9.435680491435734,-19.59857269520823,-32.4396340347418,-44.98827518001926,-57.74879657991915,-75.76090932958918,-95.89113957763419,-99.37100742967701,-69.07243537778297,-17.66217288442987,23.55520078162946,44.16326845582822,54.85445138516387,62.81999312672497,64.76054639924693,57.88787588079916,46.77771157482491,38.658617537071514,36.34102127918843,35.60347381556927,30.998815257272796,23.231067569277247,14.952728041135043,5.111752623705315,-8.503105715447791,-24.629439191851773,-38.518994914193975,-48.006981798487615,-57.357444799317584,-71.93769773713562,-89.86591089904113,-97.48876681939161,-77.62902901799211,-33.446375217417376,9.618263012155984,37.442378469442,54.35293368169398,62.311894241006925,61.43468602279841,57.80722760756038,54.35623872104578,48.80512360345039,42.72359814703822,38.154008482041625,31.57525362500403,23.33246905502252,15.985161300311061,5.674594831826042,-8.084173297820385,-19.53271278878739,-29.960417505583276,-44.86894248729863,-60.380832737221006,-70.78624298968128,-83.77803143781178,-104.50776831197904,-111.56939351407482,-80.46978101370124,-24.13022567146196,22.264253500947323,46.13262125600521,59.769776621196826,72.6719346076424,81.71733996293209,80.22967256573662,69.85037407489963,59.841872352286174,53.62083363178669,46.22356260906111,36.57758396040392,29.464473605705006,25.29250555496625,18.07123128722737,5.347564517967134,-11.046186058887441,-28.901188127558793,-45.561609986098695,-58.58386758599282,-68.99559687381652,-83.1119692202974,-103.1160782466517,-113.85774142342925,-90.34423392024448,-35.62876747982769,13.8982477871495,38.59362572667771,50.66544724222645,62.20904016514235,70.12106403747013,68.58156749699405,59.71318483068089,51.3268676049832,46.66106421592589,41.804451818184326,34.22373118063184,25.879165151795792,18.045441297497703,9.60638990124813,-0.8306989375844483,75.0,93.0,57.0
-24.610863093241974,19.39450436151567,45.64328566289179,57.793411523985995,62.6588699044598,62.140629146006304,57.32363104860154,48.22242018634657,37.627445790113626,31.79869506256795,30.79883090312556,26.867529701380803,16.606250907756742,4.2864874367443315,-6.348262295106979,-15.638504680014355,-26.06926197189811,-39.24010353944468,-52.81416527819998,-64.37033245016472,-76.8519826411203,-93.3367849771341,-100.34106657176781,-75.94381276749358,-24.45406798881076,23.608566667586135,49.92093103934765,60.32304022154192,67.01798182348122,73.88056131511907,75.26664512485516,67.01582132219164,54.338439726185754,44.87404497171796,40.06894303116037,35.715522842051534,28.31714800355694,17.89077678530171,5.903516096781917,-6.225686631994398,-19.07787779850647,-34.07032249500014,-48.632914265125656,-58.494399656383194,-66.67113642652068,-81.86530934940427,-100.96551813449769,-99.7660888102531,-61.85611834127541,-9.536651042392792,26.291954260801017,43.61014308230297,54.70396561686211,63.1171202367302,64.7446694612999,58.59437500749385,49.34633558655526,42.622407494945236,39.211625592592085,35.3857702927612,29.152615342921074,21.15925773519364,11.33513703714862,-0.6254804911336475,-13.979680374150439,-27.793186486640646,-40.582378650846586,-50.97270567052636,-60.686414818967876,-73.81208509633902,-91.36525682549276,-99.73544800340875,-76.59512692362816,-26.688368882289904,18.56293878994705,42.91953185949643,55.21315165850311,64.72095486531056,69.69042659535506,65.83740093268216,55.8584721142223,45.71767607937261,37.86403188415571,32.04266801745782,27.803340431608706,22.966955307128256,14.825210409521807,4.74022675929102,-3.777271234568101,-12.022329994930283,-23.147739147324575,-36.19955372602905,-48.4545716724938,-62.2512174864891,-81.940220183906,-99.66241663702564,-94.24653195082858,-54.969964330613294,-3.639194777323392,31.3324732816789,47.71813793928097,57.44863776985933,64.2444153609314,63.60849532589604,54.775250431562384,43.867651872588375,37.46104700881089,36.27243842792534,34.77127646812902,28.914173236539767,20.870030679065884,12.384480956903541,1.6113489367746199,-13.09036740783793,-29.076331686843933,-41.638346611857415,-50.42437250364049,-60.91943368687331,-77.1468498160087,-93.99537277955889,-95.02211930099503,-66.428922347498,-19.767953559890195,19.188862854607493,43.20224417784728,57.65693913905099,62.783164041100534,60.37500157381563,56.8779388542972,53.018803060730896,46.91141460031613,41.34028807432788,36.60691724724386,29.1657123797017,21.186064849037425,13.523380486979084,1.8126304959052493,-11.794749723617512,-22.33758704307289,-33.75418222480855,-49.69378094356948,-63.847015126979066,-73.69347967372462,-89.3859904814948,-109.42248992190538,-106.79993912543605,-65.20659965074802,-8.469737166338996,31.16305901270539,50.45687044332547,63.50919009615322,76.02873382309038,82.52425945307968,77.77897302073114,66.54758078407122,57.80608569568696,51.822965851103476,43.490166729884365,34.07589034925588,28.17242222268754,23.76674572066053,14.904724200251739,0.8922825869716935,-16.161876460340867,-33.96371277342435,-49.7625842254985,-61.65013977439538,-72.38464507950272,-88.55752063747804,-108.3386188497053,-111.32997970563146,-76.41317217014598,-19.176172991992484,23.428323823204398,42.559477393885395,53.9568902720465,65.21848788475158,70.7315918817074,66.45760164181611,56.925475025963884,49.6906695820663,45.49191972733224,39.85984131705304,31.77451225861919,23.58829551068449,15.739059603498902,6.836754816794052,-4.280598377831953,-17.263973047102024,-31.014400857502284,-44.71993984014381,-57.88686808756642,-71.50753336549013,-87.99733514333293,-106.29290728860339,-113.46701121237824,-89.30948082453904,-35.83702848812704,13.96363237994561,40.97739465370957,56.98159675198091,71.21239135450055,78.39758335392804,75.72117424482104,67.54022358680304,58.41596069968016,50.52932562543609,44.86466298707413,40.742183597118434,35.15640099649117,24.959897953550712,11.296935815654166,-1.9289787720873,-13.347336200063415,-25.04541921914912,-38.261484905414434,-52.35682652134119,-66.10540036278583,-79.58772298381587,-95.51457543106562,-106.00908307670461,-88.31213086791621,-37.83517381244541,14.75659203675365,42.63336269705245,51.65476609771442,57.98412266717941,64.15215778719411,63.98636791162003,56.00434752364849,46.49241905205498,41.34252345126147,39.68148865758395,35.38695088810531,26.834996049072874,19.8515045741143,15.169082265206159,5.896452043738642,-9.558389237850871,-25.47370213772249,-39.11682788000354,-52.9196796335099,-70.2449096393732,-90.31334403434435,-99.83770599717646,-78.31724302359125,-29.908239229555743,12.624848229432958,33.352092056583096,43.887632062214834,75.0,93.0,57.0
8.076541052152985,-4.378802003957565,-17.973119587364224,-31.679992501329664,-43.832635783027534,-53.67966633221125,-63.95459375153493,-78.63860879870501,-95.82549401452476,-96.85719217159694,-63.710673233881884,-11.814469061687745,27.64961582390756,47.10334666060547,58.14110228412645,66.88131130999545,69.52158879270159,63.29551377176624,52.75197321619452,43.205880423871236,35.991653235444424,30.698698034399737,26.62024467414529,20.999232295025077,11.923765097987806,2.060607581863332,-6.012531142873116,-14.884035615141606,-26.87513787081187,-39.85124052773395,-52.02004645448414,-67.33925662217521,-88.06303710505023,-101.44543673268497,-86.02557549974124,-39.81230756347539,8.794490184570083,37.46312571524381,50.79600624659047,59.86094557880912,65.01343490617093,61.71868193931637,51.488081620101894,41.37525596077161,36.74772723263357,36.16684779961977,33.51995805510811,26.65666281624263,18.50103862726245,9.625827741077044,-2.253172366732529,-17.80110738229113,-33.20610094018483,-44.39359913458205,-52.9968644934467,-65.02044645234977,-82.4945466100162,-96.80404332380905,-89.88418078714393,-53.59559267202549,-6.907471007459706,27.42357350766602,48.23130631021779,60.16461633965073,62.574181588542025,59.28334642823778,55.939250994780934,51.44313982236308,45.08567906523807,40.07122321350521,34.76908324301238,26.7250133196596,19.12382171654742,10.658726065382139,-2.237265103549379,-15.162778366736664,-25.217462522393294,-38.01821006286413,-54.343394300062016,-66.82974817994227,-77.17041052862658,-95.58186930094415,-112.3726805972168,-98.44504015771152,-48.623953933605094,5.519516722554352,38.24352947285647,54.34167220499432,67.28612393170631,78.88007369514798,82.312767475452,74.7503563180973,63.527910493137,56.045251479633905,49.76851998318816,40.63923030997652,31.92282565203424,27.041734230998582,21.814538083039015,11.296216015192545,-3.8155992264122376,-21.34485519818842,-38.85687235408248,-53.60404592803243,-64.58258917137064,-76.28127082689917,-94.44677173753152,-112.20045972828379,-105.3393311276938,-60.43774034803448,-4.195729753729009,30.815271432289304,45.96746409924308,57.34086752498955,67.72532772855509,70.46061943115437,63.86830856074825,54.3872986952232,48.34931988796234,44.16934720212094,37.683494562531386,29.337963579945658,21.336325277132428,13.344188971968364,3.869497500817751,-7.891061736015027,-21.198588682747367,-35.0118685646415,-48.57581173152061,-61.678247516672066,-75.8854365094099,-93.38695578290108,-110.43574968672131,-110.34958225937162,-75.74223778344705,-19.521828684654384,23.957389608447492,45.975884841595075,61.360766062202174,74.31138286258835,78.5283832355755,73.66745495933607,64.8765126944935,55.94217268683836,48.658154993972616,43.600270284613764,39.46177839087239,32.731890128394696,21.202199380951594,7.283436627728886,-5.356259369215804,-16.593976135511152,-28.717229947633125,-42.28913192946804,-56.42559281951024,-69.91182809446059,-83.91477179561092,-99.98822326065725,-104.7168357122684,-76.23573481112433,-21.13596653886822,25.667090052530174,46.33817197588735,53.33819948702772,60.02381110410278,64.9941714786437,62.306039859525555,53.06044049188226,44.44855991820646,40.73173471600365,38.969648028699105,33.16037829632106,24.41035144311429,18.517579607101386,13.23483461016375,1.868490849802727,-14.359373078149417,-29.60181260021758,-42.92554128260842,-57.45664573054255,-76.04115506012245,-95.12585914521475,-97.38982084260732,-65.87173450130983,-15.612208994093342,20.619860257548194,36.78140218385478,46.61582360267023,54.5557684714298,56.87144188771092,52.19611746008685,43.49114834604625,36.99099478279923,34.5266633168498,31.177459997152056,24.689877692586915,16.62797853889057,6.962431004330565,-5.330745457595883,-19.267086708956207,-34.33589114764999,-50.655320158396925,-66.2710218125155,-80.45662138840812,-97.32009378193742,-109.54642288533833,-93.9540242156847,-45.431562208902875,6.922907964831127,37.77266934992192,53.498828782094755,68.00888652409198,79.52723234292014,80.71551592491275,71.35498180833396,58.88947143048524,50.04618097135928,45.27711190817722,41.996568561846644,38.17927263216361,29.71681854543325,14.07541571917412,-3.1403016631893457,-17.541291204382052,-31.907101888496285,-47.704783235650766,-62.597154215201016,-79.01905160772847,-102.2886088823238,-121.42602851515392,-108.33553140346199,-55.73289157584167,2.614827447917394,36.054131773503045,51.23553367171481,64.16862310780223,75.35437976389741,78.8016724774165,72.31322894666701,60.79610421448124,52.03011971354713,45.80242222220554,36.39878805999074,23.892511953842845,12.61853465065223,2.8117274111576513,-7.657872031300332,-19.116828724866977,-32.35900959396299,-47.03152458137225,75.0,93.0,57.0
52.58065353681565,61.82873070508191,61.86905051781898,58.25386974218113,54.89658781147329,49.66734152648835,43.422937666422506,38.78913362396882,32.63811419374975,24.37015139201619,17.01658706399273,7.344459602002907,-6.277410796223745,-18.208027198882437,-28.370851965091674,-42.6552081276107,-58.59579160855027,-69.54123452241397,-81.47953032060306,-101.81987880631993,-112.57307552361533,-86.79041844371643,-31.744722570460617,17.4721505529958,43.891594758755076,58.061346980554525,71.01251701248295,81.01995713366563,81.09905091610011,71.41503131253265,60.90747752897032,54.3941177991397,47.408883985143056,37.822241534022794,30.15637714410991,25.88676678703757,19.368702522025536,7.30263404331988,-8.727124622451454,-26.52938924256578,-43.512638080602855,-57.086877420936645,-67.55623943095503,-80.80461931724467,-100.44536366292476,-113.95533368715294,-95.8325206270505,-43.47482905441985,8.721294732020429,36.45046946401362,49.18152631160769,60.70978963920478,69.54864294219894,69.34904454903928,61.037085255024984,52.20362050109237,47.18075028036803,42.612155753706176,35.33942358227367,26.95532698492597,19.089706516776193,10.822093630857166,0.69820672042751,-11.630786859861535,-25.17295989465397,-38.987497574093524,-52.37941322017996,-65.55260458274095,-80.57246125125238,-98.83884339019247,-113.18202156404843,-104.11491402389383,-60.17820547454549,-4.502563054690794,31.975413368805327,50.537001805140854,65.61725330305825,76.61927462293804,77.86237472644962,71.30373833463237,62.21248780419466,53.61323320932452,46.9834915554454,42.43175535994946,37.957568282265925,29.869187141691373,17.235652888906177,3.40606041419132,-8.646753943902963,-19.932924247664058,-32.518243772324,-46.36741260645418,-60.425354336036584,-73.73632771854716,-88.53175558810669,-103.6125621833495,-100.4271670020965,-61.70066503297887,-5.280947233339206,34.15494181458458,48.91884589038366,55.11661845230025,61.94683141436697,65.1394575248883,60.03039864419511,50.19539139673953,42.86438782237944,40.314511249060736,37.85932174465539,30.643672366978446,22.297466948006228,17.273514814089797,10.721557679041346,-2.6016794021767606,-19.03166816780113,-33.543930789274235,-46.83542074491888,-62.36730750504754,-81.98712215381288,-98.56208948490435,-91.86450590784666,-51.70409694589618,-2.7303427805716507,26.793461449075053,39.785773866176896,49.24068576870526,55.946549036029054,56.19352448530725,49.844349011716616,41.1354435782042,36.02334171487583,33.869104495557885,29.5756602594325,22.46445195515106,14.068942721338578,3.669718481198084,-9.247668501307968,-23.48406319605333,-38.957920780476556,-55.371696994123646,-70.37114209970107,-84.95671997655965,-102.2410780766736,-108.82835039543238,-82.51216787512368,-29.05752163033062,18.31662412777075,43.05266472329225,57.59619200598003,72.01887569046755,81.12922269143509,78.8555258794147,67.68130404893898,55.818692229823675,48.36507122585678,44.2678401802098,41.06599976493136,36.45066993969897,25.82078608058621,8.92235287289257,-7.561101962704546,-21.516289264123433,-36.419223646140715,-52.15040658685557,-66.87662375404851,-85.04292067757032,-109.37212231692726,-122.0832782902899,-96.31307270359278,-37.49897435008784,15.185903425644437,41.40394491397946,54.88855512035708,67.85636326681592,77.35295452986838,77.8783347547141,69.11202279076015,57.7787585474022,50.2299257218906,43.57783473558705,32.89995474848394,20.391367966124935,9.74165277009133,-0.09836737368590243,-10.86388969419615,-22.705640491183296,-36.5702017672395,-51.082387292477904,-63.62787305394069,-77.09229136153336,-96.65049644373175,-112.7540518640891,-99.46439496961233,-50.558341895003736,2.853199245668855,33.580343203735104,46.651821937171015,57.75352681329041,70.5077367482529,77.27863402150071,71.34437734450213,58.504232780467625,47.88274554507081,40.44942735983612,34.16723651231318,27.86538075027154,19.800935422039643,10.141481356297893,-0.2802867380907514,-12.318863025927827,-27.037034061179032,-44.299717231658796,-59.36156902112919,-69.0862254307064,-81.59382685639403,-101.72516774037008,-110.64559195459877,-81.90443151637902,-25.55088313040725,20.511307045873735,44.16581312763488,60.52525346495257,73.81923952641385,75.54967133283515,67.09904503755892,57.73290577142682,49.85193640229132,40.84651787959339,32.58288425411338,28.728666722145874,26.456264136596534,20.20672171531128,10.466747538805613,-0.8360238486628737,-14.02932818187861,-27.71261755579911,-40.38496336162816,-52.61353659536186,-67.47100295743599,-86.91167843975865,-103.19639373520768,-96.40347288259909,-54.04749267300483,3.0747490120814986,40.43293293520782,51.94024659018038,55.69486554621227,61.886753184796504,64.86641855605512,57.28646130484109,75.0,93.0,57.0
-2.6683407482242214,-15.468929583635571,-29.169249318804944,-42.92302092595336,-56.1501954959595,-69.57943705370172,-85.58538213671919,-104.06609720866106,-113.94301933902983,-94.68083700855424,-43.56476842994109,8.629616344167296,38.409815133726525,54.953845758282384,69.56063309427172,78.04431810719306,76.5241188720666,68.75256966702702,59.59514905194326,51.45857144368666,45.49450508318231,41.2869385051002,36.12991223786196,26.593199690067053,13.172339481397623,-0.289715080620503,-11.866368229715956,-23.39969823072848,-36.42839861833788,-50.46813990280534,-64.33323805647223,-77.68992523594068,-93.32117083502825,-105.7306785320004,-92.88116329590993,-45.550648340526216,8.923681898089448,40.40460753062937,50.86086543643069,57.05129088149851,63.562782729246116,64.52492925813527,57.33360340799951,47.57875388582911,41.73013864689007,39.91347837713032,36.27600235131366,28.022905724703584,20.54653243014688,15.90392987832153,7.564732053169621,-7.337054059030735,-23.494964418526205,-37.369410985242396,-50.938561074942946,-67.67295908453592,-87.7944101013593,-100.00484129779798,-83.25080229446671,-36.77278713868801,8.255844569095377,31.5294913013128,42.610606589450796,51.65795973800756,56.766982054154525,54.93821019169495,47.27384758419595,39.135311409776946,35.34052247004472,32.98829538233371,27.72378107494014,20.15496305979894,11.340377123414289,0.1483920857271307,-13.26035280483985,-27.8051230801281,-43.68074449447517,-59.94675724935798,-74.3926744237194,-89.81931805573406,-106.36313319245912,-105.14333919015297,-68.57508626580272,-13.337813664742711,27.583887243197115,47.52565443553336,61.81045946795658,75.57937398369968,81.71641772541527,76.20895335620541,63.976714143657674,53.16521517879215,46.96801001630669,43.32500992151086,40.045923392337116,34.19010818573809,21.335114293563468,3.848998191919814,-11.723008650797578,-25.608595372652584,-41.01836351211607,-56.45622204262153,-71.43510172463722,-91.7450107934031,-115.58286697157467,-119.28124096986498,-81.24604987702847,-19.94667138654543,25.2700717922185,45.73751654773898,58.62062370907816,71.25778044071261,78.56925279352335,76.12424254397213,65.69399572188078,55.15760582932993,48.51895803593239,40.95282619123419,29.239601433967742,17.088416512186615,6.9345255919773825,-3.1051364441649487,-14.142540790108802,-26.485011728744155,-40.85147598896899,-54.923714211317716,-67.12659561103293,-82.09687210791132,-102.6875440292197,-112.97822829279532,-88.1355254126828,-33.84161107365876,14.39553224926831,38.38207753726944,49.614353686028174,61.46403877154668,73.540620918925,76.8635623592058,67.83752013776942,55.008109020971965,45.51759894138843,38.56697818053754,32.42098421573217,25.768916734507386,17.105800071166197,7.224807564845004,-3.5398012003846118,-16.25602858419199,-31.866897470446386,-49.18189942274717,-62.561620462167184,-71.89776702621955,-86.94882286094973,-106.86219965138851,-106.74265676075426,-66.81748702634869,-9.836842335829669,29.15640855536819,49.00706118914277,65.04607413000213,75.74171616581823,73.7428392460856,64.18069913063755,55.42976940780648,47.403125439557506,38.16806426000182,30.98482311644478,28.206357476482605,25.172176595815124,17.605496471939222,7.368948842139456,-4.465781394535584,-18.035817810784874,-31.491174209193684,-43.87880255355531,-56.45663895462224,-72.70584692965627,-92.64411733081207,-104.59718351762798,-87.60009538878502,-37.36277775334066,16.914078509468766,45.77297205742857,53.013103025967666,57.272332299786044,63.51600358182328,63.86210610553736,53.33922669205225,39.36021026941832,33.09335763545897,33.88978308159743,32.39109084295655,25.789481270638113,17.400787285232646,8.330771875997705,-1.9693992286675845,-15.061843856854319,-32.30186215184044,-48.79403144979082,-60.23004268817917,-71.63114336381054,-90.7115245782859,-109.37632637751163,-99.88254459538636,-51.706971440997904,4.819556271837213,40.845280540430004,58.98260271336789,69.27098633898851,73.47597307762068,71.20632768970283,62.454663654062585,50.22988641941506,41.398803356539666,37.38520612010457,32.258426114140114,23.198337800505,13.563824844365376,5.888347302693492,-2.350912683758856,-13.64823544711428,-27.932990967413282,-45.88857145807574,-64.84962346691476,-80.59498140894901,-96.68299898670088,-114.79779663602444,-116.2875892070684,-79.42097954573758,-17.59969731813523,31.589709744256883,54.23603320874841,66.01749106018703,78.66139908722239,86.52991310432557,83.2921641655159,72.68031491173925,60.42639874133522,49.82358890759518,41.595779078887794,34.507180095997995,27.5795112220028,19.471918956680078,8.23346656056628,-5.989889437153009,-20.353176923835825,-33.46910851435477,-46.14284754644953,-59.79134808976379,-75.76874331366922,75.0,93.0,57.0
45.36631215927884,53.74126067069432,56.98026658812999,53.16415394007089,44.66014521281308,37.56681496720821,34.78554783303739,31.818977969245523,25.680341705658922,17.763738950873428,8.398647977100211,-3.565774469164098,-17.353160429360198,-32.245934473483516,-48.455758445060944,-64.32352689356858,-78.49267528350173,-94.94365295485436,-109.01313447481046,-98.22785215599392,-52.94560594811556,0.9606654333471635,34.9287648501848,51.6343542303085,66.07245539393132,78.47135175563311,81.26337411533952,72.97842038943415,60.42977172660128,50.938340136353084,45.77658985542207,42.414645334553676,38.83636402894185,31.28694623314053,16.424965937506407,-1.0013984983565565,-15.72041711816122,-29.877310902538188,-45.612528370481265,-60.66292703293169,-76.48034605494662,-98.92379447894258,-120.12304932883008,-112.67339312742969,-64.06091142513621,-4.006628090271441,33.092004021792484,49.54862267391229,62.42106840045449,74.1978084726361,78.93188551436836,73.65049882433092,62.29676984611564,52.93809440453594,46.713447240776844,37.91942927886968,25.560327737354694,13.988305567279433,4.1248144021089255,-6.20310949850069,-17.517517275382318,-30.463618172973312,-45.10596855591161,-58.55590040377868,-70.85306407837895,-87.71700438198363,-107.96309572905994,-110.0299836195082,-74.09801979414057,-17.789652399677713,23.682714307270558,42.12754950596743,52.73437329177939,65.25517147373344,75.80557200292893,75.31188843444222,64.03467552050515,51.857990924775265,43.35910390249557,36.74694682737385,30.64185157096436,23.478961312586403,14.31755029120204,4.244990671135755,-6.964879581230245,-20.441566415611753,-36.886344923928775,-53.69670426504151,-65.32962040197467,-75.2600580876833,-92.90722977071513,-110.31751285814946,-99.15713845766476,-50.212269766517544,4.080307236495544,36.08290672386224,53.697463981332156,69.15919187200099,76.4915581350624,71.28273401078343,61.4078631468058,53.197310752447315,44.80538716412519,35.66493069066086,29.817093827793375,27.659763025629662,23.449652252024304,14.80059012878752,4.148647115177116,-8.26396487024134,-22.020120886924875,-35.16994350133798,-47.36566872666419,-60.626781188583735,-78.32904807292634,-97.79747397222029,-103.47246275115275,-75.74679461556615,-20.336997237335343,28.353440577264475,49.209985404355805,53.959743378847506,59.107729584748746,64.62920628607323,61.852331882199884,49.07033801218544,36.48688810111941,32.989881750646596,34.0287356229223,30.875715739965536,23.436979179103023,14.868734199175337,5.511443182252921,-5.34159733412807,-19.703253197347355,-37.46782946522898,-52.580293925342865,-63.103572604468695,-76.24314841920504,-97.16772038641001,-110.76341561391897,-89.21746029321126,-34.40596540603167,17.72541523012105,47.34207858567778,62.557884899302636,71.14077219323335,73.49114063459473,69.31570909720078,58.99447839834823,47.0748652516875,39.94218191486149,36.28723540602546,29.971299993990744,20.274020193661848,11.173131411384135,3.7457350339946407,-5.296072447576549,-17.446238421885763,-32.748302378793134,-51.51796040068076,-69.74820277645284,-84.89037649830809,-102.09228069358662,-118.21962109633213,-109.84180869897388,-62.49539237655513,-0.7076970987681181,40.468348464272545,57.889642204717056,69.57997694668343,81.8823830574691,86.72564756697744,80.68550256836701,69.12389522073404,57.100782386173236,47.249028401520114,39.47940085244833,32.53269741952668,25.44225906403517,16.612900570701278,4.324874481905656,-10.246186423887108,-24.256476632194282,-37.12077289603455,-49.919057450806235,-64.11386265531144,-81.01186229444988,-101.35505842425188,-117.93174429662493,-109.24168004240114,-63.68091408823379,-5.200472952689623,35.66976444521333,55.6777336704381,67.67606344931386,77.8784916390143,81.69566631856065,74.88313036769092,61.764756699147874,50.11193523789904,42.9870696496954,38.052412115991274,32.309814780873396,24.844554054588375,15.123895215346526,3.1747680968252325,-10.030086628039747,-24.089599318787748,-38.83329450411878,-54.02351952444642,-67.89726194071471,-80.60523420654211,-98.72572538395113,-120.3798813763428,-119.35851758908386,-74.79934827181813,-11.032679273041696,31.642078999662374,48.959116927418236,61.16676221846426,72.86230076192888,75.91657063384686,69.143357040455,58.265992825049224,49.858649752484865,45.98024244058739,44.07459168131114,40.411829239861596,32.242999705226936,21.038607663627644,8.973458880244797,-3.6545821219834114,-16.04066951493215,-28.32362244289936,-40.920777221205505,-53.251826416968726,-65.94026698970764,-82.65196414126079,-103.4795136440602,-110.71190258035574,-79.73157565280339,-20.73983022491784,27.601374148376525,49.57145968063494,60.05429951224416,70.28683867799306,74.29594626142334,67.29090946675548,56.069803962788406,75.0,93.0,57.0
-49.23875702079726,-62.04003143688207,-74.99659407205924,-93.78971208496678,-111.73480639496667,-103.60193847943476,-58.21838689856761,-3.211603884980165,30.876438495090955,45.28374484960486,56.10977478753552,68.92499610773368,77.07360221138973,72.77746533516967,60.212023215136554,49.06294917103337,41.34365277323529,34.97409047686158,28.77310603898634,20.999750878542553,11.469896774934242,1.174568391623583,-10.580921116959512,-24.89368155914812,-41.97527325863537,-57.703986664636325,-67.89219216095204,-79.39724812889726,-99.0244629647894,-111.25851603132892,-88.05771304965755,-33.21765808448718,15.836446037456804,41.79570424965192,58.37905914167081,72.5638535579015,76.08858990373398,68.4537784589273,58.84554755395153,50.931716126762026,42.10329303899743,33.465901076658255,29.011964688457862,26.91101715922897,21.312183765077773,11.859239577655142,0.7767029215172105,-12.191318775637436,-25.937043838483195,-38.75710813199832,-50.92276738393875,-65.20766090494678,-84.19261789463879,-101.85508022377824,-99.37222161059937,-61.34229065789206,-3.9847824709047726,37.20342316971707,51.286023988792884,55.07753570000651,61.03225986924646,64.99756923060875,58.91001630627075,44.82706159777185,34.48304476150297,33.29613159685279,33.7378153420411,28.985839957864407,21.01655124826853,12.27311922991592,2.578934046957477,-9.013149054697243,-24.689595740816294,-42.37707332292577,-55.91056163713137,-66.19759045007545,-81.65619317772145,-103.14177765162886,-108.98755503775192,-75.48363046804398,-17.488640079802042,28.52893239861989,52.67495730965132,65.63665711007094,72.4831694502654,72.96479740664235,66.87931673880047,55.37727990948188,44.38446145449211,38.81593606010191,34.91783164057938,27.365395556372032,17.424674443395105,8.96041638480146,1.4469659153618908,-8.512599958696642,-21.493212765324085,-37.89525422343364,-57.09742317162606,-74.3110480993025,-89.4101111502285,-107.5916612017395,-119.54480319011562,-99.82356147736488,-44.281008903020194,14.193643878397367,47.21018478969861,61.17500717706482,73.30860848908037,84.43083071799663,85.94201499256133,77.63286114000081,65.54217825645617,53.97728367000011,44.854901080664206,37.42767474493943,30.550501521224096,23.165947740851678,13.440518177811715,0.21158089224043816,-14.434106300419241,-28.055240977429477,-40.76352502162868,-53.815630950893365,-68.65804319777372,-86.58675759566381,-107.26723228205486,-119.08297565191084,-99.45650680177432,-46.431756942898396,9.134998047760456,43.08675073210665,59.44568220789318,70.86997162339651,79.95237415734655,80.7916228366048,71.37578791873199,57.97959401042822,47.62538417552238,41.49903706330123,36.551768513982886,30.34354288361979,22.29633854566688,11.855778457890562,-0.5388222042212992,-14.016450598607777,-28.277580700882034,-43.217794408573596,-58.272950687617026,-71.48784875204825,-84.97725526468962,-105.3458339733477,-123.93275283994882,-110.80910882924942,-56.28598154730935,4.540432851113188,38.39315717665238,52.33130614704206,64.94679713136475,74.88726153765695,74.78473883199254,66.10156712147266,55.37016266376368,48.33741172321784,45.381735731918184,43.37136881829482,38.5360186632612,29.170516712115862,17.624041487465455,5.352014215816726,-7.281015553869037,-19.564887822400028,-31.944445370577984,-44.535663843291886,-56.76985095696327,-70.16305585179428,-88.59657707052635,-108.26512629640794,-106.18178079196778,-63.93867613629493,-4.215073801586815,36.337007718947675,52.91435420746511,63.08008269882163,72.50418958921233,73.28794914331866,64.0254090572577,53.29027560950545,45.91276828220047,39.49995799469088,33.154362759408734,28.946438445133843,23.737104541027566,13.373150774547623,0.9848532943090134,-11.354851051070534,-26.607364543195533,-42.30469976905982,-51.95589082825224,-58.48282148347141,-72.81348236952601,-96.25749799654665,-110.27992469008768,-89.88180589457339,-34.81379764790773,21.86286616443146,52.679162540409365,63.09767279832764,69.86926098087537,73.66606237225143,69.02477690425785,58.36333850518417,47.3289082402282,40.04305403534188,36.40630665872739,30.714261012649125,19.425051106487235,6.94205578168524,-2.846722429601662,-12.145776774015957,-24.752147651539126,-41.93962675215172,-59.251941909524334,-71.81044711122921,-83.8955083382902,-100.09582381925397,-109.23686507639071,-88.10270589817628,-34.418511275011475,20.624661378665124,52.43910338400937,66.77061797849802,76.51669238230762,82.87743396058015,79.54131911592093,66.4571682939779,52.67515532075823,43.68907264001177,38.05245046939818,31.97530835671488,23.49538738723372,14.171314601802955,3.880556580756934,-9.369005560222345,-24.754759074332405,-40.599093582588786,-55.57980736266362,-67.12851821947045,-75.91803997852418,-89.34422340236061,75.0,93.0,57.0
55.21913175256337,40.94658422937826,33.35091748764347,33.72631262151203,32.93451444785545,26.837776419427758,18.551398479030798,9.596254125758254,-0.49320923303565134,-13.05838749778213,-29.885647848526897,-46.88018003541817,-58.90854986678405,-69.76570090583172,-87.75199568287746,-107.85769576845928,-103.61072552395875,-59.526128480309424,-1.815926839033113,37.36041892267314,57.14740830459389,68.2370803956205,73.28722309303275,71.88957605151356,63.947460277950434,51.80525227504786,42.22150967533928,37.83889428958856,33.18730453824192,24.540816575452908,14.735784455972459,6.852624901075444,-1.088924888205224,-11.974696769651011,-25.827178953691313,-43.320859987282425,-62.47304207841702,-78.63580107315897,-94.29572136490809,-112.72500123755289,-118.06784360175438,-86.5085986237692,-25.865659614170266,26.682116442936046,52.29649222225798,64.45052992117814,77.02348858391034,86.09585500383521,84.29664912156228,74.28639884812445,62.01471993437987,51.08158297282992,42.59945599825815,35.421769405730025,28.53183566041329,20.69379246844655,9.946694810960969,-4.021843929209727,-18.513526520418843,-31.774014422460176,-44.43213932681204,-57.86510677559639,-73.45847653301544,-92.46764214236005,-112.55088573253995,-117.46246327894808,-86.60369469520163,-29.04405267312023,21.441928831117682,48.98790111785715,62.88585012039771,73.93352375812822,81.3040370696653,78.96526795044764,67.53379987903938,54.495007034622425,45.520411701413735,40.102694459430744,34.92865114876432,28.22951300285838,19.539115415496195,8.421547718720147,-4.3376247408481206,-18.06784918418427,-32.52265942747556,-47.6287450020448,-62.34145753042879,-75.04684441409073,-90.02777733108567,-112.0136588936862,-124.69647423700097,-98.42780427278063,-37.27155696683423,17.523711258154755,43.410583334471184,55.77921202152408,68.53248877082288,75.99529447862771,72.9095423994481,62.890447140598326,52.826836927697926,47.17803596517615,44.865376854394334,42.42127605210021,36.244630830441444,25.931133768743265,14.155822530349033,1.693700762495315,-10.865872404125225,-23.100731019860802,-35.5913014300712,-48.106047590761996,-60.359069273423664,-74.84710009344539,-94.80438655250111,-111.23425927134261,-97.95412862672174,-46.578862158130754,10.439794002519443,42.90236583555324,55.84078396481941,66.15095810727328,73.93890038539215,71.35713390879187,60.675907120351276,50.84972566635049,44.09868082424157,37.56276192383904,31.70686809691935,27.835642962330432,21.25560098035239,9.776530661785158,-2.4805901504917722,-15.38278527151317,-31.433449816746776,-45.84244405228459,-53.70982264549684,-61.41383284036181,-79.11467468530904,-102.48762746989414,-108.68332507060956,-76.49319041039703,-16.86334217745734,33.7907059399574,56.90438188242223,65.04212479686102,71.60665163537001,73.23410032107648,66.3103180388449,54.984075910084755,44.73200069739354,38.78924414174905,35.27239867945621,27.9552436230977,15.654863670532741,3.8418443107714513,-5.400110817867802,-15.314877387399733,-29.321838108371274,-47.253629236795426,-63.36413827431201,-74.99165994905313,-88.2543720293981,-104.4614857639414,-107.07319880504531,-74.985666707789,-17.007394793019543,32.42832171471783,57.67122156523627,69.75216812976508,78.94679895010697,83.14677337735097,76.44084295264578,62.13944058474265,49.56191565582488,41.87156024238616,36.50344390061477,29.744002811830672,20.811561395436094,11.403509864096595,0.3832891533827324,-13.689593014569889,-29.32893416227104,-45.11417937257687,-59.36641521002035,-69.72907935406995,-78.91528514570534,-95.0932001017327,-117.39928624191076,-119.36935019177432,-74.44108546532779,-6.715576688823483,37.94707350067962,56.40490677677741,70.36744606279785,85.0661878992871,92.23740196636759,87.62918510813174,76.17276114537897,65.16065067005111,57.33752132309729,51.771736427534115,44.37171086282394,32.87221252042122,19.971537619456345,6.572164385061627,-8.776178000565528,-23.93964556829333,-37.04699567698952,-51.64976608486945,-69.59419370236317,-87.80652406716902,-107.09051056929013,-126.33481466156228,-124.94323453402733,-82.57430029936401,-19.280641547890806,26.166541464906402,46.52210845828637,57.35911387393551,68.24419359173655,75.9278450578979,73.61995647605521,62.10901073680282,50.263117266689505,44.641511780312236,41.9631048064266,35.67954113700688,25.340098282968945,14.174992288222143,3.5401109972980516,-6.580328160673829,-17.881755022517602,-32.39421022135106,-49.41471717736039,-64.3525664932159,-77.56055943248856,-97.13798422797461,-115.85204404214335,-103.12375677527926,-48.077103912049104,13.676930756605545,48.34725847722414,62.2582354947545,74.2562366133785,84.10670069004863,81.65218221962857,68.63713657257928,57.097874097083476,51.58666828112575,75.0,93.0,57.0
-78.55390427569655,-98.54513755858744,-116.63342543390334,-112.62105815909803,-71.31536689226482,-12.41151800707634,31.643836351511364,53.75633077536439,66.18066607261528,76.72920453064884,81.78898853824106,76.32736304673281,63.5740935555425,51.39825506850974,43.7299448617318,38.71174923521722,33.16852714120026,25.953686629108947,16.565706025839404,4.855437350709706,-8.216234590110618,-22.176962037535702,-36.8283180054391,-52.021464164448545,-66.19219900926802,-78.77014765456914,-95.82486322494232,-118.04486313938514,-121.94405202725436,-82.822973578882,-18.954235925526632,27.781255259797867,47.34285736177748,59.42913349409475,71.65067519696022,76.15343545857922,70.43835904226084,59.69078948522298,50.69695627086719,46.30727296934617,44.34323990043862,41.135804098143616,33.57841958457182,22.596346297766427,10.623979749102505,-1.9709718064375492,-14.413470731122734,-26.666693886757365,-39.242710997839076,-51.63386584553746,-64.11769697211624,-80.06511677026417,-100.87888370111985,-111.60490658395193,-86.19692680249128,-28.784367172727542,22.759080384465975,47.75769737893535,58.70236599437042,69.06645480910183,74.41937940722394,68.69526571348246,57.46248171541468,48.70330431579682,42.269821857929415,35.666895760213414,30.488770013547423,26.474117186204094,18.305496991787592,6.157232470285137,-5.9710026256420505,-19.74451034588622,-36.12642965985789,-48.741434315079246,-55.41423666127341,-65.28682202529421,-86.02835321877046,-107.29211151882721,-103.63747211074016,-60.60565416353364,0.18682674266287969,43.17145403842685,59.89164573710739,67.0052066599978,72.91528751084711,72.02406887740044,63.22712400865066,51.708118138638724,42.52767079107219,37.779434173101905,33.78070879452421,24.721262732809688,11.959890243555947,0.9964767652544264,-8.013172862779966,-18.84523808988264,-34.26896325753212,-52.39577187040175,-67.02049418574978,-78.34235761852243,-92.99648671914841,-107.75282897509544,-101.77933451045875,-59.4916594436201,-0.4790264880951194,42.00463568140532,61.83493886101925,72.5883551903572,80.99072562105547,82.42761147661844,72.6570780092162,58.023710583784364,46.89224853557828,40.25676190102474,34.81612443596202,27.305957773034017,18.118798741853077,8.503546490313687,-3.39725904994297,-18.13417972302033,-33.915465561717006,-49.515550829232424,-62.79024415834201,-72.1824022629056,-82.54393630564961,-101.55926252186934,-121.75239830822781,-111.30851749768017,-54.85783497872558,9.711155737717268,44.98480770003538,60.2171403924891,74.83504457550423,88.27234868670614,92.05186591748513,84.6504416856779,72.72907503707154,62.55835163784423,55.62373602257705,50.03566496953734,41.40052307112051,29.15818869172121,16.228638693082708,2.3339498979864466,-13.350749680985114,-27.86423497404079,-40.90502065672274,-56.59566728011763,-74.92875412408623,-93.0943013955556,-113.1441651444027,-129.37749422821483,-116.95331724111227,-64.5106542376206,-3.2199590985260844,34.05033854137166,49.95017367560182,60.439179785332584,71.14543989626017,76.45467246973581,70.93822332746615,58.27702539557897,47.95997755127765,43.903196900292315,40.684401808448854,32.962959029503985,22.094147748652123,11.031052277210716,0.5996896048251921,-9.61255432393399,-21.69816512227003,-37.20700522070559,-54.145552644383,-68.01564208795341,-82.33855427845675,-103.73660968902306,-116.77471029219984,-90.69357402391596,-28.79403282433876,26.91858760855689,53.48826784021796,65.5011662928038,77.81202007722942,84.92055814534424,78.48712148076916,64.6787201323144,55.05876782236009,50.23954711171785,43.132765314603986,32.97931808400828,22.924924313875945,13.27957138489995,2.4102247142034674,-10.789693106542808,-24.580657103328733,-36.379876500482965,-48.08558464797074,-63.33584775080007,-82.11926684806754,-103.02799210864939,-115.39208874177359,-94.93813404784846,-37.75306261786744,21.234763992780373,50.76875279212857,58.01879422128397,62.85641475021506,66.61235875031662,62.40054280500015,51.648669319693596,40.93577995004921,33.6566722185718,29.688350659033475,27.24807647447235,21.223956243649063,9.607143375609645,-2.4332831593888273,-14.582730639663215,-31.56179458313158,-49.06577497655182,-59.602463194354065,-68.51519557989344,-87.91278166272417,-113.07192415517396,-114.09216042358126,-71.40723569778183,-9.384198771512658,34.060914434454304,55.970780327751875,72.06675102064392,83.82480968863604,87.35295454748429,83.2796618257605,72.12659954163138,58.137285988069294,49.17208366266333,46.299611691771545,41.85016871232771,30.87850015353229,16.206894802214876,0.941613249211467,-13.642285120422402,-25.737919352352925,-36.950503963356624,-51.414195823264386,-70.0936978254477,-91.08754436281318,-113.74963449642573,-129.27493914447695,-112.47478247402022,75.0,93.0,57.0
54.5291402470063,46.76459835049926,40.38644143000969,33.90157841998437,29.42378091022611,24.7115766356831,14.987817439520734,2.5986386677098907,-9.601568683959902,-24.39721776228808,-40.47053433232729,-51.05058280789245,-57.39083800617299,-70.203385526528,-93.10053325084822,-109.95688408849973,-95.0170347528474,-43.125633225835536,15.52903900396997,50.1620687229334,62.16693696512676,68.98496123660493,73.59934387432081,70.11098014428877,59.92244854036065,48.64421269529351,40.7357739062182,36.85486542082879,31.805932065494726,21.143608973192407,8.46513638331472,-1.66015126663231,-10.787136242395839,-22.788257944372997,-39.48607569949293,-57.19174161592075,-70.34150518880281,-82.04118953688145,-97.89102150266756,-109.29793001988193,-93.16609862011012,-42.49033258539084,14.432658550415844,49.55046478635695,65.31235723631693,75.31234747423687,82.45378885126023,80.67930575426745,68.45667152634108,54.26386764289332,44.62061691298888,38.744245823076405,32.92537314303326,24.71901893651526,15.422988298468717,5.398027860981152,-7.434438018425061,-22.6548521033969,-38.49635935510492,-53.725964059749145,-65.83903203371223,-74.68434015330685,-86.9903730174157,-108.3376008722832,-123.45665678031565,-98.94477798983941,-34.61409000480856,23.287684505782103,50.30956359340677,64.15310300200663,79.24726030954668,90.61729863231555,90.86893732800144,81.3032081204351,69.46937124570056,60.2417118120927,54.05026532772774,48.01043467151035,38.0984684014753,25.419128705558954,12.412524985220113,-2.0947926785641022,-17.803626857583314,-31.623230104648727,-45.02356708460521,-61.791422248427,-80.19269205619689,-98.58123400399082,-119.05688435442723,-129.94802061885423,-105.25840298833288,-45.70728754298908,10.533434039821381,40.079305040415264,53.01214707770112,63.62086867321263,73.59156778378812,76.00782669576998,67.6138630723573,54.68364902943292,46.2549550793123,43.23076702609801,38.972279488069084,29.977471542543302,18.85193640705526,7.942074979517291,-2.305618682278403,-12.806208219314836,-25.822366727744154,-42.17237221400918,-58.55247148755916,-71.66765525520977,-87.87942616605294,-109.79346342751802,-114.1647869076704,-74.94623871969175,-10.204056216906286,37.42674171742853,57.438647426959946,68.93960082751126,80.9492673090755,84.47970753145462,74.66673097931817,61.1609137128998,53.48447872675842,48.636245275525084,40.34956328750888,29.98996518624192,20.150031098289386,10.350147330603958,-1.1799807170768664,-14.86018477529537,-28.222336291047753,-39.56788126816652,-52.06215756619896,-68.44926488270549,-88.08342989179489,-108.44478475500273,-113.81174512740577,-81.2050798190001,-18.92245154689849,33.19042258434687,54.10067026409043,59.19992738951307,64.41877528158373,66.34618915670575,59.68350395096434,48.298304868287644,38.4543203532745,32.20256355116172,28.993694509631464,26.12616687653649,18.284001083195303,5.952055304975602,-5.685946235109552,-18.943427597287517,-37.01434815314821,-52.89013735661987,-61.76354894017231,-72.7148412590566,-95.57398464508975,-117.36795678545383,-106.02456070966782,-53.495226441203584,6.025787388635332,41.8304655080645,60.826641111096095,76.16321063644618,85.71092047489886,86.91799909983573,80.7335076478583,68.01363016950513,54.77576290062131,47.955807037404625,45.55999433755913,39.32958148062288,26.81632305768582,11.807014522724257,-3.4289024185451944,-17.423585343866023,-28.875295245822386,-40.6650430956388,-56.44746193234369,-75.98275749155515,-97.52001287214952,-119.88107268285157,-128.86988162056238,-99.30957533605955,-36.647173284188305,19.20611677221823,48.82847107852621,63.51456162066075,73.97316760731374,80.16878837678094,78.4091825726489,68.19857843254594,55.21627689350172,46.349620586723425,40.22095769431674,32.16117410105228,22.972825117069107,13.69691760665247,3.6860040388723707,-8.978892178485774,-24.138798226471923,-39.57584836535055,-55.345085984604104,-70.61112883536362,-86.30308859037459,-106.84602859826973,-123.32896859281772,-107.68272510289017,-52.00427700113813,9.414760687589315,45.27052789546995,59.711099452952496,67.95319410941353,75.79200445265174,80.43823628479724,77.20920658155296,66.06662556139067,53.5444769739142,45.59588763881056,41.793388319197874,37.69233428817308,28.92998365058098,16.137155197635742,2.6985610219137035,-10.01748469154566,-22.999563847650414,-37.61994303590524,-53.68117816830278,-70.56138775263298,-89.97011002322468,-113.29704721459738,-124.5315494785778,-96.17521801713909,-34.87833081191176,18.488528401711367,45.00068546905557,58.097217885857795,68.75902614080876,73.1064222269952,67.50220545980791,58.46004430817284,52.09975311525637,45.52304430677417,35.90999885069553,26.20384686416707,18.924412063266377,75.0,93.0,57.0
-92.3381859468575,-114.77713465912205,-121.60759373749187,-82.84656083274567,-15.117804612292407,33.942071563911554,54.602885844524394,68.3502025968587,83.34967632737559,91.9684816879179,88.81775101518461,77.79483812087125,66.45685824220573,58.196871077616976,52.50833651499576,45.612235187447794,34.55735528598344,21.689073094157397,8.457442767844544,-6.655149631670084,-22.056495625428987,-35.323673424887055,-49.47763988068974,-67.12285318463117,-85.40244338316947,-104.34453456117663,-124.31535505384511,-127.35053516582558,-90.32646584515334,-27.327985352121942,21.79300938886723,44.72054435498262,55.97668293104668,66.81242947963786,75.37669151925286,74.58522543244592,63.88821512023631,51.53010301996886,45.06088497461475,42.42599635711719,36.81404519674502,26.82481345832558,15.641002893621483,4.914600522512633,-5.2187725072307405,-16.220091554284963,-30.254541980377958,-47.154911173132284,-62.59635907749539,-75.58648274842687,-94.11052473559693,-114.44266047544747,-107.55249426691347,-56.866449950317055,6.67577730137074,45.40309904244707,60.785096298699585,72.5647216045449,83.33844496213116,82.80253375991848,70.54332827863621,58.23466848155752,52.16972946504004,46.671492956235376,37.39490230512069,27.067866173458494,17.386750503774163,7.267639302903083,-4.973109001613947,-18.903126840070133,-31.650094503219144,-42.85807014165906,-56.39643924807144,-73.82314699595588,-94.20659409091472,-112.70539566024236,-108.81715723590273,-64.73132023773829,-1.1021175992986125,42.24666055620288,56.13383115947686,60.55876901366104,65.7034965211976,65.2856753725177,56.55865552218234,45.114322063324536,36.286412127153284,31.011103573452772,28.360232152094582,24.540838014357732,14.920761132302207,2.4296560021137936,-9.06135594177389,-23.802632479620804,-42.26808937353483,-56.0135126133026,-64.08174385317093,-78.07752805588073,-103.31792732791682,-118.72014679907767,-94.17355063221343,-35.03164695669588,19.12903910588669,48.181373638402555,65.51854342547394,79.75591065338682,86.87050692320418,85.88434562783969,77.59313156866756,63.84621944381698,52.01903322471756,47.163014683847614,44.446494372435716,36.23511826770684,22.56970046169466,7.391515701600045,-7.703311392893609,-20.95421366022076,-32.035794756620625,-44.744529389990845,-61.80919013069987,-82.01074722770541,-104.11522465491457,-125.02262580996535,-125.01238462179398,-83.07774729082475,-18.147045570399587,30.26670657417224,53.910266836907795,66.81389599179866,76.3646987355405,80.60553361849739,76.19301627768769,64.35459539842533,52.09588977303231,44.571459473088346,38.14714083595428,29.525556675019967,20.312280113684338,10.942309652480073,0.3824126094859778,-13.225759378874844,-28.59700745577164,-44.09855897209437,-59.8629840004397,-74.90787652503431,-91.66582108824653,-113.095189226164,-123.28880493301692,-94.81354965121568,-32.85846304761642,22.810390408598174,50.88141526084727,62.25884322907677,70.27012985091672,77.69708556678758,80.45058173460764,74.61145489309921,62.2245344711957,50.68149231827492,44.22172082904027,40.880788272596384,35.728223985439925,25.490282763530466,12.208229224509866,-1.0429540512585425,-13.660905260397918,-27.032876308281153,-42.15414839352553,-58.46671499830404,-75.7419074970232,-96.52289216180277,-119.11733353686118,-121.12438555152767,-80.24365927412717,-16.977015649792776,28.64533696306639,49.36538668378077,61.3974322171491,70.99360846034747,72.39093783532721,64.8154798904362,56.33459899964601,50.46029280996815,43.00398144837509,32.93640900043063,23.830294581829435,17.257869537846332,11.79240282826075,2.794343788805636,-12.186598252941277,-29.021887707210833,-43.5692436923709,-57.54248234973531,-76.29821625145615,-98.80056048408066,-110.78699424654042,-92.01708471705813,-41.73427902926916,10.144325681587937,40.84545986704711,56.84370393151069,69.20650719149941,76.61588332296569,73.75309600510472,61.28980561622758,47.16933862129562,39.81169801405425,38.391960729319734,34.44028386193914,23.39349662241416,9.881372812722987,-2.274960474532799,-14.505271026926206,-29.119048664757,-44.54511158291413,-57.9538484355179,-71.74295417856253,-91.36252229073685,-111.1700760041332,-107.64511479588576,-63.8298452778969,-2.8617060996800063,37.39728129913623,55.02371869637213,67.64238697218909,76.94058952215617,77.79622032499861,71.25535971325135,59.45060253897028,47.30895760752915,41.78075626214267,39.93413975099987,32.18642072010693,17.323839076005672,1.584146590436055,-11.100886278206119,-22.897681377157273,-37.76204255846615,-55.23233898265312,-72.07196686078763,-89.46985526364838,-110.90716947654695,-128.65240964168473,-118.28883150836437,-68.3149360785866,-7.18474465922817,33.74215779712921,56.8489652096777,75.09656241400934,75.0,93.0,57.0
50.882924882430345,44.32757935156458,34.37263507198162,24.21799130902759,14.592044200825603,3.9922088429710763,-8.928560795946455,-22.829916998228548,-34.909614303439156,-46.36776425990086,-61.073644340299865,-79.44519783890671,-100.30847981919256,-115.11004292996311,-100.15387786713895,-46.466970848632904,14.766878074671643,48.61500303828701,57.484407941112686,62.10990002179275,66.47858318250186,63.466723035928375,53.21416537262165,42.185717620800794,34.41999572149393,30.05845472105372,27.648043739796446,22.402268634651666,11.306116400410753,-0.9271218611087259,-12.741257446232762,-29.058175264058136,-47.064062480286765,-58.55991244154969,-66.92872409236173,-84.58619015957098,-110.33492269587605,-116.46157781408128,-79.1516015799138,-17.156318665452215,29.85575539943743,53.63595643954579,70.05491550385376,82.7057727057407,87.34823372218933,84.24432343512395,73.9426183269594,59.85664060830387,49.92221552874549,46.57249515701594,42.806851256013076,32.657393164893065,18.226378904046147,2.9732020603950366,-11.816762010439238,-24.265572255849126,-35.344088433583394,-49.218650292476596,-67.43236471746064,-88.18445332503826,-110.74920700487203,-128.4699083116658,-117.32489265232019,-64.74989797639014,-1.3125052436312326,39.10823368564524,58.17061398273301,69.89840774262807,78.31977459788169,80.28651041053796,73.31114987921512,60.48442951398091,49.44987933360956,42.87545421900542,35.84277824879064,26.86234040417595,17.641672121713928,8.103827650072704,-3.20746064627975,-17.620630479413457,-33.04532999976817,-48.66351358165484,-64.29354280164839,-79.31794955852374,-97.56554568350761,-118.53088407265884,-119.76657478187857,-78.85566540576383,-14.412046809754619,33.649060656529514,55.114917531167634,64.60365423228751,72.5849132511035,79.20921496931918,79.70283456298831,71.42198261861176,58.48202441053524,48.287643616406335,43.12632632846495,39.809403632303386,33.293123660684024,21.79367722872444,8.300495911478881,-4.716213406103469,-17.371403477036548,-31.225142187373155,-46.786614920313646,-63.310554430430145,-81.21887209510882,-103.40154736167993,-123.25754648911563,-113.77997246385256,-62.282542721169236,-0.8406609231855389,36.55681168934128,53.10596892999232,64.58861004330264,72.49721475599053,70.84855970270786,62.09655725028246,54.49280090007951,48.654848438254085,40.22819153641895,30.067146019686497,21.682568333331655,15.712521292025796,9.792385521496927,-1.0073343583030165,-17.11846862365702,-33.51355498261388,-47.43178050834069,-62.29497899041766,-82.78962504994225,-104.27862091460364,-109.19926852116463,-79.81601085377604,-25.335097357541937,21.33972450448125,46.30576459011342,60.62206640450237,72.13946036380693,76.9652302950389,70.90528941097129,56.91276931282699,44.16685905239414,39.100870841463575,37.898801682604464,31.89416632717193,19.462133393343667,6.218398557257293,-5.6648969214404,-18.459408366734184,-33.66178509589753,-48.65226948044725,-61.62813507364126,-76.70862546030095,-97.82925788981893,-113.80233011117855,-98.96047367763336,-46.016121875782126,11.83990119602201,43.95299594714798,58.730128547762014,70.98101148465261,78.10487093155298,76.55221892305109,68.28262213898107,55.61114550347439,44.896478875536594,41.31660594510067,38.58815938218912,28.395855498080106,12.583902759388442,-2.4063557839311667,-14.392617738896336,-26.784475870068242,-42.70046076411827,-60.23265435700619,-76.843596168791,-95.23859053945311,-117.27190874086065,-129.71445024543286,-107.3553261955144,-49.91815642148294,7.2290702664253015,41.5316739825264,62.35934304001072,79.73526683657775,91.01158498918963,92.70843751212206,84.91359343776577,71.99715473971344,60.78973055389003,53.80843947708749,49.674344049043576,44.149494025842834,32.364924394359704,15.350876984420726,-1.8713838913728342,-17.802589355793703,-32.836614036403624,-47.38161661682406,-62.60993744714936,-79.46323659104257,-102.40328151529499,-128.28520730376889,-131.93896453233208,-91.60132865927707,-28.25931178721417,17.692394974647318,39.50441779547138,56.547333433465994,73.88891126032017,82.08327848545791,77.55361526981336,65.50430054068502,54.332723671160366,48.6606475530586,45.25226560186391,39.23424382033026,29.51055443244564,17.461874531654235,5.311447923382326,-6.171837995642928,-19.489210816961194,-35.23247222883287,-50.55380846890301,-65.37051508591739,-81.59811659041064,-102.4799075637429,-124.78627416232096,-122.73186371245762,-76.48992377737322,-12.130610330030715,31.754549283081527,52.57960963655357,67.45051447869271,79.79751124092247,82.85101537652716,76.01098128569419,64.87969805263945,55.15349008874114,49.22523626064706,44.16883405973482,38.530209218305664,32.86310153908487,24.270221026955262,11.602065075655794,-2.818908068353863,-17.010515338832715,75.0,93.0,57.0
-105.80717150488061,-45.49990683353564,13.29313008477005,46.104060782387904,61.90895280301883,72.75196016879528,79.73052852480274,79.18141993764236,69.90008746833347,56.80148530527361,47.24591458981548,41.09980414526731,33.35252484971922,24.199099081549353,14.949371395210747,5.1251873996247,-7.09469732188313,-22.07921492414366,-37.50687341421695,-53.24186537324875,-68.63209988655055,-84.00386525978261,-103.8799790690918,-122.34860925253753,-112.39254849936782,-60.75585162986132,2.400003599586622,42.091513330223734,58.40660872407925,66.89376519688119,74.819546764988,80.19465637141853,78.17179150058422,67.8141342700297,55.014564122348766,46.349303712381015,42.19890051781157,38.44822844249511,30.401412792757945,17.94099767167936,4.449463863434017,-8.34707049176844,-21.191901939636594,-35.5699502393457,-51.49223852323037,-68.24234158154668,-87.10142155058433,-110.27454884803626,-124.86317058279062,-102.54578349621569,-43.488345024014514,12.97072566687585,42.65759444449755,56.55187393948734,67.5355760933867,73.12836435862734,68.6617316887254,59.54466529189571,52.83802480903129,46.58233495657506,37.28885587088056,27.3741959720603,19.7493536575464,14.201509251351732,7.34615470100075,-5.296310014668583,-22.054209119611297,-37.75128151966051,-51.3576987886052,-67.58582995513511,-89.45823355953084,-108.39638582505906,-104.54914531025375,-65.31009206699004,-9.76302681423706,30.52902917414959,50.92516916984247,64.26179776647155,74.50716169025081,76.35443034476651,67.34658530023034,52.65839949463445,41.884606689782345,38.75047159370287,36.949191711599184,28.7492606572897,15.50096935280003,2.7000683581904323,-9.13497788606076,-22.652131357032953,-38.18069240725971,-52.54407404166443,-65.46599597833382,-82.28974202484255,-103.99403731909301,-113.74504254570493,-86.75349856281031,-27.812885233892757,24.04970489835828,49.04470498499727,62.386015562012275,73.87514232201129,78.49721114934115,74.76376055379437,64.90189894594006,51.933631154550795,43.17910202243345,40.938958368080044,36.531408933855346,24.10737494383905,7.946306553526184,-6.102437632808678,-17.721416802437147,-31.007014720146262,-47.78073275732066,-65.10964134189359,-81.76010767167037,-101.41946788680512,-122.95716203901117,-127.68930204114179,-93.18600224342936,-31.669943445166197,19.472905392958914,48.22227459226441,67.6908197120695,83.85281852175217,92.53630846680929,91.34345982898432,81.38422345668869,68.3627528080059,58.353019568606314,52.44628033481563,48.48055690242673,41.494238860240955,27.75842535207595,10.236340719351332,-6.575726366927545,-22.245658451543182,-37.027013167346965,-51.69494421066427,-67.18606324005829,-85.25785130993798,-110.28965628814743,-133.0938698843559,-124.81357665427944,-73.68787354580026,-12.012708679548334,25.707231663431383,44.21490759451086,61.88068162828148,77.56990823398023,81.96598200623171,74.48854217328794,61.83739399757411,52.143751194068926,47.7071815754765,43.90634900300415,36.76754223030105,26.18097538751931,13.862432497595002,1.9945840362436538,-9.70888542444033,-23.898187855371326,-39.79647103223296,-54.79635641205533,-69.82562132698894,-86.97524407543727,-109.4920929210471,-128.19171117544946,-113.67482887801766,-57.67445058737928,3.563109867442424,39.365574909917164,56.9584770180047,71.55998504397455,81.85303757234466,81.68863155458169,72.96076610114376,61.71577992415691,53.10745362696689,47.839371434430575,42.539208703015795,36.96469641090445,30.83171725645755,20.950275111155307,7.504005216701028,-6.994226307660772,-20.9754133142693,-34.70148590174243,-49.44242859105888,-65.65219564697075,-83.55660998028944,-103.56804724987732,-115.1917287507421,-95.40508367267,-42.2896459716964,12.13685745726476,43.07308231759749,56.38932944869218,65.28758909383146,71.94870895052777,71.67566318742435,61.762205659991714,47.70134339576028,37.619805100828565,32.53303307317753,28.563833357725585,23.78291848850758,17.923480111908734,9.020097162607094,-3.766853856012049,-19.70960392226727,-36.54474521279383,-51.15649590214174,-64.6486090393003,-82.14573579941987,-102.95873920970823,-110.59691058168288,-83.1317199949153,-27.50229882618568,21.465248371334333,46.04019497111249,57.8739156642991,67.56181711199437,72.30510257016631,68.6006412189553,57.632915409064246,44.85842757898368,37.024979428539616,33.06731074869813,26.53155365679744,16.754663366442433,7.9724667567387755,-1.1116481735644286,-14.599291270732975,-30.29838602149113,-44.07902358148063,-56.8398186184413,-72.57929746076626,-94.29941745581537,-115.0425241579777,-110.77636945002709,-66.95462337094271,-6.098161743740293,37.90373840395389,57.93792594178542,68.26897269695128,78.43730271229839,83.52584254587651,75.61464666556255,75.0,93.0,57.0
18.007244671188758,12.601175996044212,4.361772835173584,-9.954593114395596,-26.868896170285268,-41.76906708338363,-55.50873517296611,-73.43281789874587,-95.96859948000957,-110.58262312819754,-96.69205905036848,-49.33207196211348,4.2960178748677205,37.935258435415086,55.04368115990824,67.71252899679757,76.14467025425708,74.78520324293213,63.27428628056447,48.776412306946796,40.31654245608189,38.52411821006985,35.38803945257276,25.15346660800299,11.622873148241155,-0.7164951558821583,-12.762507912423297,-27.04572896421753,-42.57881133793011,-56.26764480171828,-69.65037288157261,-88.41291464153363,-109.24867405053833,-110.40208865181525,-71.58326654398768,-10.371454625741265,33.72179583861174,53.24842811499783,66.01127701689796,76.14185886396405,78.1692128675771,72.47296768420306,61.21321522062096,48.642329042641556,42.103154053438985,40.350914341962934,33.72286739092836,19.502176000947408,3.5270748564768413,-9.560906922803325,-21.208256317674397,-35.562258851235796,-52.89218447882598,-69.88554007902863,-86.95224138201232,-107.89305030133481,-127.30330173727637,-122.11198395507151,-76.5449774177746,-14.52099532156471,29.656684311054544,54.22408038342758,72.82415247782141,87.3163637526074,93.22136351648963,89.20882544859393,77.59450968483533,65.02298643873816,56.27344631078571,51.26959129668598,47.03060792781136,38.21843266194134,22.825592787889192,5.220299136213126,-11.188424143376357,-26.608927953070513,-41.20576401400824,-56.08170299066922,-71.93346826418347,-91.72654313555397,-118.16749292353856,-135.19631485847,-113.74339471436326,-54.88242820376493,1.9017322496940559,32.02792273034867,49.03744979260796,67.09850357032352,80.22928160788703,80.81372605328541,70.97749298039685,58.461108587274666,50.449018489451575,46.79507273428288,42.251928876017246,34.004513996160426,22.700191164736708,10.318973895107135,-1.2843937947955657,-13.48491655975668,-28.468268521819486,-44.247509978077865,-59.04664497210819,-74.4311364907888,-92.87483453247779,-116.37956245823597,-128.67731634893676,-100.77207031887411,-38.488057980057135,16.818696203442894,45.420092260610026,61.23559194733789,75.33730408114394,82.96206101143316,79.78945435592489,69.70666583912467,58.800989245908475,51.3796859074813,46.41346486151681,40.88813677046715,35.38668399631067,28.451085414899914,17.319511603953245,3.325626945352455,-11.113299744179196,-24.910667023918197,-38.81268699340276,-53.98370466908583,-70.59888976173184,-89.23254769363086,-108.75034088543856,-113.54197515456455,-82.48869885347614,-25.034382055955962,23.716879928540795,48.010381264175486,59.0950495287077,67.59739177375764,72.81586980232005,69.72675853198858,57.703312269906476,44.16929422449255,35.783279481083326,31.433739531129458,27.25854359923415,22.266391431703493,15.744915504237433,5.7122064251790725,-8.11139550756484,-24.633200055312322,-41.07460499131677,-54.95497252537337,-69.10941994544552,-88.2000705966505,-107.65382905243041,-106.76856013524876,-68.59988295489582,-11.200871925780081,30.90983655131056,50.00754400690177,60.851628957435246,69.68430318742183,72.12998445492083,66.02220028034196,53.78110820045736,41.92685080602101,35.775817333103824,31.647386584556145,23.849539594074432,14.010624113088644,5.617725696999177,-4.515455397990262,-19.14336198676299,-34.54854440023274,-47.70683295509234,-60.901751807307996,-78.22161519537285,-101.20556463771995,-117.58128983402251,-101.89195373687714,-49.39198129045782,9.304336719273167,45.69141891115484,61.224654499103515,71.20366970918965,80.8875387566698,82.6798487024036,71.19958136759773,55.17262112188193,46.75626856308632,45.10272620898697,41.74339039900681,33.913813590154255,22.722423191410847,9.061719349725005,-5.38575468078276,-20.034943496043745,-33.640858505544834,-45.78025542509809,-61.25830016447308,-84.56606124817577,-110.31296398089192,-119.79668101743712,-94.4568445401397,-40.34569774426532,11.73170254596563,42.69127482164395,58.82926488157376,70.41668048869866,77.55511659150092,74.84446851823625,63.10294722650172,50.27500115791465,40.63121920084721,32.65150332912572,26.092625869340942,20.06588001136791,10.57369524283983,-3.1216704778180233,-18.159683323635075,-32.6293679519261,-45.62634629641168,-57.55420842849508,-69.89612634394639,-86.68234658563713,-109.43207438949094,-119.7623389196358,-89.51614562839919,-27.16996529443655,25.96789445375129,52.876298568807194,67.95702566961445,79.9415370714427,84.20403954274182,77.67927900621433,64.82482166560744,53.33231911236508,46.06366240747616,40.08675752975863,33.51507635124647,26.974727115402807,19.44800041719529,10.385049536450074,-1.8819076753837807,-19.98927646217662,-40.389155067970584,-56.55465237350763,-69.21995181343817,-86.67339885009588,-111.09899451466238,75.0,93.0,57.0
77.65235841976218,90.029984936385,93.06318108199883,86.39887433746594,73.74318150875952,62.03896609644098,54.519237901340276,50.18073045437536,45.17625490377485,34.33780757243261,17.72192062191584,0.33604702971932326,-15.73043216565098,-30.888450333640577,-45.4183840657622,-60.53399109534074,-76.98563500168173,-98.8940817358269,-125.39195859930041,-133.85887719585443,-99.22616087458611,-36.38535783396262,13.274700285922913,37.277528963686535,54.12223560996959,71.8987347031237,81.76266562538841,78.75949868529837,67.24078358841956,55.51889868944579,49.15706365600604,45.78384224739748,40.263617160671316,30.98109333871531,19.124732590317187,6.868356452901205,-4.603323903256689,-17.533077300802976,-33.10171998097885,-48.5838840327709,-63.35475840233336,-79.26314236144361,-99.3364882570096,-122.47245177162527,-125.5309426944468,-84.69678646348814,-20.085232451253678,27.576983002500366,50.46090976611464,65.50033055664885,78.5582650982125,83.10094137878448,77.30760640038307,66.39113694001574,56.21940848659383,49.87556469712116,44.8984095660251,39.26357385331885,33.70441484151909,25.67951723263692,13.448232612873172,-0.8816641899386098,-15.164781725303797,-28.85234407748678,-43.03841427414358,-58.643863210829046,-75.70599274747161,-95.09530692763198,-112.77995000237728,-108.65673942396651,-67.15268615194753,-8.679503305200155,33.04406978086822,51.876777111826925,61.67250773088488,69.65941061855861,72.96020661813755,66.96448865629365,53.525630605931134,41.13133394736712,34.30107827269184,30.319736202700348,25.884692826010248,20.638355304735924,13.254992321208817,2.0824260343739063,-12.693554473727053,-29.554977561869812,-45.34546686932103,-58.75928133763549,-74.04004765531657,-94.41493963508474,-110.65085529748177,-99.54354419549162,-52.32701045363139,3.593240037651343,38.26137841897459,53.38108959549955,63.74121064660251,71.24295671127632,71.21315343497949,62.901614278646505,49.960938657226755,39.55054667631857,34.70855669607589,29.85839252955261,20.979815642955472,11.451158358976851,3.1124406789647017,-8.352677913933299,-23.742810821639647,-38.56730993589615,-51.33086275329785,-65.31288455262849,-84.43043963808962,-107.68933044653657,-117.29316551220542,-89.6432625265446,-31.342038285270085,22.60369274204209,51.64720103600055,64.13466146666117,74.21133683935055,82.66463909216095,80.6094171994165,66.37542325387706,51.69252289917917,45.96914653422354,44.58142910455202,39.89468364945614,30.99467340361105,18.95944945818376,4.912851745131166,-9.609079387769535,-24.171095043306252,-37.178198164782025,-49.61852732261752,-67.16559019898418,-92.36525367229372,-115.75473459713952,-116.43408133654519,-80.64301693137143,-23.69747437575888,22.914134455714898,48.29269547567699,62.42726275494268,73.17733061824582,77.94254268669815,72.08760130704965,59.15833856884394,47.18667763888344,38.22173846857841,30.575894398141926,24.45197883973905,17.828732483873182,6.935904985686691,-7.441536781567046,-22.456682061572096,-36.54367748888539,-49.13829368940727,-60.966310751522876,-74.04394915623539,-92.94631739993868,-115.12201425685325,-115.84834987654942,-73.11787463809823,-9.261188953167721,36.07461389862388,57.70643061843263,71.81998843753266,82.23338986327869,83.36885825390611,74.26134341996254,61.09484276290091,50.864190910936095,44.36754297077919,38.223936363280174,31.628888548173716,24.962704604681857,16.988163163417575,7.337010554014541,-6.519639491249667,-25.977233416452677,-45.658752211640795,-60.288904242176,-73.36807176261868,-93.46187643948085,-116.88762954560858,-115.15814804705126,-67.36002947358239,-0.474708875137412,43.03293734711141,58.48416661139454,65.6215782303461,71.35207877280125,70.86577874460477,62.90642206810993,50.25512691932317,39.06996370814972,33.984762462298356,29.945196850358325,21.84889386604025,13.057047761989695,5.323892028958679,-5.801654647226414,-21.85656106320169,-38.52644263691424,-52.320146516740515,-65.55709751496283,-84.07136933861155,-105.93449169255935,-109.62861559405954,-71.82043987729435,-7.6528217317375935,41.378242326093726,59.47029652467393,63.01682925585852,66.7371973243239,68.7700651748282,63.453192658050334,53.56083597070774,44.161738002080114,35.844571956976715,27.65336012791442,19.00410617531225,10.269489512658698,1.7680001513416226,-9.598162803190894,-27.676663682125994,-48.75268951773368,-65.0921605847461,-77.59520417795116,-96.17202335266535,-119.57649512748588,-119.02876862343578,-71.8435230006931,-3.554682939809909,43.1275073684958,62.991269487994245,76.14297619890343,87.72188610813974,90.55374519794337,84.17264012450195,72.86489078465749,60.38634546634528,48.88394350234652,39.99197421073536,32.423305934434886,21.629812720596483,7.416291018654189,75.0,93.0,57.0
-19.153017524960436,-32.838796296201345,-47.39148739601791,-63.41479980294122,-81.02299458993534,-100.95667416946597,-114.98137898523031,-100.3539116703255,-50.2943675775584,6.040152018738598,40.316720258439396,55.06237670985332,64.1694449441289,71.34125350745849,72.28150592157711,63.52360340719779,49.47139597408019,38.61358020257378,33.0581321945679,29.137722362067347,24.458096857841515,18.833756980075144,10.43371400530588,-1.8541366936838677,-17.4641317777938,-34.3788103066898,-49.36836826454413,-62.724387815527905,-79.47800247560222,-100.40958035471087,-111.2746711678825,-89.00273823264844,-35.3127058464201,16.346909900633815,43.89365394532548,56.48206735888944,66.43091643585468,72.13567097765208,69.58087199221883,59.36244530163407,46.37878282877553,37.71481408659665,33.62410902224933,27.667664425402503,18.071128295281337,9.050220971387894,0.31078137880953516,-12.562554912274141,-28.26677699428179,-42.37671555540274,-55.05799526060075,-70.1677605586033,-91.11593650216504,-113.10600720704394,-113.65982367833976,-74.60389026514832,-13.787418918231257,33.60186718493063,56.19243268919508,66.95204380094849,77.15754581028052,83.50881618233556,77.41133275938587,61.532622943670454,49.078312850014655,45.558716116486856,43.72344466072052,37.688428305904516,27.816233117758163,15.02045941079891,0.740878348133133,-13.854445011755331,-28.15841555172261,-40.62665750966504,-53.9033887034008,-73.79444997610884,-100.10495502423812,-119.2636292325295,-109.80657406075866,-64.92412358436432,-8.093826378659253,32.17036708988372,52.98821813260548,65.82444142004373,75.45451536685007,77.37514497253008,68.70210182796984,55.350227005142884,44.376693773918674,35.8951250332838,28.64856596332649,22.790231154668753,15.19192659110255,2.9952948009754317,-11.801347868537222,-26.672537134110218,-40.32264086620231,-52.583446195381114,-64.45552794375615,-78.707840939042,-99.67032442332652,-119.03627623973645,-107.93688311041946,-54.81544933760294,6.796530138081881,44.05077368164862,62.036409729478166,75.43801654426957,83.70826310549332,81.62529456058753,70.49818755827357,57.65883393567942,48.74122981871417,42.67328887633993,36.31347221887388,29.75896492663234,22.821871577296307,14.414233384329048,3.933335661240912,-11.6832938609648,-31.985782391523298,-50.43659406846894,-63.85094612066715,-78.17442191937982,-100.73818031864928,-120.54868331135147,-105.85650490668652,-47.785763862702446,15.59397286492373,49.55958527942066,60.690031302201945,67.59420080860652,72.02264076210727,69.26025331368177,59.533700583749685,46.53374907974079,37.01497165527624,33.090832507555795,27.992487129820002,19.160895797977833,10.84225622473859,2.672864955644585,-10.064081203578565,-26.840297397144667,-42.83127474310403,-55.946611905869766,-70.1661815833527,-90.59484863027663,-110.24108014423867,-103.25266706531896,-54.17310120278449,9.579564793815734,49.41336192845566,61.028156835018834,63.88895878055656,67.84386949774606,68.03848711314703,60.77501663891021,50.693248733084204,41.69019875181279,33.5050909999049,25.203269219683666,16.45056599406071,7.837235287223052,-0.9869882108692848,-14.108218587650951,-33.84179467112943,-54.16257847006137,-68.7385666499314,-81.92403992352052,-103.24333210455599,-123.52906899470187,-110.04200583246744,-52.10201879698944,13.302157141760674,50.77794156701112,66.79196675697433,79.96071203786599,89.64104988656825,89.48613321006404,81.21466622186361,69.26373092716845,56.87997694508221,46.010991684360654,37.85527860414227,29.79741512109975,17.679957840869363,3.4024711463234523,-9.214299130624898,-24.237159864838265,-44.30288033861578,-62.144495918813135,-75.61283786809571,-94.52745173384623,-120.44987359253535,-130.33547706514744,-97.2360236200326,-31.911497587405375,24.975046804954133,56.14107425740211,71.44272333062042,79.22375859631306,81.29019639516395,76.73640853401089,64.97026530942202,50.35656776560195,39.75681170021702,34.4885612379196,28.227688428637094,17.059853351105144,5.46162879305766,-4.640222550362857,-17.791305062396646,-35.08999208388503,-51.865553269822065,-64.76667528377192,-77.66300401507789,-97.79050545069492,-121.77176761000584,-123.78952596733886,-79.16584075016311,-8.632070745435929,42.412047067026265,62.92740230390047,72.73690754515567,82.75056379635353,85.96934296882432,77.46025504375494,64.41468425043362,55.59035098915813,50.09132974630412,42.62486758977137,33.536004263928426,24.306163743822914,12.918604371232432,-2.174270280933848,-18.052865365727847,-32.1581355941548,-45.74264731245502,-59.94803235419573,-77.7641133238506,-103.55749207032028,-126.2506699354166,-114.12603542672032,-55.13902305204918,13.224525218350488,52.19187196047324,64.60923084869759,70.79284776463996,77.03238897319048,75.0,93.0,57.0
73.3088906879212,57.04028463446593,47.31572218801666,45.264659365061796,42.463350093029405,35.170065467987044,24.38513285211887,10.959959693477108,-3.4475843572613734,-18.095083311269075,-31.955693497369783,-44.11496330660776,-58.78027864293076,-81.0555309993052,-107.31579962044096,-120.28931915651766,-99.98053957107334,-48.167098868469836,5.909010050768785,39.70968962759693,57.07963280755375,69.02539091800818,77.07465566747142,75.85048108487815,64.91632133331156,51.804491403436295,41.77795139103868,33.65157889483729,26.870821166241083,20.983093554962355,12.126581747887782,-1.1584795248974147,-16.159966928010295,-30.778932984702692,-43.977597201365434,-55.988799882961544,-68.11631489402667,-84.00860949184006,-106.45144233162998,-120.29456924203483,-96.13318459331578,-35.82378301074916,20.49609153117419,50.37310536379053,66.12296524114635,78.64901497127258,84.26788853569866,79.08017711800177,66.6061524707336,54.6033266671639,46.87095449132515,40.921103957725,34.394058481905184,27.867807673233493,20.542679454299574,11.700411636309312,0.07273053503737059,-17.291473377227046,-37.8129679653609,-54.72387758296506,-67.46590647379739,-83.79585596479765,-107.97539090439264,-121.16938951722643,-92.53843886549785,-27.809666014451278,28.862763762375188,54.11210976489907,62.69933444363425,69.39397049440296,72.04504933223129,67.0601792070444,55.856423765377755,43.133131776131854,35.50990479740724,32.0558965443383,25.666861460086515,16.561682091802215,8.679994096709798,-0.4104946485597332,-14.692956336807752,-31.738766876822496,-46.84931211315311,-59.650742621405826,-75.36961986718867,-97.21402336710085,-112.27411896110675,-93.00673623935401,-35.217859312377406,24.530201570556926,54.91923477278251,61.95378718835429,64.96442954386148,68.61964929893361,66.61027713187094,57.877244634178474,47.94930338121554,39.28607343982771,31.152377506824436,22.708932895126026,13.909865403137424,5.422624822033363,-4.109189704395747,-19.24175366707167,-40.0603465890235,-59.00906196488292,-72.21431621445495,-87.06316778802585,-110.44337689620649,-124.50443450141583,-96.94673401967492,-31.761043981046686,27.475008732274688,56.564890013116326,70.53438985282693,83.51633077407432,90.66259134548433,87.73222178110072,77.95799647459474,65.63805256521356,53.497915173431046,43.394498797631364,35.74568935177827,26.779767824700315,13.526082006915589,-0.39452209034845537,-12.999921358247247,-29.711685772684756,-50.05087974504062,-66.18651144772237,-80.04910519584695,-101.857823006149,-126.44747438784347,-125.68919217333762,-79.97582061051153,-13.061767694949616,36.404047100415035,61.65204121245324,74.30667777683112,80.41399105670088,80.72863767154692,74.0028658831783,60.71333308844224,46.6597693502801,37.861136868694864,33.12710993752353,25.41324503240283,13.50215579137261,2.538140194845678,-7.9331064504936935,-22.5078056891367,-40.2356861792377,-55.97360297481521,-68.14589164780487,-82.53086095204534,-105.03503520901322,-126.17272342536177,-115.83229720127345,-59.30605418814995,9.54684393121524,50.81246375914284,65.95413009470995,75.71021724521484,84.82307810895806,84.5884977076996,73.66289313948245,61.254694247176005,53.940367289571626,48.241784102358984,40.03898317533712,30.920187501858265,21.36916796244263,8.891394146274536,-6.87403977497995,-22.300846427813745,-36.060251580390684,-49.73926322813544,-64.46977789033731,-84.4056478536223,-111.60994832269603,-127.74298975807213,-101.044402971625,-34.009423901576206,28.15081334335205,57.56154334134756,66.37460021276503,72.78455098714302,77.91677350023404,74.39461351414661,61.64613751035712,47.14872802868388,37.81037859591046,33.3200094213981,27.969838596646337,20.750988321184703,12.22433232872374,-0.7514710367433658,-15.97107655022439,-29.983329488309813,-45.241765286721325,-62.995144465874745,-83.62741123876921,-108.14868733796874,-125.31880458308552,-108.17138455220274,-49.55246044054784,14.792024899262273,52.88625857867985,69.1057722838669,77.84771863510151,80.99982981802167,75.51344946718731,62.266390640825975,47.98874127134972,40.81808789737179,38.974183551624805,33.32542917673379,21.609021981976326,7.044266706549542,-8.751171433957923,-25.219704781735643,-41.65145677873602,-55.99279379889912,-68.56898486401592,-85.9023373006913,-112.14689275525798,-129.92871229348015,-107.58592819264675,-44.567133330202246,19.583838608366747,56.34544929482954,71.29962348642914,80.04558329470909,88.4129102175047,90.87069403891127,81.6083885901757,65.8265677656519,53.38333397464186,46.2520000276935,39.44689860382769,28.887115468499374,15.43851697736634,2.1964149317683197,-10.273149033325248,-25.930234917236202,-46.84438668735921,-65.94931648229256,-79.93534036533185,-99.27573726712131,-126.0225234781658,75.0,93.0,57.0
-114.425351098029,-118.0141053737277,-75.88293384169198,-8.696198068424062,39.20268170599886,57.306538971304875,64.69563784058502,70.84552701266423,71.39159185634803,64.32651403033205,52.024142590497085,40.219345403263624,34.411427468018566,30.704039324601535,23.084553019446204,14.123303677765191,6.432381686454894,-3.9868852209377024,-19.56553490386605,-36.44395141481691,-50.630632680014635,-63.60384089954061,-81.19592431477048,-103.40721891849047,-111.27743502586155,-79.20179135412873,-16.156929943949233,36.72874017820112,58.392295921705,62.67269676398542,66.17515219652998,68.87079184479008,64.56549995590468,54.91513588304838,45.33131652425031,36.92496598369496,28.767325554443236,20.178782683317152,11.406600303412064,2.9538752225897738,-7.731212020786571,-24.918295109170177,-46.09290690964822,-63.2879686316715,-75.80980225599895,-93.10603627389146,-117.01369122534604,-121.72049280971531,-80.38050805246371,-12.090895698602534,38.81010923957277,61.130310086610635,74.35935279596097,86.55644756368156,90.78459411576436,85.40616845047977,74.50163198015355,62.03170925470416,50.29059550151846,41.01964156590246,33.52410333629565,23.344722836081335,9.32588651216723,-4.00563827302139,-17.181238198130448,-35.561910297523994,-55.36235308743685,-69.95935433243531,-85.26452625324772,-109.60617500440904,-130.28955299214292,-116.93670672460749,-60.82455962572281,4.043440097048875,45.69664757781767,66.17741361411477,76.65317309178818,81.1343839263849,79.57196522930165,70.67547670086613,56.39006237789719,43.45440181845976,36.35757996658443,31.465241970692727,22.191586903945222,10.078037716730586,-0.3088236367256695,-11.619279205176603,-27.518121629477932,-45.1901954793723,-59.72507003162042,-71.70240992817301,-88.17580534656575,-112.34535150977217,-127.85761611036052,-103.61262005867327,-38.375832121279046,25.072599701727928,56.90466269729732,68.67589520587904,78.73324972841462,86.0459942741803,82.23234968213355,69.76402873958578,58.605014813914096,52.42401032875763,46.129471418907144,37.3936683043587,28.292502284751574,18.173585262499298,4.550557016544292,-11.521274570431741,-26.38433007940341,-39.97211551791115,-53.79489793984385,-69.41968101140475,-91.80672455090489,-118.87838144098637,-125.40287820006624,-84.23065756201973,-13.454627490741624,40.02869028643929,61.19261565679841,68.081405095418,74.72855743667962,78.01890551805045,71.41682372983959,57.24654101209151,43.76198593962518,36.25069208802592,32.05448453356282,25.967706499873092,18.54887256194608,8.994268745982684,-5.174238942901023,-20.110419716527502,-34.12804844152848,-50.14325904282144,-68.5664638006619,-90.42964871290809,-114.90396648384892,-125.03335944137275,-94.54814937914065,-29.500949077851278,28.902300272957095,59.04264380019137,72.06503093164514,79.49872496276966,80.36237268016501,72.30229919298174,57.8163304350971,45.00569643677946,40.135828118283875,38.03970931265124,30.425548172921193,17.5848597358828,2.571466620129684,-13.45259577271234,-30.041800655480127,-46.09838818007618,-59.63061555557319,-72.69985149990927,-92.79590551717311,-119.60003941878159,-128.6090238753807,-92.23233249830031,-24.209655487912347,33.28774799149366,62.155520034237824,73.94644057979498,82.59031246357864,90.11541334173891,89.4096157060304,77.22524565890403,61.607036062369254,50.92809250560728,44.516229818164945,36.8321331116199,25.161757637523777,11.481400865352349,-1.385362636512746,-14.234871800568083,-31.592362053679246,-52.96216564968918,-70.23982397945613,-84.42776459826447,-106.88186856522327,-131.93608468230263,-128.45942686414958,-78.11024184461832,-8.451061649842071,40.21057146685852,61.23669769631263,70.29785228435676,77.5160507121922,82.90211846627251,79.9824481089001,66.54177177000223,50.81138937279417,40.53611236069772,34.8327365972103,30.459963238348667,23.514986150530113,10.535976807656018,-6.914284196164792,-25.046698358736688,-41.59570465868097,-57.143897716857786,-71.88715205535688,-87.72163958948406,-110.69437877263876,-130.7742160148045,-114.72129676568655,-52.077665620430935,17.2235591852583,56.282500299795934,69.98291670236908,76.59540972053068,80.93765793781203,81.15666035439313,76.39634309422811,67.07663606501349,56.33937218304435,47.820392691264104,40.79793191906997,31.398346712822136,18.778998215654546,4.474399161277341,-10.00499058946667,-23.753999758338914,-36.87023321653765,-50.66514939015411,-66.79947100597707,-86.20060914829098,-108.93924361275356,-125.1904298343009,-108.25644114935714,-49.17109430892164,17.81258889762942,58.66251377648328,73.14076894401147,76.13913149433384,76.62547564861323,72.82541513144785,60.06333777011655,44.835699499768296,38.010032852063226,37.90520190032166,34.166900617401396,21.889787300377336,75.0,93.0,57.0
5.227779829206664,-7.5519003963440285,-21.883000033657954,-41.560255315987234,-60.129690939003254,-73.75908877879462,-91.3965388357334,-117.20103922789588,-131.14322374758586,-104.25636121052061,-40.97428271679294,18.91972162410683,53.190376103498856,69.93087983654861,78.5196531286287,81.36136712769792,77.78115967958269,66.8564857863994,52.19635940721618,40.797448371774315,35.06899528972718,29.363225735928378,18.70695066791491,6.867334387451059,-3.2273964445007084,-15.74447144156121,-32.690907516846764,-49.842661875333114,-63.21003309113917,-75.6529531268037,-94.60037274877064,-119.08052435725534,-126.00631792142063,-87.59525851036324,-17.721193482261878,37.623514125877115,61.29794876322454,71.41949858400758,81.57747759998472,86.24484285660503,79.09755767502187,66.02525964914418,56.446731971450944,50.86454813244274,43.77500164925285,34.748038251396785,25.594224518317326,14.65757149924592,-0.020380193077139834,-16.032323425118236,-30.35167307753623,-43.91364177584539,-57.96303155105384,-74.96590807296526,-99.78506928467048,-124.48649746567014,-118.71708717323195,-64.70318313058432,5.370070939280698,48.96531540888412,63.688668412210774,69.90328853487371,76.4103293088965,77.22273802801968,67.76422887459277,52.927078267461034,40.93413059641314,34.99264639460259,30.569292111598077,23.873613502311297,16.195535925581876,5.310308307679629,-9.636429738281604,-24.12922321197293,-38.47417876033915,-55.23403133151374,-74.41926474162503,-97.57070360949096,-120.5707161703034,-121.11129887445728,-77.73609002939645,-10.19090429246287,40.397114624765194,63.795754939818536,74.66513946966279,80.59572017339852,78.94850511629274,68.51073831506532,53.51112464117266,42.78110086526607,39.71085724422439,36.56346338350137,27.079705962647292,13.395711121877843,-1.9818976664952053,-18.20414806185821,-34.83321603314515,-50.305200533901605,-63.181549030841175,-77.45561409349216,-100.44364831592839,-125.62475940566685,-123.16752410294103,-74.0078370503635,-4.948096275247245,44.38359230825228,66.54454510079057,76.42030796576952,85.10944118031887,91.10346901057488,86.89422852811632,72.55820737266887,57.87187450504253,48.86326177689676,42.649117190318144,33.84960331448353,21.262649196885356,7.618568149183399,-4.931690402625612,-18.607519100208226,-37.66613945054809,-58.66274062126092,-74.17003546806042,-89.73822622932248,-114.92029394770664,-135.38719073426682,-118.37283924018554,-57.86175592260767,8.827107056008415,48.53486142518716,64.41640609730388,72.40382840316664,79.47977564085208,83.21327293378897,76.96968771509562,61.74604287900837,47.179676494975176,38.58181797397597,33.56178037717816,28.93679238778183,20.41428434367874,5.783634542803351,-12.23336186542105,-30.009923464379202,-46.139370927886766,-61.51416164232524,-76.08093640674406,-93.51364017703644,-118.03562637530293,-131.28792657568374,-100.38772540687505,-30.40618052573999,32.119362154656024,61.907928607195224,72.12608259189784,78.16220563621857,81.4830983125363,80.309337090751,74.09031775623528,63.92272280930627,53.56899011861557,45.8116200779414,38.446272761064044,28.028448007532372,14.744922971229704,0.2518857325415093,-14.066134488327268,-27.578721612904648,-40.69777087129122,-55.040249628251715,-72.02823420333027,-92.52726652003354,-115.26366969898433,-124.91597420448304,-94.6584715415412,-28.588137061216905,32.91911732382526,64.92344918794946,74.58861559855312,76.42698552575722,76.25614801182446,70.05113365647141,55.32506447123691,41.77921475723765,37.70948456176044,37.62226931851265,31.41360101811849,17.357047520494504,1.8340629203980778,-11.18216851421079,-23.25273302782729,-37.283152994204755,-53.24302152946615,-67.7866263195244,-80.65503485936438,-98.4963659422899,-119.1124660132394,-112.46008014512462,-56.85960763408057,14.63808455479655,57.62771460344276,70.8546854967339,76.95589581554002,84.35407278146936,85.19157276513229,73.16960468354661,55.28261798530119,44.52713010652244,41.37931136815369,35.6995470289631,23.957365244658025,10.965813695399564,-0.2574156766379277,-11.32063040815366,-26.68227930109509,-47.53283665951126,-68.80266580942782,-87.53101637383506,-108.26811904982785,-127.66710704949807,-120.53863161940112,-70.04456644903337,-3.2596377819161444,41.41310156160849,60.813589853504496,73.55618892937912,85.91363396525027,91.66638371623333,86.33079908902526,72.16157316544478,56.61808673082267,46.86113721025861,40.80267668379237,32.34169604761325,21.18444813004691,8.501264794248845,-7.3200546384534375,-26.11097493489593,-44.928339058791686,-62.060744919822305,-79.74789149776278,-102.25850797864408,-125.73533199503781,-128.2441164089589,-87.70609264750776,-21.04247645622219,30.489677481917518,55.815345202882796,69.57878834430564,78.71455474883406,75.0,93.0,57.0
77.59640049833625,75.49443303610045,63.64210679384583,48.879175089923386,38.675057795771615,33.854102370294676,28.839953551155354,21.74300916114845,13.564431151381529,1.230163318142992,-14.007730657759074,-28.12131682438288,-43.05306162991495,-60.50246603436119,-80.62865908935268,-104.84549224025673,-124.39684201336475,-113.18516016654519,-58.72787705612924,7.426878032959803,49.443775015190155,67.5845515541117,76.93095943713104,81.03796211853091,76.76687850995333,64.29635368779087,49.59960304884767,41.29090439764659,39.26264631247135,34.48348674749306,23.395590000283505,9.074347145786092,-6.601650580242772,-22.99883383883862,-39.5337761902062,-54.25354524555412,-66.8117188866054,-83.02731554338371,-108.47376535140288,-129.28546097873067,-113.44757415849413,-54.030384244245845,12.39068244347856,53.06356528914603,69.95053258077037,78.88846234894719,87.44970466762003,91.18089619961634,83.45038843683379,67.90019200148839,54.676902003300874,47.04837021476534,40.53130497197447,30.522725608311323,17.27933555165351,3.8792052933046777,-8.546782479866792,-23.49332678389174,-43.94855794908464,-63.790362271721804,-78.05556182983929,-96.03910357389869,-122.7296206597265,-135.5125384698084,-104.29915822545718,-37.14644827314515,23.554500651705354,54.80107239027119,67.01914344757347,74.490463366434,81.20388277117996,82.63005246739391,73.13591768237457,57.04397644713517,44.11046031261056,36.914672807837576,32.34130326978473,27.073636695689157,16.762291448020978,0.7471666504025479,-17.51878179117478,-34.81187442131149,-50.63990081426755,-65.78818175681671,-80.47881169590728,-100.07291703818673,-124.5887341293677,-127.82170258428313,-82.43831879516163,-9.5598350337427,43.98088570859923,65.91691173796082,74.03837333546402,79.50753087342531,81.64447646359883,79.03301296837375,71.43091110064314,60.75909699284406,51.055655874564636,43.8458141011631,35.80625239508928,24.412819271328797,10.612822946623677,-3.9513289557105953,-18.054147392826497,-31.35956685487799,-44.63104313716411,-59.639932220355035,-77.55156683599998,-99.13351733077158,-120.6302850958419,-121.07032973984887,-77.76502502295611,-8.536531013400094,45.31409912535821,69.29282732606367,75.4489576851193,76.620460926541,75.37962844122089,66.4534746989786,50.69920498958766,39.62687531226225,37.77173894314727,36.76262816688658,27.94005106351638,12.728829580117127,-2.1959895679595602,-14.619278468910455,-27.0238125176533,-41.81169820836472,-57.73878620999298,-71.47596188269635,-84.97896918208653,-104.97652495838948,-121.74621345447149,-100.9921602464463,-35.376332535138886,30.968801591599757,63.52777726000155,72.54004187356841,79.14187013708606,85.72821069388286,83.01440899770772,67.96812904833182,51.07657625892276,43.241317303882525,40.38665036800554,32.785916030822236,20.099501393434277,7.538008823378517,-3.3014805287443787,-15.128278929136531,-32.28941935157971,-53.904161509162954,-74.3794734507216,-93.08526493741972,-114.76509845935455,-129.70986133592908,-110.05508656191041,-50.37129391909797,12.861210973076087,48.830820514116475,64.51990254468961,77.34568103431289,88.5753545870446,91.28263034191876,82.89752639828886,67.39697833534339,53.08935065446998,45.049402371069284,38.742881667143564,29.29093270036613,17.716295774047108,4.324292776262158,-12.553729014670855,-31.67874997929853,-50.03438496543486,-66.91550486450632,-85.6424737434168,-109.56372761046303,-129.93848052142909,-121.18021590645193,-69.21801444030083,-3.2727195043663087,39.98656173581162,60.36340936016619,72.76929447742243,80.04426443587164,78.71935436593698,69.78153943255171,58.32534962261749,49.25950861997931,44.01417915681623,39.6414738111557,30.680547007535154,17.22056346249753,4.390206414987338,-8.513123522747374,-25.039519834005336,-43.54107706964881,-60.049240330967756,-75.32763132555847,-94.03368258076279,-117.94551359106457,-131.41694022520946,-106.11996282935391,-42.932737982354986,19.028980223285945,53.64377655558126,70.2132209110236,80.86269252619975,85.74702447904771,83.24039982739457,72.83416565128739,58.284877913346136,47.26974129166161,42.76210337532658,39.83198434848648,32.17993461354096,18.751079840277157,2.871646952991363,-12.501558738215982,-26.8937138855173,-41.82231691760469,-57.822569540017156,-74.70372365959992,-97.58054175319839,-126.65616563514337,-136.3518182600586,-95.1207325473007,-19.363300748987218,38.95671438153935,62.374770840770104,73.39561865686869,86.82806752871284,93.42820437224302,83.10380829978952,63.720804602410254,49.0712805075223,40.62593923358988,33.3741766943167,25.44633222722432,17.697865981236827,8.877356750800523,-2.6627123807337387,-16.890141850513363,-33.53998995601316,-50.764494881108554,-68.92967281508128,-93.58620358633796,75.0,93.0,57.0
-129.45861299748353,-131.66854346180915,-86.94276952239063,-17.14872163487721,35.56371406589228,59.48236831841775,69.3024645810112,76.57057861256595,82.50314148531245,81.0510268774589,68.7080002179155,52.669999231086514,41.560439792387605,35.45427598070548,31.083369401849815,24.757869549941127,12.603264489622587,-4.472600741667519,-22.703748654626345,-39.478419763682965,-55.10333034060966,-69.97249377839682,-85.29793030397259,-107.26372469451863,-129.41175328711822,-119.89948564459144,-61.98300253559901,9.365094720721414,52.98412004627133,68.8582311551384,75.81762814633434,80.56339369912735,81.40541504664516,77.32566543208776,68.49568262982783,57.693883326109,48.79285931776801,41.79966680363591,32.858545211345934,20.594949129236138,6.4190953675348945,-8.108910916065353,-21.970823650651152,-35.12655423412964,-48.71824996099883,-64.48113540642908,-83.39438771918533,-105.86818163044383,-124.29784960901807,-113.23635248020756,-58.51997412278718,9.992281345822745,55.02731457963695,72.18963832843068,75.96720016066945,76.6760178925917,73.81635455967809,62.18549598521588,46.52787757025822,38.34506008155387,37.90290952113535,35.16976117047417,23.89499950760622,8.164699527552264,-5.983118097276309,-18.057199027576505,-31.021078086813144,-46.45598175188041,-62.01201491464672,-75.09229980884227,-89.95065723230204,-111.42470426875619,-121.05031995969348,-85.33882352421794,-13.934752286339283,44.11356499330636,67.40912708438334,74.18282779764792,81.40691976344027,86.27753499366099,79.69900949246171,62.60549218913893,47.75302489809817,42.411878849045124,38.91469834549032,29.407881619053725,16.287985130309163,4.278930357962445,-6.4078261301165576,-19.424277274563167,-38.30806236031934,-60.14287182965847,-79.7467305008505,-98.99364073727406,-120.87059090547955,-128.70484411291577,-95.87532347176378,-30.462186415106785,26.39552062622103,54.495684499926746,68.13359537649471,81.05089111365346,90.48615978624127,89.93018862134477,78.8373714847072,62.74907137975082,50.16710940266641,43.38026038189599,36.36503385869857,26.076717095368036,14.117202857056952,-0.17236167883323672,-17.986952571271818,-37.16591009979985,-54.987276790212015,-71.91414456977782,-92.0509213342898,-116.71530153923445,-131.6554124604735,-110.14483428391928,-49.5072697553425,12.285922132156955,47.4819774510085,64.36232515683976,75.57190609927353,80.61301485236802,76.74302224206272,66.46374669073845,55.32528004673024,47.38880265326008,42.90938520886947,37.69621990491202,27.021414439776528,13.317316969549605,0.8722272292817802,-12.865971599169828,-30.393622059123278,-48.594531222673,-64.42404530560677,-80.14645045189151,-100.64108481651654,-124.1951562064633,-128.9921097374226,-90.43042842774187,-23.01155981044714,31.913769062139128,59.48611168840646,73.75288010359277,82.95989212518899,85.83541786071159,80.99712180685569,68.73467264368286,54.4392718913463,45.40324209169109,42.07987827917439,38.27871740450374,28.78754989841173,14.241673342842892,-1.6908179081510921,-16.71741875911196,-31.07452035903609,-46.386657335792364,-62.502484707902134,-80.38056114249942,-105.903108928607,-133.2074006975473,-130.1920561271633,-74.52566217635517,1.1440823505191926,48.67809557035761,65.6718095891091,77.10054585400214,90.12833448791598,92.19851128771197,77.70397522064575,58.669724628632466,46.21334705184796,38.585080962932295,31.118658930930895,23.185145017003528,15.368227834736803,5.838494114818723,-6.505123514863414,-21.491284411954076,-38.56334894347297,-55.70650279397654,-75.21496809225533,-101.74023233821711,-122.5811087290004,-107.39765472191338,-48.63675674874935,15.814852821439382,50.585550497211386,61.8376717612086,70.35542843105766,78.83755658992885,75.1203656880023,56.85109070531181,37.316376370863786,26.46197694382761,21.56435072076219,15.96739763538668,7.624560741072781,-2.3271436123712186,-14.039869615555055,-29.613643126271718,-48.15778425160373,-64.61951090050414,-79.10999207412023,-98.45584661506061,-117.83299596448751,-108.5643007221577,-53.02304113614112,17.077034715085233,59.23246905719717,72.22995676562265,79.05327725491624,87.78899244728125,89.56862871243762,78.97460993326875,61.001481893735146,45.67306510459749,39.538823110457365,37.32809472681233,28.319479262079515,11.54965900229876,-4.280184702474955,-16.01696526934818,-30.70288478803558,-51.39575450503426,-71.81007834936186,-89.86088711104338,-113.08755852050658,-137.25324544128463,-131.01941161166903,-75.76681790169086,-5.491969763831654,39.65344039298095,61.69830762696487,79.01373525202341,92.9576758332381,94.62311881550812,83.79430280235596,69.61637860989788,58.40534091998665,49.63666783329759,41.28331711420467,33.44618260391161,25.408502079916754,14.699176529395602,75.0,93.0,57.0
19.46977465051388,3.7778274708472965,-9.573666701891947,-21.579662774800383,-35.25598658914086,-51.11774611666761,-66.02236810638723,-78.82879909936823,-95.64809925895747,-117.05876294749004,-116.21432862591746,-66.37824070382007,6.141526031412959,54.048728125771845,69.95396616611033,76.02050508582396,83.51306449468458,85.79736042936821,75.40578523566258,57.47331257645404,45.34989505288805,41.72912175431343,36.8540367873145,25.7181205058627,12.606521081318736,1.1537742444268915,-9.70147560634823,-24.265824805400065,-44.59224220621181,-66.13709524954662,-85.0531387857298,-105.27881517084063,-125.91668808598803,-124.02997733346727,-78.69974888743533,-11.454165822990097,37.2552598252385,58.98656143089607,71.82191138126295,84.48157640810712,91.51345813453234,87.66146051201376,74.33105311668334,58.44044411549829,47.79999298726255,41.658978110840124,33.67450868955406,22.74972690141781,10.329330871756893,-4.994515205641756,-23.53678271465565,-42.51674956260329,-59.83759636965,-77.18800309875742,-98.94892075174529,-123.17409038679294,-130.16836627818415,-95.48701719636449,-29.807085745218394,25.326975883014235,53.448423839700595,68.00150158190309,77.86462729347441,80.39494817072134,74.21029673883311,63.08801669933015,52.61608730870783,45.83929740323576,41.75451155966492,35.233048752221805,23.090715293244862,9.586732679194089,-2.760035745755755,-17.582847568408923,-35.80277011792603,-53.40654903006463,-68.77179600480164,-85.39196383163039,-107.66300036512868,-128.93789240170423,-122.63210729357748,-72.10970151086137,-4.368489470804976,42.28908756937267,64.30309743068906,76.93729111127706,84.51640517608935,85.27684772758899,78.09344901064115,64.44495530879823,51.088467324647524,44.06177616761703,41.350513668592086,36.20311101915127,24.953266843063417,9.630395059175783,-6.1619682952548835,-20.864393929403825,-35.352379431426534,-51.01790129335191,-67.27318025015973,-86.76381003416223,-114.59962332046968,-137.1907050741168,-119.17894858131086,-52.136883206083276,18.909348584963716,55.65502557436621,68.6701803572636,81.09157168910072,92.45147154547233,89.43894529572493,71.94091485703352,54.27751730042757,43.767911698556475,36.52316595847565,28.813987757534058,20.960732322953024,12.884719033021076,2.5545833986273543,-10.563718319756255,-26.288912995826273,-43.558452200429315,-60.805661125814034,-82.2148126653582,-109.58108845519855,-123.10032650124728,-93.9162529965155,-28.375084095095918,29.384716206191655,55.211602133646615,64.00097515086324,73.2569720126743,79.5090565415282,70.90982878444868,50.670089504806,33.19395908053345,24.77149032859705,20.215065067261055,13.805879221194948,4.8674696624246225,-5.448553293127864,-18.0706522274862,-34.865614341560224,-53.3111575666607,-68.74547766033325,-83.96850769450585,-104.95308424739974,-119.6068738027725,-96.80768798752575,-31.93275429276746,33.08601326175492,65.00924274187618,74.00183634834472,81.62611231807847,89.46826595064081,87.72322017145562,74.13284083735861,55.852950527934404,42.938202840891066,39.01387691233107,35.7414776081152,23.95931153411411,6.50269517760175,-7.8927448149837796,-19.60561526068335,-36.23955124957003,-57.637403643073746,-77.03064170508287,-95.72761576415134,-120.94179898115073,-140.22782229909288,-119.52900805911352,-54.6423303853485,10.852951430259,47.46405624010563,66.71770475433539,83.79086041717268,94.96934437740137,92.45508301337952,79.61408836512996,66.00073269749899,55.735432173755726,47.212523850774055,38.945171295210976,31.241475031127976,22.705652339045,10.752316086026683,-6.164519667688691,-25.66924144209951,-44.8710572957817,-64.82847316369546,-82.8165552407607,-96.54817559491403,-115.24018615711051,-140.08736185903572,-141.23429956306953,-90.43008540622351,-13.225557787969894,42.070953029055126,67.61992427514059,81.1982900783891,90.02649136290722,93.73029035131243,91.72620184733331,83.74175810659008,73.63192471016885,64.11346203667775,53.98895501486995,42.39544794746813,30.179069915540165,20.252298997892073,13.684606216310783,5.509650234219242,-9.492203597052306,-29.767439501242055,-50.1399262524394,-66.71307223626928,-81.3192302733461,-102.4066439240435,-129.15686712261106,-136.9543763193942,-98.30389859098271,-26.62228664639886,32.62191638148682,60.97467719691545,74.05291287530368,81.77264945695015,80.26358688904531,68.8456797867381,54.30025849007336,44.24096075031742,38.266025425692206,31.06358426125262,22.73786039785303,14.453045786640402,4.460973908878938,-8.533525665214341,-22.72089081343285,-37.06769316177315,-52.13548908415714,-67.12959228042335,-84.43826083009571,-107.35325172216537,-123.93563456901065,-106.57112705519555,-47.945083348517954,16.436922439005205,53.893007384904394,70.60601617109678,75.0,93.0,57.0
79.52225405324242,79.41312485773284,71.25005665750871,59.78928342181039,50.23846607599571,44.548666760833754,40.38701726250324,32.23175736387665,19.06444531915342,6.009563751067306,-6.6261292846878055,-22.626581111958288,-41.13689256100972,-57.99452836339149,-73.21242026215253,-91.17290276503077,-114.7742166135401,-131.33055170687393,-112.21929581330822,-52.26305296890553,12.21280556417565,50.47818125525,68.45609641347376,79.72730008070722,85.49679419325844,84.04242522550611,74.60566631364564,60.18144836337147,48.331366909229246,43.11284781512983,40.3936424835317,33.574537220426684,20.76938824269606,4.997570197554758,-10.525919680964392,-24.98689094094763,-39.752391519488675,-55.67363146646995,-72.2715745380312,-93.9757809352015,-123.06065602120125,-137.60043141239265,-103.6163886775596,-29.48624465232249,33.40692213935974,60.58140687132795,71.82162152995296,85.08818143208251,93.4649950195582,85.34832622205234,66.23491787289232,50.5685301892206,41.58370287423255,34.38805690997741,26.503114160972025,18.73795179441673,10.19568120066165,-0.9645196157137587,-14.842338535979843,-31.231869966776724,-48.498520033639124,-66.24907702653792,-89.8835761825566,-116.36396196089555,-119.7912714772627,-77.07586887905471,-8.947343820050659,39.98024020650561,58.42129047353995,66.3720866834559,75.97530188373987,78.80970756606985,65.6427344389408,44.78964944754294,29.916984893232506,23.39709422726664,18.670767801045375,11.421764418253277,2.012943691157788,-8.75071494586639,-22.485187221114927,-40.28061092961983,-58.15014629469751,-72.8135280127077,-89.43753629021575,-111.10227545193237,-118.06577993490262,-81.14227219914181,-10.91831339674124,45.97872607413867,68.8067287163781,75.83290505224208,84.29742668650817,90.27577693347607,84.82558204109685,68.87867665940675,51.19266817276213,41.051310672686625,38.5501879188175,33.346898116981095,19.07734103647785,1.788126084655429,-11.217659228449884,-23.67546365170225,-42.23200540416666,-63.64257226413455,-82.12658966569164,-102.28211138194548,-128.508732264445,-139.64392957927475,-103.93570986038385,-33.613007202136345,24.45333230158855,53.82941142110101,71.7160245184991,88.09718009896092,95.745128146092,89.37831264075429,75.41952548127595,62.70477267112483,53.20785943024531,44.78891869266107,36.67377849344933,28.972915228704004,19.714805864064868,6.358819257707971,-11.731538839052595,-31.244574993191918,-50.533726408960824,-70.50026457958138,-87.0035751617724,-100.92395500759201,-122.51606164665397,-144.72454518371637,-131.94559368054433,-68.40629603787143,6.327351903743385,51.752093718766055,72.15672512287195,84.2365483517328,91.6335151263863,93.79614703909222,89.94004133916178,80.82041141886533,70.83964484787664,61.316924567940326,50.791565942712715,38.83214757585515,26.931904663944007,18.12311457531891,11.803184416782823,1.9487668718138935,-15.02890268593073,-35.86607673196131,-55.39758667800929,-70.82323582956852,-86.40137476603536,-110.19171757041319,-134.9113539738454,-131.0170221967789,-79.08137217942502,-6.494479822367129,43.60631133042543,65.50320582150569,76.89329165392266,82.48848578331464,77.77961952243385,64.57176682694367,50.73516428881853,42.36816126152507,36.42099542085168,28.66838497639522,20.375337092611694,11.84992330286025,0.983994596619383,-12.619104620327409,-26.811897697304396,-41.36884601655485,-56.48286942683059,-71.65012839305402,-90.5811117608617,-113.90180850867355,-123.53367900041081,-92.96349477219796,-27.844871333781487,30.414516094395044,59.94090576628723,74.285269714365,86.26599039156056,92.49696667539752,86.8773971752842,71.23212468539282,54.16934932483257,43.716054589317835,39.14060626042458,35.18867914803979,28.788750451258487,16.85477868174379,-1.3228596728621418,-19.167946154218626,-32.349319650304835,-46.00377606512138,-63.538994823551704,-80.62509151386888,-98.50489318619034,-122.2762754583931,-136.1269710784091,-107.68909045844777,-39.42295412448004,24.95329531871646,59.797708554911395,76.2205463921851,87.53141285795074,94.72350002932252,94.87570610098868,86.2225560948188,71.75411092558787,58.23157184403172,49.83441469320695,45.45897001306213,40.42247387546035,31.033561637844063,17.700813660993152,2.6955163750356115,-13.33783834607697,-32.112208621112316,-53.42928808116209,-74.04863005910384,-90.41317950896412,-105.10475181038947,-126.66277127422381,-146.21253318886076,-130.68498373874735,-69.37601177719658,0.5369836864295374,44.06335460350107,63.914147050753655,76.8961628748163,85.90008562616973,85.55428202620782,76.5023851214769,65.19188780681787,56.33957175548237,48.50507387897639,39.431134046691724,31.790224742032514,26.662655341669428,19.02068349456773,6.11306259890955,-9.026303499456299,75.0,93.0,57.0
-97.9811479672589,-121.22829969906411,-112.2834162745858,-57.9098846919618,8.584681473372472,47.797651313350364,60.839082869560784,69.04238998980028,78.13643038542499,76.6211291271137,59.70178687024578,39.50023030128057,27.404366658934162,22.14579944452565,16.880185475370347,8.856462508246844,-0.9335164109054618,-12.30062634821484,-27.28400653410312,-45.70121081914693,-62.64798051158763,-77.04260082900065,-95.5061995553518,-116.13531738931833,-112.54840914477978,-62.39155308484439,8.751126693900197,55.72399589727604,71.31987168397674,77.95775965450997,86.78745397154168,90.04646130284318,81.0015362218702,63.471531048287915,47.226935555291504,39.88910118176977,37.828286649622676,30.094185960775082,13.933636869288296,-2.4745131390083888,-14.472134364124768,-28.342327937109992,-48.485778804883445,-69.31195617704134,-87.34119901433958,-109.546677520215,-134.9423159731829,-134.79409509866727,-85.15727041847033,-13.888204436517404,35.40149308563305,59.32356545000142,76.72789664851595,91.6475227670878,95.25636090713608,85.65331574803952,71.38769378061507,59.70364013733255,50.75622063273053,42.380860511297485,34.458115152462724,26.575349556961232,16.37340566781716,1.5334193000375447,-17.40266427208912,-36.76734225651636,-56.31384401482384,-75.84587644325133,-90.87626176976144,-106.060057858297,-130.0985176032795,-146.31075455908854,-117.94977073375476,-45.457069855748486,23.04660462139129,59.29147589889527,76.12122490926781,86.89445188916855,92.8049204396488,93.35499296205298,87.67478706680215,77.86011670829491,68.10476812120729,58.42606624704554,47.46360842346081,35.25710488924954,23.968075607372285,16.248494970361982,9.607636880507716,-2.2639209907724176,-20.89327490677002,-41.84454746819524,-60.26275677191611,-74.89984760346776,-92.27798071366114,-118.23696772908953,-138.22991178643872,-120.68877809147855,-58.00575987142133,11.431384940646062,52.06675883113183,69.29200662781027,79.31369620635283,82.28349677187474,74.54568525499212,60.250255650240874,47.70809569871152,40.701061499956424,34.37274365476604,26.243830926030395,18.013289590710123,9.038467878110671,-2.7470962069735383,-16.73159456081119,-30.930607446850303,-45.73239072441367,-60.79280079347728,-76.49171933283802,-97.23515393021557,-119.40088619760041,-119.53705098866659,-76.16184841379362,-8.498395801007728,41.7089968084502,64.75940973590735,77.90012370561956,89.02187009994405,92.18495160666967,83.0892280207918,65.99456888084715,50.308036482623734,42.03592335567364,38.11100496717822,33.70146490874813,26.060831630786872,12.068928670398734,-6.876785678149064,-23.37513759273809,-35.91258495305674,-50.799880436859475,-68.68573255370409,-85.38059833653213,-104.86246804195814,-128.77507200252245,-133.2445004963371,-90.48146137934792,-18.447538435321587,38.01600666332914,65.59847448539121,79.79433636813783,90.15588031863194,95.61691392079571,93.26494680194956,82.36253372468902,67.46503181058777,55.23578764025257,48.319763271043044,44.30713681427521,38.207803495014005,27.493384731232602,13.446506183383,-1.7711044949869073,-18.418754039822154,-38.11266047928483,-59.643128696202055,-79.29247014118147,-94.44512849282681,-110.43064967391496,-133.747890388416,-146.76095850216558,-116.71617068722509,-47.898492050656714,16.38082413936926,51.400292292417916,67.90370374192568,80.15604271557476,86.90005690336754,83.59814106805055,73.15975416319567,62.333281984234574,54.142295185110875,45.977276025772994,36.90185587872728,30.195863958652204,24.973444968669607,15.746431442030913,1.84651359038755,-13.635514093064673,-30.996843313763893,-49.66100809285605,-65.6441067264394,-77.30111977878515,-92.00043664151681,-116.24276261182764,-136.23269943973517,-119.29192186696027,-54.93502947108857,18.57368385103477,61.12444109716107,75.46667876078428,83.96786614174086,92.41678532234116,91.91815788746322,80.69710126109712,68.64028866306448,63.03531130454766,59.99724530521002,53.63133831227878,45.39448361697327,37.12191030833152,25.349422172762505,7.158623045764064,-12.4740956682996,-28.186213763824867,-42.85682575663916,-58.171655869571545,-70.79837987821205,-84.81669883778795,-107.95869654101867,-130.25958378437943,-121.79713672337613,-67.54153499045209,1.949406751889456,45.1324931390026,58.60782669410777,62.94100791179267,67.69059372749486,67.82737758981337,58.991654264084545,45.7260265557495,36.47333748939222,33.125332952475674,29.77951978113947,23.30394027777506,13.999494201124161,3.18161107029028,-7.686070380706096,-19.68922856006229,-34.38575698556293,-50.67049667002619,-65.22503843731695,-78.4407006302886,-97.98097094501807,-120.48349369205995,-115.78319796755143,-62.86780803799593,7.477559344506924,53.138525497150745,73.18621481769183,84.79636239897273,75.0,93.0,57.0
12.626870646220071,-3.6664904591112686,-23.07376270059571,-42.298221365563265,-62.15187405798301,-80.73266923167158,-94.70501119358804,-112.12980630666408,-137.22449356156346,-143.89066154861217,-99.8617803225165,-23.034478473613397,36.73800687154455,65.25639365521528,79.677947814789,89.13797072966167,93.54107792086765,92.36870641293063,85.04168046917898,74.94716307428497,65.3801374253872,55.4185239091748,44.017219676194365,31.74901027017087,21.343486644277036,14.496723961730657,6.936133330593367,-7.087317793219107,-26.94830590589084,-47.59311517468215,-64.75053643105498,-79.1926825879714,-99.02347260893012,-125.93525883048632,-138.25244877149078,-106.20702023015023,-36.40084060771578,26.60733163358959,58.51812591465767,72.62903297444974,81.16101936047457,81.11740112454247,70.73842420797882,56.10041092945016,45.22469676020506,39.057295499107994,32.140009837597944,23.836360913569624,15.600184559428989,5.969913939090093,-6.675800423963641,-20.83457917737527,-35.11227275194381,-50.11816429307433,-65.11062718302367,-81.8021512839054,-104.16950682782335,-123.07703471671745,-111.58407710437724,-57.13775640113927,9.10448622180368,50.53729405767208,68.8520093347244,81.45184056638855,91.08987000076394,90.7860280540141,78.59779249201135,60.8940632076801,47.143582562601885,40.72181479855987,37.019760086712054,31.95795916575709,22.773014957944195,6.810664989334738,-12.17608475458766,-27.180994613663678,-39.726861658821726,-55.8943861974343,-73.65325384820792,-90.36201410998156,-111.80167759476979,-133.72100823709505,-126.04169477963113,-70.61049584845603,0.9452567574620929,48.45441383967461,70.36278674323194,83.12329718692729,92.3738839836228,95.84865270103015,90.89760145982747,78.15224320490354,63.43179332324917,52.716604279408784,47.06917741361535,42.95951013260091,35.58034225510924,23.668543458878787,9.114220949083004,-6.343683959267218,-23.778774941133726,-44.2829102452712,-65.6998258535414,-84.09898766071645,-98.5096854192168,-116.55760405564568,-140.1286374771226,-143.42096195995634,-99.18497264617884,-26.97834183671297,29.506353576297762,57.18857079612252,71.67338080539285,82.96897584357701,86.99943494671182,81.01974605306448,69.81183706902159,59.742905382123595,51.93131188847248,43.33111372064986,34.608680449475145,28.766287232821217,22.907337659769272,12.046555870447834,-2.51022867380329,-18.414065940196497,-36.384013258548265,-54.75688402265054,-69.30515021737004,-80.7513145809794,-98.11654880410029,-123.75615579820202,-136.4880919623559,-104.6646730666478,-32.26149223051584,34.76662656335934,67.13283871668362,77.80364992996135,86.72431666609266,93.55466836369415,89.47044790843302,76.78766553746067,66.33526524663328,62.25381494730897,58.567810682411825,51.271212243714814,43.07276956074269,34.3111228569604,20.690570454504662,1.2694853195031832,-17.426033223149883,-32.3078465943949,-47.35808599229967,-62.1460289886817,-74.2569599053192,-90.50934576332118,-115.60225998049302,-132.3465368668457,-110.3380130856749,-46.80085541016021,18.136656788199495,51.24409792106971,59.998007888679886,64.33480924915311,68.53842007975219,66.16208696766563,55.22859947672831,42.34764666356262,35.10147076766335,32.41045194996045,28.240475059186355,20.868572155568206,10.94495642564839,0.03364360739437702,-10.932312967445254,-23.651538172821745,-39.05236453557874,-55.189334020675744,-68.92581848908567,-83.11357430769175,-105.07426524368682,-123.58128112409655,-105.09695639385654,-41.97364704410984,24.08468873130547,60.725027998862515,76.90985911898323,87.55795171373003,93.81334036180594,92.78370550539579,82.95185536483089,66.5228951434814,52.85858594519647,46.96058188821454,42.81592995453131,34.23788861179303,22.85020929986923,12.200374019304883,-0.6252688729727404,-18.889375325073154,-38.51247301800717,-55.62966752941125,-71.87682468023563,-89.24301337281874,-111.74352666395339,-137.71533320132156,-141.3634766405427,-96.61410741306192,-23.706723974297585,32.78328416307118,60.85605601712473,76.12217952335092,87.04758389708553,91.00241396564662,86.04389066101263,74.37667072164047,61.15008513519003,50.41149643276177,41.832674605892294,34.151357529552484,27.80807745246927,21.761001482896997,12.705334048740525,-1.806172898473701,-19.859070585707094,-38.07207686428435,-55.887944374551836,-73.52484752654956,-90.9656404549277,-111.38635735101663,-132.14993876781685,-128.01176382051622,-76.4484954726991,-3.7022079306028113,44.77784098860697,63.870039147969756,74.21390541320442,83.73487917365156,87.19295613143865,79.69270452093282,64.68976966587513,50.99250577954315,42.635963951720896,36.70230773770274,29.716225045954612,21.011865016782455,10.903774004610808,-1.4645201089865103,-15.566543632462324,-30.512517541419037,75.0,93.0,57.0
