-30.8632093624184,1276.7066115901061,1636.9127303646114,1367.7712094951214,1142.2821770146172,1078.3397030882602,1010.3892837515109,892.2547785318002,767.6235034211754,658.6862716717166,591.5469035179302,595.4494898096722,625.2710932176593,594.6470744849937,487.83092407661707,361.38314075084145,261.99852705996716,191.68986383894767,132.44442574843407,70.4865260293951,6.372898921856884,-47.56287259386466,-84.41001343964523,-110.02435053325009,-135.23254151251038,-166.97162076988266,-202.87178364337979,-235.11364331696893,-258.11941960586705,-272.37478601698155,-282.97695800928614,-290.25609323525816,-291.6706694131088,-290.76347269822986,-290.9369568810229,-288.7201743174247,-281.51923594245466,-273.3522356917278,-265.10382726935256,-251.90666214450923,-236.34874016728384,-230.89401077584662,-227.4437593468111,-178.34271084616367,-59.16626275809282,66.65373162382113,118.42469628883701,98.07737560032876,64.49654094441937,53.80487406805736,62.308064469489175,71.54589298099954,70.11605524567382,62.738890506809504,62.217615553278954,72.61343481814191,83.86418238267173,87.81396146215478,85.12353030053853,75.91729513052402,62.89488373921171,52.408762961794956,46.451393025143155,42.963828640686685,38.54304795268456,31.163083991540383,22.772615175763587,15.39266171760437,8.610042980138594,0.9131352920071528,-9.11711332182583,-21.062434587108683,-29.92546469558095,-37.955845639511026,-56.25118581236082,-71.83955950028837,-36.781092923455226,65.86911757626136,168.567775997178,197.32536418858552,157.7238831188968,104.64883294257669,75.66843420440864,68.97063531158341,61.85166618570379,41.70569110247477,17.194522351806384,3.618956808042138,4.947019705730964,11.832409458840212,11.521734847616129,0.5954611362117778,-15.047802285107338,-30.41801353337194,-43.70256887326002,-53.33788447792816,-58.25430263977543,-61.93075753350373,-67.14328783035866,-71.59891453801941,-74.44733242153116,-78.361840567866,-83.90638924366861,-90.58754927708145,-96.00742988530956,-96.97343859599323,-95.77319864561531,-102.33032786143956,-119.2185085081064,-116.5113415666635,-49.741739803366585,66.73113061674671,153.47681456554238,162.60592845853284,121.70150109476005,82.67319858036778,70.8380903786552,74.87943060946175,67.69172308882995,43.94783466113596,26.250099431420335,29.54695777936022,42.51748347564202,46.724688413668446,37.64050298062814,22.17868849607609,7.844554929400382,-1.3382045072720188,-7.76591538997583,-16.39294938334486,-26.11698755534544,-31.98919750884799,-36.192392023423906,-44.73283833143675,-54.26322405856503,-59.76548959778588,-65.88999118521878,-74.83146378577891,-79.60334274340606,-76.60668567901315,-77.61770182111292,-93.05548476061179,-96.8952268038319,-40.09710195643451,71.0653372659135,159.4366068670127,170.74143435418563,127.13215739083213,82.54475052143522,63.36997137974813,60.82717426602773,56.81894135247457,43.642188007947446,29.1126629214565,24.057098775710497,27.88499422614404,31.206752294682666,26.10488820040771,12.695070839071082,-3.90329153040405,-17.98770932601997,-27.67856498273968,-35.733834020501384,-42.90656847494351,-46.78720502751145,-48.0532382391657,-51.48895131439538,-57.737788680215054,-64.15860433220583,-70.30817051743115,-76.28075986246479,-81.27964341960865,-83.9139559066196,-87.11431810004841,-99.55004056563608,-113.66458624641746,-84.83089453350847,16.84953788742413,135.16880467663205,184.96742233076444,156.86537496156467,105.6920294952817,75.41593137080164,70.47383267288488,70.84833087790398,58.81606305320554,38.574382134074746,26.97402957473645,30.11783039252926,38.553733970472074,40.04316823467376,30.782751603765742,15.275728900027616,-0.833801450260274,-13.772462666093013,-21.597570168660884,-26.882224052181225,-33.51046703369181,-40.79217622793527,-45.91972273777452,-50.14314044144209,-56.393100730880064,-63.07528168236844,-67.14002388496931,-70.62045629330957,-76.88745485370217,-83.3821901249446,-86.96601873542578,-94.78868559855175,-109.91344227127146,-98.63945972125757,-18.511879821073922,101.16858395830147,175.3169499555093,166.0862869851521,112.93598747364676,73.64247876655982,65.59049571119807,67.80148371135142,59.18991790877076,40.921671918733296,26.97888628098008,24.335431871447824,29.270512362884983,33.75348093386592,29.800411930705344,16.31550461939742,0.6980256257395294,-10.670208184720323,-19.420315509476378,-29.33534805266095,-38.91109681189478,-45.18060656280751,-50.62049419216168,-58.35661557172606,-63.21009385489906,-62.215151607972864,-63.716920516207324,-73.13331495384202,-81.41785166021337,-82.97336280181368,-90.42383828005546,-106.7578252694915,-92.42951378543029,-6.2733390803365054,111.58966734711481,173.3977773641944,155.6130485686798,105.9953837898703,71.3704922869665,50.0,103.0,56.0
45.323016576179,41.94123853549802,36.689865622885975,28.71103062713986,20.510328547946564,13.43942317379257,6.5396432377533795,-1.6819663058473493,-12.537405904850779,-24.135533390299305,-31.819578094674796,-41.962041841202314,-62.752020667284924,-69.10804286814681,-12.520695041496062,99.82060440151554,185.89640218710963,190.7336960569589,141.39125554721466,93.17901624907753,72.33687092169481,67.92385221929096,57.33390832115349,34.32831583120196,11.667837079345976,2.6952520495711987,6.977962104704767,12.894365163617145,9.274006800115613,-3.736063182303285,-19.638725970146997,-34.51265255478198,-46.96689136566446,-55.17317237072555,-59.2268986251084,-63.30813165851127,-68.65144718687085,-72.4770742458389,-75.38943554303982,-79.81548666072567,-85.7654042880562,-92.45876701742506,-96.80077640888307,-96.51846998585499,-96.37789075525578,-106.71461601416532,-122.67913513556876,-104.89307798992314,-18.25636239797361,98.42864450585589,164.07160906155508,153.4875127464056,108.38658180807641,76.336521602893,71.59123736906984,74.88391361885454,61.83111650591978,37.071255380562526,25.110001235226594,33.23866469813588,45.165122882679455,45.263956413508055,33.44964043537441,17.657100975010803,4.629288332179261,-3.2176850686540117,-9.925784741470936,-19.327770309572966,-28.318656063149994,-33.04056689455948,-38.137413674321536,-47.76011233388805,-56.20486290694859,-61.18431262642453,-68.36743647976411,-77.02732972752626,-79.30915637574702,-75.68360101675941,-80.83318146280938,-97.64107919509027,-88.17181873968707,-10.912671854410746,102.68225362313342,170.98086727429137,161.35416042732265,112.3659701787544,74.30634429262831,61.781708037774095,60.45744651221405,53.865452597127316,38.98423659336949,26.44688926880145,24.584132375912667,29.363550923930802,30.75191872454686,22.89998015293628,7.9591768051366305,-8.431821970050162,-21.15949477166829,-30.046582854170325,-37.98929603024015,-44.44830153119725,-47.232769317876816,-48.65318057508933,-53.14057454914887,-59.633204143742624,-65.95324834689288,-72.05891930415987,-77.89927945004938,-82.29756706750956,-84.43489310390561,-89.467334605121,-104.7931051137609,-112.20790378689067,-62.22810592332331,53.69576075261523,158.8914525135164,182.96075491869925,141.7875678173852,93.90149219841041,72.0212074947553,71.10603765954484,68.92802932195444,53.0832579642638,33.714316271002915,26.57179304558342,32.63021763522183,40.073515969272925,38.37360336284525,26.657922739889205,10.491660359974288,-5.038583537789124,-16.54309296388611,-23.16829389915449,-28.58724608603548,-35.69234269024582,-42.54691805895329,-47.060956035107495,-51.70798039754774,-58.46085308610394,-64.54546806045897,-67.99391714602557,-72.12945753486414,-78.98489978426687,-84.63194072524077,-88.25741095401689,-99.04872599366483,-111.79946589412349,-83.12077181809079,15.58432837534149,130.57770916422172,180.62576371090233,152.35302718008083,98.3857446882936,68.60914597931743,66.42897081623168,66.81852099551881,54.33880642888213,35.885230496435675,25.080283514425982,25.292837830044846,31.0133185548531,33.71835663151868,26.666919112178466,11.615426350036907,-3.0994497690584386,-13.24412874283123,-22.119134628141868,-32.31811684629997,-41.08171170084819,-46.59196999258255,-52.6983058918954,-60.38951381389113,-63.32909046682748,-61.90101195815025,-65.79577345869849,-76.20865969324436,-82.282821796985,-83.78644096155377,-95.12545798684876,-108.37973933208286,-75.08373799108205,28.568465954314,138.1145969572778,175.0808440993021,141.8990914623661,93.29810184836872,66.41497392268657,61.55616074259397,60.959853221694615,50.52853410856511,33.32511034104359,22.37903041894146,22.93354126050279,29.123333738405385,30.758072634015807,22.26703557380292,7.5407187113531915,-6.821589532727863,-18.688294235186774,-28.778811774787904,-37.00605083675721,-42.17103613178685,-45.67157599765548,-49.962879456720906,-53.24300541354431,-55.25596197783877,-61.41428763457797,-72.88345623706712,-82.40722171299751,-84.07535875300705,-82.44110173856464,-90.93606436381778,-110.15997137630815,-100.1380988122964,-14.866780257539567,110.51634670193036,180.32272451085927,162.58510964817964,110.21996278470134,75.69514123146315,66.11187199203856,65.37061356136839,58.820649178048065,43.77041240453378,30.881434029767398,28.665886360554875,33.92421468282705,39.13589049750194,36.47995093725396,21.18314168188093,-0.4911852469988228,-15.905865331748469,-22.55478030252539,-28.51059079006181,-36.793400573702684,-42.658945758107066,-44.735556312437595,-46.60747451264202,-51.840475704877804,-59.80592933669394,-68.18464580801174,-77.11001385256485,-83.97975418248083,-85.64973064411477,-88.54443614655594,-101.348019601719,-106.77222073623541,-57.221347614784904,53.60731578630526,50.0,103.0,56.0
28.943263718965085,13.388356430384047,1.9011067602967884,-5.003843220906126,-12.368052103899148,-22.241066511805304,-30.084476903486234,-34.125030962946795,-40.55435187555774,-50.65456910257253,-57.78135141934867,-62.84741965594388,-71.03051208339855,-78.62989250908169,-78.39689544493615,-75.55555856514023,-85.35133214411731,-100.11837421835845,-73.20822066018142,21.718020261784684,130.10475375526963,175.48592335830227,148.6257982488578,98.79857114038637,68.39839194776461,61.12593671935157,59.553636033381736,50.111883516684706,34.54474690024309,24.769737957954128,25.704781733071577,30.527768342843878,29.46311161498353,19.086734646766764,3.1008215622121846,-12.615401189420155,-23.984248551598444,-32.36835783683567,-40.135496363115955,-45.647217919398,-47.539457378416984,-49.56444663756532,-54.96077944081804,-61.49540621654272,-67.73185261384842,-73.79663110728303,-79.3999302602221,-83.0843674359483,-85.15245893230768,-92.85238645033861,-109.67277640847834,-105.68633472337513,-33.40027256131881,89.58167826289632,175.1456239472206,175.2246300246435,126.38349313759234,84.54288314014089,70.49173944679492,71.56060816861032,65.68820292263197,47.01887309018103,29.995168894897777,27.362734134902265,35.24406093934167,40.755943831493816,35.82334563790543,22.172974535132987,5.771124456404272,-8.895687014983618,-18.866292443436244,-24.645225544818125,-30.473535436434176,-37.85604306596808,-44.06308933303935,-48.219040643214896,-53.49013100870778,-60.467132202209875,-65.74757011108804,-68.91540257951209,-73.91890852582517,-80.96441929043984,-85.61339532858706,-90.22560118178725,-103.80470937964503,-110.16898002133274,-61.07731242577588,51.254677488400986,154.0163655036584,178.9161094735568,136.5199754724285,86.21796650860148,66.07615271688002,67.3931405051487,64.5903306376597,48.94417294979234,31.578302315400776,24.15674320988163,26.72718131878022,32.498802644376916,32.80499236713522,22.8125506855635,6.977947814996444,-6.453824141937304,-15.721180280519492,-24.97570817402564,-35.1736109639765,-42.92853318489714,-48.072425726111454,-54.98304025283138,-61.9675915535166,-62.998466116805616,-62.10105434256259,-68.52927254798789,-78.83500045878012,-82.62347705323455,-85.57517274830968,-100.33880455529325,-105.98075476846387,-51.12562482916423,64.01038392800702,157.91121701173103,170.5477940750115,127.0711022886062,82.68216790439357,63.4080340723209,61.796902398608424,59.18813905169968,45.691211438725844,29.037835372517833,21.45631228406095,24.579659265789076,30.479683973756575,29.334556802997135,18.317202817341837,3.1619587114394805,-10.491921325353555,-21.74973836733041,-31.407740356477326,-38.826675898816475,-43.20306075224815,-46.82232489910577,-51.15700434727777,-53.7663505949102,-56.378589528864666,-64.39080505928654,-76.23311947182593,-83.7301114491917,-83.43042613147686,-83.28003936819296,-96.29532185677498,-112.963283593544,-83.76135776720072,21.366235629608386,139.89307547308724,182.835158133492,147.94785316309384,97.27864002111725,70.94628261197224,65.76718423812879,64.49763732020746,55.04504108400981,39.23757150660538,29.09709044075813,29.74427722126612,35.768338207315814,39.522121006044266,33.331112099875114,14.998916507187618,-6.003997977927947,-18.447774799935395,-23.994628772330437,-30.82540411987547,-38.92709618192391,-43.54529950423423,-45.092318892366464,-47.70796543369955,-53.992317687466624,-62.21583090328231,-70.70618290912336,-79.55020916904655,-84.9226513965018,-85.84158796024997,-91.20716943264468,-105.53931624446543,-100.01160963181242,-29.342514448754827,87.25297066696766,165.18935412910142,161.7235670549568,114.80008071906879,79.35632149890844,70.05375083411222,68.25748401007881,57.880070234771345,40.23829951970348,26.17737113278889,22.53894545591505,25.263194152775423,25.979251215784295,20.13204839512691,9.95328253358202,-0.4906022352770919,-10.962267814263804,-22.063831251084313,-33.418700014668474,-43.59043748577212,-50.72860971593214,-55.12619233561242,-59.122503556569285,-64.35769440593529,-71.291965616921,-79.19993849469597,-85.61851961950278,-88.45684540229023,-90.14782373601821,-100.99272912943471,-112.50387470898627,-77.82115472001684,25.61504075759501,136.30146058556366,178.5237965451601,151.42305636821158,106.53539844097446,82.12513841673896,80.62264388080285,82.8326501310485,70.01903192375114,45.612122248880965,31.59529396645364,35.97828082451777,44.00741762510451,40.852555555727164,25.00808644726928,4.609631794166315,-10.488276345340163,-19.516706712077784,-28.901230521814682,-38.94508510529932,-45.86216191399871,-50.6912643441334,-56.70177864694719,-62.639706082175664,-67.078958449265,-73.17981778076143,-82.95373455898873,-92.12471128244495,-94.22392192827529,-94.99231734108209,-108.84717153697947,50.0,103.0,56.0
27.608388574526497,29.091887654223783,37.62112375605558,40.49283001938844,32.51830896445989,17.4764464664288,1.2003479010650013,-12.338051513374435,-20.80548400721265,-26.15090861008802,-32.524066083399056,-39.90720663317327,-45.369152248317256,-49.49433284699045,-55.450389508077166,-62.30632252887782,-66.73290076538031,-70.02294422513562,-75.92246294751476,-82.69353376565536,-86.50775412522371,-93.11861813277642,-108.26392565782945,-103.62712414621092,-33.07972936526224,86.06862249230893,170.33863403061866,171.2439450843424,120.21254136951964,76.92208791900146,65.44094354077141,67.8739646541938,61.142610713069715,43.409051673417025,28.197744552364988,24.104408578903158,28.442778641733764,33.506152835842634,30.960128692085576,18.44048438419779,2.5946013933056546,-9.412585824042159,-18.22782610663045,-27.948136493815735,-37.79959467580753,-44.51049500455533,-49.7545068928061,-57.319194891706786,-62.9611896599516,-62.45561036479089,-63.02180786220776,-71.65416207501731,-80.7790276569828,-82.81032356573643,-88.60307924946696,-105.08363680722607,-98.15792463705776,-21.444882343197776,97.48365766916017,170.24303250354228,161.1554480884754,112.409809958926,74.39863186392218,61.93754264363597,61.89606041628079,56.36711721537374,40.56171254657565,25.595608366525113,21.489362167841364,26.473395771449134,31.196401522603573,27.01980744058015,14.028201251101054,-1.0525956737861966,-13.952896815147179,-24.690531934660914,-33.85418169422915,-40.36489895370187,-44.175672623568005,-48.07573389131297,-52.16775257006056,-54.25488020251548,-58.0089910216158,-67.74206100190793,-79.18224635072069,-84.32193051901255,-82.74210918407452,-85.35815701840119,-102.30048708582919,-111.85300677389664,-60.28633382716826,58.946672165959974,162.23386253350372,178.38577351007623,132.2143714710565,86.69553762682537,68.02629522546016,65.71440642026278,62.84127013462852,50.655303465358465,35.24031520418842,28.293724708778214,31.273071632737,37.430188138061915,39.04608488870029,29.0767419464025,8.571436879113877,-10.692784342421525,-20.363833402088225,-25.61661880509601,-33.28271525108091,-40.72185895150692,-44.15078079144855,-45.54830398851381,-49.152135482449644,-56.30368711681078,-64.62185545915351,-73.30350795036769,-81.68132600807638,-85.41144518313416,-86.40890665889897,-94.8701705124707,-108.2699881702808,-87.31439320536315,2.9257467360498564,117.30909722014977,172.07085847795298,149.80594521876756,101.78729104717762,74.49440547889044,69.78293819695163,66.3875988028614,53.11984698078479,35.31395395096231,24.04539212902834,23.050546005161657,25.996482303267243,24.987158743111046,17.412197349944147,6.879186161452451,-3.4609214955384666,-14.112734305893246,-25.350802046499105,-36.57918048442163,-46.005406494664186,-52.19822303191001,-56.21171932179838,-60.481532612441555,-66.17679605179147,-73.57022118754855,-81.32092948207097,-86.85643967014961,-88.6899142212729,-91.96873043268808,-105.7801374656364,-109.5692166210451,-53.80065962023254,61.03269593109976,157.23765562858463,175.88791881251638,137.92393498147266,96.65006403261518,79.95667956737724,81.92598543582072,81.07483050691627,63.29559590822406,39.61117208156269,31.342647176333347,38.78876741895016,44.56416945773245,37.343544945838,19.089931334799257,-0.5802274895098004,-13.443813912983748,-21.99705852555794,-31.92577113772327,-41.34430601542239,-47.28779619172471,-52.26248035375281,-58.57039036883314,-64.00045652227833,-68.49414849111973,-75.67863703402261,-86.0185078145918,-93.54853306142634,-93.8892718918247,-97.32568565113667,-114.85377700719317,-122.08153398524028,-66.02046175896834,55.0564433926729,158.28635773128232,178.64004694603696,139.83423988217746,99.03325195756301,82.71637128862722,82.32752896384784,76.43484585838587,55.049337593927696,31.209075866169535,22.345772959056408,28.100520383498278,33.20159001705225,27.283503224918736,12.061280070348209,-6.575622090199696,-23.792570590950383,-36.857215175316796,-46.23436631140636,-52.82279257956607,-58.14819738894955,-64.87016455171057,-73.07890422251657,-81.21467487530315,-87.15210349792068,-91.28634623242434,-102.8570372025396,-122.37980732521555,-111.80079786562696,-29.86385977615491,89.32042064910905,161.7486823227475,156.92252540567173,115.98975232905215,86.43542447348878,78.08547484459213,74.06669287677387,58.57945160056148,34.35644048122261,17.541151594239672,15.536590398896179,20.666787301027608,21.646462620567767,13.294703913011134,-1.3481804069164962,-16.308768441019907,-28.520922177468414,-37.53488902043572,-45.16661282256674,-54.93695982222074,-65.52951950073263,-72.62318329927011,-76.58024445011502,-80.59154344044427,-85.63410710879063,-97.86098485891794,-118.42105052590178,-114.05036817840048,-41.81415778203048,74.885491964344,50.0,103.0,56.0
68.4363433735908,61.52675062249757,61.44370636081906,52.561492003680705,35.51945644779107,23.15201199263247,22.32878365339365,28.343993394123952,31.10314188414552,23.918541724098514,9.590763564498552,-5.053760074541939,-17.23072901623394,-27.5171398001736,-36.071800765002536,-41.648723883279025,-45.17934976848658,-49.3741851306851,-52.95263282007313,-54.87608279201181,-60.20961828906107,-71.2657074403407,-81.5482363807587,-84.27001563100373,-82.38392924830305,-88.85385175455728,-107.9929307578086,-105.31784546141247,-30.401644825857378,95.0881831870378,176.51807580887376,168.49187237149368,116.85510175863091,78.61210963666774,66.48508652836286,65.56637043723184,60.29414861311435,45.94975614622015,32.040439701493035,28.37365216568249,33.06218141245371,38.72099919968829,37.54634374374794,23.8543871504261,2.2722787403280647,-14.46717880382825,-21.901373877969494,-27.527346438736817,-35.7208039429255,-42.13494657430104,-44.57238091046115,-46.209477595468826,-50.92548426819561,-58.69441688213523,-67.04830829916547,-75.92360150283507,-83.371566015035,-85.60081484025784,-87.6625906705161,-99.24882527835022,-108.16990716639711,-68.1764550603399,37.529896334843166,141.83484374604387,172.01325442908396,135.81194995123488,90.85336351116959,71.6712326978684,69.5252482313267,63.57693200758856,47.94032883316409,30.993203928239794,22.848285064534405,23.895697585937356,26.36345671613623,23.396799067909637,14.45238568712957,3.8551274993721734,-6.4670265326194,-17.31417396446531,-28.64874811508196,-39.5865121819022,-48.13145316266461,-53.474190631571396,-57.33299472968449,-61.96084326008473,-68.15049118913456,-75.88739270235641,-83.25220241741883,-87.74606040850172,-88.97075099825408,-94.88627548920282,-110.01857278145283,-101.2945414670285,-24.199201323418176,94.72105722346998,171.06702516425486,168.3252894938526,124.36505763468796,89.05183287022335,79.4453608161188,82.94930203974855,77.70962828554443,55.9890004350875,35.076764854604185,32.53374247422579,41.398130914785305,43.94111130772656,32.86492654842887,13.055723111241742,-5.111167447423354,-16.014097802898174,-24.66451697171447,-34.91220377829521,-43.40340848376174,-48.63551179974472,-53.989369896904705,-60.34382137615598,-65.24982652794894,-70.15957629037632,-78.49083964763226,-88.85016432114628,-94.25012229685534,-93.77800484322958,-101.09938314429466,-120.27163624953081,-114.26954666153965,-35.17133813683875,91.09196253926042,173.19053152971944,170.83373962957268,126.25598502409565,91.69264603769207,81.87557537231028,82.05734840629212,71.64850542105047,47.4735942179304,26.69292152093282,23.063419753559586,30.342271035298346,32.73357405604401,23.578642347771027,6.789535918072684,-11.876956939279289,-28.020396980265524,-39.8892185601833,-48.397769851226435,-54.362644882363796,-59.87740170712304,-67.15504769575558,-75.51054882043086,-83.26359443738276,-88.28801583792027,-93.34893142872303,-108.54465711367669,-124.94221706199458,-95.78751221345554,4.45230750189354,118.08167448035137,167.39111945625226,146.2011850158596,105.07005330095282,82.33461454641888,77.41361500827779,71.06269763648747,51.841694505214726,28.075598358690684,15.5695745271781,16.828169899712403,21.768706340575825,20.192699324563808,9.433449191343552,-5.850345818672294,-20.1651011733369,-31.43859993715186,-39.70990540646636,-47.69247242187111,-58.12654017708208,-68.04913130967095,-73.92336772357771,-77.67258668326373,-81.83989399245014,-88.00035231837263,-103.61854395270532,-122.08795738576832,-100.87756068806804,-9.411315709272547,105.17471894021281,163.97372681962656,149.90374271360773,108.4034951821738,82.23142789969353,77.50105938312082,76.08097709777698,61.35460442287649,36.97254410554699,21.09603044553787,21.495097018687623,28.361623387532813,28.790642897135122,18.62431598795527,1.122983211736208,-17.93904802355383,-32.38762138371537,-42.54976496254738,-53.60153864638849,-64.23655991195652,-69.92273059319315,-73.31107046291326,-81.28055572677472,-91.60143866119985,-93.69774315837894,-88.94596960940333,-96.08322145906219,-116.75148983036148,-108.79583097912838,-27.614200153843345,96.05461525052993,174.99537036412414,172.00320224715497,125.70053597648754,88.31419109225737,77.36777574823249,75.42757800582203,63.15198039613763,43.04383359431354,30.469354608674667,30.486091649498725,33.25368899483529,29.983941428328933,20.73024147557156,7.426050527436873,-8.837848150551327,-23.589410619661045,-33.45472984886092,-41.93981589761118,-50.69760076658932,-56.836511157010264,-62.12109313823512,-68.48597601914467,-73.9357227519855,-79.14256187233957,-85.76651771414596,-89.8212756776272,-89.69856108117853,-96.8614907540764,-113.27335939138419,-98.18848442456981,-9.811713955577373,111.22715520544372,50.0,103.0,56.0
72.05086884549067,159.5226445493479,166.06362402878275,121.29463305482408,82.39837601832818,70.33789076328428,68.82291775821471,59.861847627333155,42.637821528123794,27.48453261977897,22.477786438171407,24.84778686895073,26.232375821835753,21.267480833919045,11.379575817163834,0.8757946025156521,-9.529494839034166,-20.5571099793937,-31.926704091050826,-42.38421558201945,-49.971081636618045,-54.62118787521079,-58.53423494523905,-63.569307890675596,-70.2715542865953,-78.17470734952785,-84.93820467242271,-88.29728751648894,-89.6227137846052,-98.87791256764105,-112.42083498783724,-86.74849511921846,9.378448249016389,124.44376408388472,177.72811385140346,157.27794536682126,111.78655293226313,83.79642626618785,80.09102749890033,83.14676326174317,72.76620672623369,48.74683598652115,32.28029416464568,34.74877311846212,43.38875693426868,42.10026510218104,27.618836488217735,7.1875722099913455,-8.942577478993694,-18.41303085553985,-27.529331064488236,-37.73180192072578,-45.14605589677839,-50.0176454213777,-55.833093211285956,-61.95703563152277,-66.48387419308973,-72.14576854551052,-81.5222751754933,-91.2309189573931,-94.33124003917548,-94.36459596513842,-106.18341889790825,-123.73608006138082,-99.78575884075867,0.17419969971910876,122.99898623349499,180.40682743188611,159.48523036425297,113.80881848050528,86.60989272875503,81.91009268712142,80.77418130124812,65.55208435108175,40.21233534538379,23.765164456577647,24.76114579204707,32.09674251516602,31.224289501714495,19.234175481388576,1.369836725277782,-16.950726364850627,-31.868593761852235,-42.648948424217615,-50.336898680187204,-55.86056467713434,-61.780778176203356,-69.53034772934559,-77.9014694854078,-85.05642026677805,-89.34573298852621,-96.37253862370873,-114.66724022340534,-123.58776455362988,-73.15231225748062,40.039911274525274,140.89050190853592,166.7378200056877,133.94675443536948,95.97911455625996,79.83933059518372,76.56038328151118,66.83556795853696,44.66339113550133,22.848964274608008,14.835570524234994,18.42159836744816,22.27260360682645,17.917503674544292,5.191673047090243,-10.241874515928373,-23.759165844061982,-34.08532430680773,-41.85296524138375,-50.476013340046286,-61.276550078493706,-70.18283472386369,-75.04316681612237,-78.82699526067704,-83.18047492111778,-91.23360693460236,-109.92225187537846,-122.40512119750957,-81.20586621427591,25.176364549177556,130.29890786406924,166.04842857435162,138.261594151949,98.29441693079528,79.2250710555173,77.73071901937556,73.49128130088388,54.573044733186975,30.781569784771364,19.72674655515133,23.477926673329446,29.530803587482705,26.88002035617548,14.097929604880049,-4.526887270311769,-22.761556192959407,-35.516186788459265,-45.53391876816585,-56.967410869669266,-66.45498363016627,-70.80040179792165,-74.97720512434555,-84.45991439811938,-93.4180596842508,-92.35992223953495,-88.98808961992694,-101.7258280021206,-120.05556654997758,-93.37985393261624,7.427416822648365,126.81934382880358,181.86403932003995,160.4251992837453,112.36415730535951,82.76325001006818,77.02740563437229,73.28653822428164,57.50555790502511,38.05565803233544,29.44231686722222,31.555379668419654,33.06492557606308,27.79765306663088,17.280219564462865,2.9095601289457815,-13.516223888297223,-26.89768381661763,-35.82363052097781,-44.57824600093489,-52.778048343533875,-58.27461271004218,-63.90641509887657,-70.22491340448106,-75.3261272909409,-80.97492125716774,-87.46786120132188,-89.94047904545722,-90.35768101924536,-101.5789290389064,-114.82694016771521,-80.33539478222758,25.87553910053167,138.8052892295286,180.15802114219332,151.9645779206195,107.3168874418492,82.29492918729824,75.71025304612935,69.23169239082574,53.33999773060715,36.055166202411705,30.21420828965084,36.062098076224395,41.92829012196359,35.935984710894104,18.293062701179423,1.0496226264422641,-8.381627137946815,-14.778319932886378,-22.836507892422166,-32.389309464327155,-41.958383876264364,-49.68587719023012,-54.834437390152694,-58.99956768709433,-62.86880245236736,-66.06787957605327,-70.5939625937377,-76.00158747364614,-77.98097403245373,-79.38354666773249,-90.84494014274345,-106.89288253271621,-86.48646690066471,4.473154234534041,120.52185681063074,176.55534699313358,153.4337852341252,103.53888941576659,74.48140464305763,68.81969978241787,64.17619063462075,45.7804861700299,23.036887864881237,15.23985145176016,23.586645334357563,31.94550626285864,27.674658996629717,13.458693082258215,-0.5396143465368646,-11.230724196034416,-21.82005481271451,-32.11313735674278,-38.59287377077699,-42.444069469151316,-47.3864432190031,-53.17765836155376,-56.912848846462836,-58.10416342881808,-62.069344131492876,-71.60190293015202,-79.22567643278198,-80.15526894445976,-86.06834386098998,-101.38081366410837,50.0,103.0,56.0
-112.08572949582454,-123.70249853546275,-78.24389246736042,37.72492928082762,148.8112995859017,180.59882265962293,146.2011607734576,103.19432251523119,83.5496859644942,82.2385935754934,78.14609845232418,58.49618480499872,33.77749363891106,22.44732896485844,27.006445501282446,33.07067171283267,28.7321928289937,14.407785308065765,-4.0820113329050844,-21.715625751322467,-35.35889169250498,-45.15829884257617,-52.07607223084252,-57.40189918939838,-63.859159201369266,-71.95474843916611,-80.20202164725717,-86.55602299812543,-90.574775864029,-100.54618465390979,-120.29340311924798,-116.9428058260277,-44.62015679836637,74.47522004158768,156.81415575802885,160.93973761640652,121.49258400838704,88.96796841951446,78.4782807875294,75.06925272625979,61.42342701281902,37.512432628812846,18.902273812766865,15.129332724696578,20.01222801925254,22.032560672104754,14.901055917722612,0.7354695848880022,-14.44664669967244,-27.08203547182949,-36.49101067795794,-44.08115714066397,-53.49070053044176,-64.25076565682643,-71.93236751596133,-76.0938194564063,-80.02798711902035,-84.76180014453658,-95.51990806916396,-115.99528847311136,-117.99660501177748,-55.44738114906129,59.66098023061441,149.03948093141204,162.50152373368883,125.77496894678102,90.19378181129257,77.79557030557369,77.67045571947652,69.50882152843022,47.32124308598139,25.784957578213714,19.69887464360797,25.63359541986671,29.89940826094018,24.08901917671624,9.075477068822897,-10.148162583711182,-27.057726997410413,-38.403140622080606,-48.706950265819565,-60.16825332819437,-68.17521548955811,-71.65408853483493,-77.17996906957606,-87.63652483794687,-94.26157045777306,-90.71880196832797,-90.58644084513415,-108.16845353297005,-119.48634460078273,-71.09084268741651,44.244715511716024,151.62428067101877,181.9056090531723,146.69614239486253,100.86355676791644,79.40288653660738,76.77917656121814,69.96734670215416,51.50749807004502,34.09395592430366,29.39554517496977,32.52442758048194,32.2492011254079,25.186559259793185,13.508979106249818,-1.8135903209163804,-17.912328870814587,-29.777482382722887,-38.22908537752333,-47.18642748067471,-54.57892291236819,-59.750882639733774,-65.77368585678633,-71.82161805072191,-76.77322017022055,-82.92996418458449,-88.78707972142544,-89.77350677223134,-92.05820225413466,-106.82992376758395,-112.24573288817295,-55.75360571587363,62.22509023853371,159.74337913860103,177.07682849807406,138.44202852888472,97.49908588927714,79.24541699044141,74.57919298179829,65.54803752851387,47.82553342176635,32.86530157324926,31.080602892535644,38.39448784766785,41.71056955173196,31.62613179857018,12.687053709516011,-2.4263065628787035,-10.220557211411863,-16.884729054378486,-25.5027666062865,-35.22755750905195,-44.46128021745795,-51.39522368918814,-56.05887887999776,-60.18435025069602,-63.816017092491954,-67.1421512082451,-72.25001234056842,-77.04006015651092,-77.9967802403874,-81.31617228640414,-96.17630497646735,-107.14564194480933,-67.24111852683347,39.47655466217586,145.56631769149024,176.46993357780178,138.92289441250458,92.05975956197267,71.272088956262,68.4023321973928,60.33241671508653,38.71073872812051,18.704218323294086,16.5511628304144,26.794896896794288,32.19102999052575,24.12839628028906,9.051722410821567,-3.857326997918665,-14.182646191577334,-24.99124891588597,-34.45704440389808,-39.77571389236509,-43.683655151860606,-49.08187067328259,-54.594973897386616,-57.37135312529287,-58.67663020398908,-64.3997848814696,-74.47859053172942,-79.93931505397141,-80.64038114989704,-90.23995864070206,-103.49739004226288,-76.562796754545,17.962265761517443,127.15908151225636,172.09905054920344,144.3484320679966,96.43589163214293,69.36226539995465,62.833424251926864,57.44396781134582,45.18877891520726,32.24890987542593,24.557882189318743,22.921023585363468,25.89180417961591,27.491761485171434,20.5216744041596,5.127812789556877,-10.273056510743656,-19.044263172500614,-23.650300158767685,-29.834986575540512,-37.59960096271355,-43.06944092045722,-46.27724564198046,-50.52309390537393,-56.14852765726516,-62.28392497460187,-68.94427966672998,-75.57697741580239,-79.31907675360299,-79.94268738147713,-85.55647049035231,-93.01262577691338,-64.51106221704698,27.640844042708164,132.79915368834534,173.4407785022739,142.727463359527,94.57083632450605,69.3116710296195,63.771612512827275,57.403492462115615,41.87985373075752,24.74335989381171,17.05782847820216,19.51948076873037,23.246475039865384,21.086651249541752,12.296412469304386,0.46829480939535617,-10.621918326690976,-20.33934274216156,-30.37227381070587,-38.47740456382005,-41.40382291999719,-43.44049772456044,-48.82434856309859,-54.77207939883219,-57.76914721541593,-59.25905873084158,-63.40652405186627,-69.46525018119736,50.0,103.0,56.0
91.75487701663606,160.8509165148032,154.60888061912237,113.62781898115333,84.25783280067185,77.44905693215453,76.83481824289905,64.19329068268368,40.124820711574046,22.225888104361495,20.744825463085657,27.60315939654324,29.358117436282598,20.509497219573984,3.6891279521045206,-15.560781092879884,-30.81737613348685,-41.22615539316072,-52.0383784746762,-63.05013865000733,-69.45089819006705,-72.70497562700606,-79.89263106169913,-90.48698532790505,-94.08731812909603,-89.33288374396783,-93.95297659463802,-114.35449096835359,-113.60976351986636,-42.53470366839402,80.33917446569876,169.3452413084118,176.19620493503274,132.2501461493879,91.69711009420728,77.73699483502709,76.04957860421898,65.52321229511544,45.607739342076435,31.330098657788064,30.04395170710164,33.14007913102542,30.826932313947264,22.21289956041637,9.416642834433109,-6.627713041993264,-21.904862875869583,-32.33952519234321,-40.74325290623599,-49.64374085119202,-56.15704027306469,-61.3408720397085,-67.64479172992006,-73.2884534401469,-78.35514797451737,-84.89725574828499,-89.61407333699039,-89.63819110404704,-95.04550763886176,-111.6022018172501,-104.10768417861223,-25.347627424922745,96.65918700128236,173.3208876424133,169.15200372070902,124.96291030046915,89.81941904639206,77.38105443701382,72.97804029277144,61.019302226560015,42.54969777662566,30.892555611353586,32.765334002186286,40.37082062965747,40.268337376055506,26.509571716647226,7.479792572692346,-5.212387321303085,-12.00506697836084,-19.179922169646495,-28.262226388512005,-38.02951530067033,-46.75846582278565,-52.89922866174362,-57.25526340636493,-61.3302082486784,-64.7113515981498,-68.40345736334515,-73.90144264355459,-77.67671396767243,-78.16816856418748,-84.38000257244877,-101.46417316203268,-102.96504447705557,-41.72059111635165,74.47818483423418,163.67996978995734,170.29303113493748,123.85649441881452,83.07874318262746,69.6475894094834,67.44195811738601,55.17230388327924,31.766566805402814,16.04230770589486,18.976301985839502,29.530743130628306,31.196927656318504,19.979919392217205,4.902030421346919,-6.934775345627445,-17.221285854882638,-28.060241229304363,-36.40222086706522,-40.844008284328225,-45.081949357858875,-50.79867651240272,-55.75454448599752,-57.661971609238904,-59.66297056279422,-67.17775272439906,-76.90127028592877,-80.1230630897258,-81.99446674583768,-95.04711190436637,-102.18175479864607,-55.4660410113214,52.04515090214416,148.8865102988664,169.7413112028193,130.02394365569032,85.76050463532725,66.18720847770612,61.88486979520512,54.48355363344157,41.144464454942664,29.389087572386146,23.48247472006883,23.462779220611257,26.871383364567418,26.54742673914648,16.666948934107698,0.24515904412171868,-13.552916318254638,-20.510485552901976,-25.128555554841046,-32.088248883675625,-39.53507130261005,-44.07668460210654,-47.30889234304621,-52.060598012233754,-57.8807995572188,-64.14508562156061,-70.94915962665243,-77.10368219185038,-79.59066280205154,-80.65409666491591,-88.55711832168565,-90.68370725096925,-43.83287489279527,60.67541940550377,153.23481471588804,170.02404821796156,128.0140154320365,84.33147045771862,66.6053741957623,62.74891034218626,53.7485051059493,36.53387088047468,21.247132925878756,17.040007660053476,20.890453599231357,23.382755820999215,19.11335379070781,8.99472086192861,-2.919943646923946,-13.49459668885949,-23.184092444388888,-33.14486380532023,-39.81227688679041,-41.77040878832673,-44.66892238456366,-50.699240052665075,-55.98764634203164,-58.160818725194176,-60.06382304728252,-65.19970269779485,-70.68688563547438,-71.82227312746778,-75.84738638242149,-92.14010670439157,-94.95409607241834,-34.95153838524691,77.32189439895706,159.06501201075702,159.57969738753886,111.71514273301247,71.6501431739107,58.766031815446006,57.16933426416542,48.5105932897535,31.86527195220182,18.478456321249187,17.64380140018523,27.174977416354782,34.91623222586875,31.22865586732624,18.01601504453539,2.817138426226406,-9.728661317118597,-19.112811016709824,-28.487981682311936,-37.974269938023994,-43.602864741481035,-44.590001027059024,-45.474970814677754,-51.61904345900467,-63.6831771081461,-74.65489094630314,-78.10701417307907,-75.75760539939554,-75.32176095488441,-88.13671959624143,-105.88645953925669,-81.78420806908379,14.86299583428775,129.25251653187405,176.11430893010268,145.10074689908527,93.00767702988978,64.49914233501367,58.894488855220395,54.322229620606564,39.218254032073325,22.174528199927945,16.47740578623477,21.03018742746971,25.689540444269525,22.945354908823308,13.320643259178116,2.1870179847927598,-10.349555880553398,-23.674100939429806,-31.438316490610077,-32.19081931974837,-31.96070172445986,-34.6872025413615,-38.16106021883445,-40.1706063554198,-43.35295602523174,50.0,103.0,56.0
126.84302476061686,179.57333906640594,157.87564657698374,112.51201071006389,84.23242231559416,76.18203187255047,70.61967790465533,55.85299445997025,37.89737837269322,30.159024231459814,34.966960034806505,41.65235877689703,37.575754369180444,20.92367237028315,2.9074693497718584,-7.466367138250058,-13.868815611491678,-21.648215943285283,-31.08020627066275,-40.74768466216808,-48.81876196295299,-54.248603252725076,-58.44895766112286,-62.40383686045107,-65.62113385073721,-69.86374729757782,-75.40113967676818,-77.94559405230302,-78.82539723595033,-88.58212324622616,-105.67011230898274,-93.1452643817669,-10.984203757814337,106.99596620691938,174.2305747393729,159.50128426688786,109.5737043189534,76.64679257273474,68.98275608167354,65.4925471776479,48.92189433073986,25.529525273742333,15.114737216731992,22.068673444707716,31.428548004823398,29.0262307309019,15.532057707224515,1.0959097577367107,-9.883435430426331,-20.35490170063362,-30.90621140877285,-37.97352066671954,-41.91911441360528,-46.63102618735573,-52.456897824814945,-56.61584011433818,-57.93478559982612,-61.17852613372184,-70.20043578193314,-78.66233116918917,-80.10986283334626,-84.50174941411834,-99.64580735635664,-96.08480947616751,-28.640579334696103,85.18064135663693,163.61866211711103,162.05404910565613,115.55445711180691,77.4292076499732,64.3372168149706,60.544312064366515,50.95625713813217,37.26982235092023,27.045759004956928,22.904680243919174,24.33495991505153,27.530136877780794,24.73972912530006,12.215908618190502,-4.379035123386757,-16.191141643500934,-21.782752280125482,-26.858242028066297,-34.39291348313882,-41.184119712740454,-44.965089421588495,-48.50036203694734,-53.68257880180565,-59.64413017187708,-66.05879541134327,-72.92116364696058,-78.28995636285524,-79.66874702569413,-82.07738007706202,-91.36079808534456,-84.0434423920912,-17.673210597561884,92.65265438925913,166.696731573618,161.42343325676413,113.41783810664224,76.5517569236298,65.0854093849794,61.16881456599127,49.31709393867081,31.353740582466735,18.775241226743713,17.738103964955755,22.1134876105078,22.909021691261042,16.632516401352117,5.548964411772547,-6.168424014825322,-16.281920597285815,-26.09952236817111,-35.628024364637724,-40.68630839515584,-42.25126059311355,-46.20691825897429,-52.498206018423716,-56.90150540065634,-58.52195000338469,-61.190591289526964,-67.04825691356949,-71.44640950974207,-72.02114146503419,-79.48844510143458,-96.66071783545789,-85.46386339759736,-4.9071703434683265,107.90309725743651,167.44946576736726,147.93457661902352,97.57342333953787,65.42749477053997,58.19054161301858,55.79597098123075,44.13144338670605,27.10356708062917,16.784391089078643,19.76462772587722,30.19258611495951,35.16970195691727,28.05211300163682,13.547813422024852,-1.190026503029857,-12.660109615667032,-21.693506382694387,-31.373742332004372,-40.14772997517326,-44.23784122854098,-44.58836144330837,-46.541373213028265,-54.67884010381606,-67.38093270495798,-76.49304203632501,-77.78821728716473,-74.93285393212216,-77.32392152530971,-94.21578652145514,-105.73064928864977,-60.64899808780877,50.40353868313687,152.10076445899352,173.23199231493865,129.42398892110504,81.59271455652339,61.42291157880163,58.35952363135323,51.00006880809894,33.76515617005448,19.086465882795938,17.15346552522536,22.801806385417397,25.81973832342482,20.62084112966288,10.11977333480178,-1.1826854131970086,-14.354805536893876,-26.741992595661753,-32.18581261713271,-31.92297058857293,-32.46037867246023,-35.773875928406646,-38.88370190018405,-40.73131616208843,-45.19954758879826,-54.799784713139786,-64.73638024627766,-69.92925966099111,-71.04740498343975,-75.8522082075947,-91.92801913207101,-100.63767977344072,-55.223310200407724,52.20734082858961,149.94413144954171,171.12765208908488,130.6030374487778,85.00758779324626,63.37037192484145,57.7084791913,51.56012112708642,37.76665084711778,21.64662982033417,16.071817999284065,24.04324438571452,31.988367356086602,26.866401403344987,9.314071525973372,-10.556070105038856,-24.122428897814405,-31.297159311332248,-35.748997230144276,-39.88163088388388,-44.521265616302706,-49.23385203510243,-53.77245497033066,-58.80718051627482,-65.48256460779704,-72.99082312832155,-76.79684522972997,-75.93049509592586,-77.37997645958247,-88.89996153105088,-98.94812479329684,-66.60856911734483,28.99207473833877,133.7392557634321,174.95718800082162,147.72483022261562,101.96541084600487,75.1466620968437,67.94286010230627,61.75668856350433,42.8693469502026,20.32008103486314,12.377408828900236,19.995746705633803,28.79415545711077,27.811542317285014,16.523266016534617,0.7417387092131108,-12.512530840063034,-20.87407614834526,-26.454202386826246,-31.202253605108474,-36.73985506313594,-42.956795375204756,50.0,103.0,56.0
-102.8608715582975,-84.17334166346285,2.594203018872335,115.04988621607832,171.04721209610886,150.52196952409838,102.07865959713584,71.4202847626639,63.23918298454962,58.58283658988215,47.05275815886817,33.73301769105947,25.224168966311225,22.80996684927158,25.3928134524531,27.66010068090781,22.047403812080358,7.399692998593294,-8.545842355406169,-18.253345387806093,-23.03630243204448,-28.845229293170163,-36.6260123180518,-42.536204591850286,-45.8460806552662,-49.85226217010282,-55.36096328849028,-61.441705232233495,-68.02440464716972,-74.78231563945016,-79.08411757473176,-79.7911257970729,-84.29829009647433,-92.99037152899017,-72.03513363541403,12.71346391454557,121.28022214069989,172.91628065258584,149.16322101530668,100.07424538421998,71.11928610981965,64.15583544109614,58.79498251914033,44.30934483980265,26.662032337847062,17.36624654900026,18.900415098090313,22.996313124531202,21.803694844690536,13.739656523570599,2.063230842549484,-9.253260394679291,-19.05105143182647,-29.037324403661877,-37.69137180674586,-41.22256962431708,-42.989732686602494,-47.968566815962234,-54.1128210121734,-57.544606646552474,-58.98102446240398,-62.64273687713045,-68.76712274127902,-71.76950891057007,-72.81886830066414,-84.27805137913181,-98.90030581884807,-69.55285640562492,28.23138609536469,133.54022181614067,168.6709368849803,133.75522994504666,85.27964402962371,61.46819204482858,57.95767077986968,53.51266796345914,39.251569986347,22.94263537300391,16.29165886921648,22.56075486936951,32.70783532842179,34.32313895036661,24.250931365154678,9.088329891421395,-4.898072523990705,-15.362710006877945,-24.371993712576092,-34.201527560936576,-41.89167030635618,-44.52865684823908,-44.72572011919768,-48.16545211427192,-58.178008321638714,-70.74239645200161,-77.62133894673578,-77.0942930609387,-74.50947648301617,-80.74287225563805,-100.13774146795093,-100.56665823983182,-33.30004808194935,85.12279474984288,167.5230695763838,164.61906280302236,113.66874923798112,72.79634055824461,59.83304828038259,57.343814464674985,46.71447422472183,28.546314210643015,17.190722528000034,18.485660255523324,24.324166229898943,25.196087808148032,17.83950372295481,6.914724637067399,-4.748930376021232,-18.329732034836056,-29.165071732343662,-32.416456836383915,-31.76200532927689,-33.23089124032493,-36.82673244475133,-39.459423033128544,-41.5181849468718,-47.539248745324414,-57.944723158400805,-66.81428075224453,-70.47277050108823,-71.54898111097637,-79.41375269052593,-97.05749101890221,-94.95544728248778,-28.591979689368866,85.57351438091112,164.88617731881456,163.30178713620745,115.78963546989434,76.16692301726388,60.90164685945693,56.52552879906689,48.36743117474978,32.807058024658026,18.467928413019926,17.353561150086062,27.12152533719424,32.09145079315061,22.722269169415725,3.2970291159632974,-15.283710241665073,-26.693000448678344,-32.71833555433959,-36.91756214262998,-41.165733600394674,-45.911556436988114,-50.54157583770789,-55.13467630383935,-60.52002113347665,-67.73150020848429,-74.66092153077754,-76.85204087283995,-75.66299075414601,-79.59409864420769,-93.34259169048228,-95.99423085789734,-44.53258778063904,62.162823257575965,154.01714818382007,172.3488383774046,134.04760571788387,91.6281009826406,71.71316961972596,66.9666408864754,57.67723826222583,35.8125728572572,16.03337084045412,13.491159398413123,23.098355919635942,29.71532860787936,25.426172367007887,12.08908247558572,-3.5805793082709054,-15.374128147631543,-22.661980971004233,-27.846491926542857,-32.65306054347221,-38.57849961803883,-44.47568824727614,-48.53903006107725,-53.78933846953706,-62.41673372353553,-70.77771851187141,-76.56534197611136,-80.51587741426256,-82.54964915857624,-88.30289235772551,-102.87180186384316,-100.90775173689607,-36.95798777702901,77.49739303169595,162.12527923059827,168.2276724224622,126.37778845655077,89.55667750076395,76.14913631644104,71.49723778257209,58.94744644491002,38.74185978232642,23.83842539329347,23.198356738881262,30.725564678288073,33.56871554003562,25.870444055915343,11.67418071882876,-1.9759259169126966,-13.482573338221965,-24.190603422882525,-32.47851190077217,-37.27241103102442,-42.805655456941345,-50.34579637152644,-56.48542058887878,-61.073374182965395,-66.33221859202192,-72.17224681062439,-76.8814573257838,-78.22788136291311,-76.28698945434773,-81.60939329882692,-100.61034580486603,-100.56741526561272,-32.62502552554536,84.16190012294969,164.9263124922358,164.85231498170748,119.63133332009399,82.08216759856538,68.5293495342387,65.20458741340751,54.82571893906902,37.694917152132305,27.49709367866521,28.40844849650796,32.97055115376869,34.24225590700524,26.689197741375924,9.769075323888709,-7.6579196472216395,-18.46746192553065,-24.326534560167538,50.0,103.0,56.0
-70.17805257074143,-71.81680254582855,-74.60828777535654,-89.68469720573847,-97.34414662593571,-47.21821323668695,62.1277847467519,152.68335503700283,163.64010320758146,118.6228550996132,75.36215396792268,59.311179289491555,57.540824305790075,50.289013185551866,34.178085844097346,19.647844475714773,16.970038277980215,25.705485154634754,34.440262737464174,32.42399811558564,20.040254558356093,4.750748084063306,-8.279076233220817,-17.937861471502043,-27.167827993593058,-36.84851260548231,-43.16912473656592,-44.59568680068674,-45.1476594471633,-50.39157785291244,-61.93104617634427,-73.56968413985955,-78.08900153098988,-76.19018787427456,-74.82819288528924,-85.5429329537524,-104.66720138833661,-89.2558978444561,-1.0860566654835595,116.51311093570868,175.14462152539494,151.8834434337892,99.08237057352436,66.57742233950822,59.10772409058259,55.50430880708622,41.69029971420921,23.972368489921166,16.45992192568163,20.192935418388384,25.39501856827399,23.81686540843319,14.780010384293437,3.6943264208473585,-8.538027957301296,-22.078139168031115,-30.881599619683197,-32.304554306137476,-31.831486050787788,-34.19972005384515,-37.77359931868724,-39.94735193953552,-42.66962732800615,-50.30023020299571,-60.936400340323374,-68.41835860635527,-70.74609887691356,-72.63497734565136,-84.03805521440754,-100.71588187228667,-83.44740541457449,2.5908612733217793,115.71662150279015,172.44100222022192,151.5415330317734,101.94346872588294,69.56414081233098,59.32829087475179,54.94954394616487,44.47155480616671,27.91252583945797,16.50670393729177,19.650600700832094,29.74227300114299,30.897152067408598,17.69264582843976,-2.6134442038709587,-19.348025357385943,-28.809487889522448,-34.00124442236954,-38.09673755201699,-42.50301355522407,-47.282835947386765,-51.84396736115952,-56.55655495678946,-62.40879430491107,-69.98254799442853,-75.88948901873701,-76.57066052932797,-75.83184474912706,-82.80645690307456,-97.07660076197351,-88.23272839531529,-17.24573139206467,93.98927420512733,167.55730488952761,164.77278323240094,120.25674409972555,83.40665045672269,69.62309305260754,65.53277443747677,52.36059155045349,28.93100517297989,13.351239162397679,15.687273871234263,25.886637881183724,29.658884245067643,22.256724554449423,7.459147765522844,-7.5324721672684465,-17.840310169640077,-24.285766537107406,-29.202099574537502,-34.21933444314684,-40.425960913705396,-45.795202244035785,-49.72941198339906,-56.01323992626862,-65.0686869232166,-72.67511154092408,-77.909168203829,-81.22631089388597,-83.37648686388066,-91.90967401396257,-106.15518893559613,-90.06123597389018,-6.171992607965528,108.69585902187406,171.86580133647118,158.4481070325045,113.55038800778136,83.54755401466112,74.86537289101264,69.03128109269207,53.44413557435166,33.258754379196134,22.17100441727257,25.118723156051196,32.49342831414529,32.40675372577802,22.08689428770928,7.470334134789267,-5.444442991002023,-16.657338253714222,-26.973640712353536,-34.107078424070274,-38.58887429754085,-44.919804024143346,-52.36626570976436,-57.86843636763826,-62.46076397292276,-68.03972930823794,-73.71803634685216,-77.74195084530243,-77.76144618180585,-76.39873366515017,-86.20128176880706,-105.09467035767399,-88.96853961520333,-0.6066146916795598,114.82474233925113,172.83827526266552,153.69964929573155,106.45556427024366,75.96866070463122,67.44395738190586,63.35155909758885,50.019575719424125,33.518606824612355,26.8582989290096,29.71677545780183,33.92916031396715,33.169089968184956,22.508944794579367,4.302132061357359,-11.515925200540963,-20.48818251734088,-25.597608436545453,-29.58691139524379,-34.85145511128913,-42.76455972143815,-52.06488188514565,-60.31923639726088,-66.76152719234057,-71.9799290469378,-76.82506654419421,-81.68616711463292,-84.64533573056055,-87.14090793530129,-99.68971283891199,-115.84333488249527,-89.89175866569101,7.827542479796075,122.82503139006585,176.3883212121008,158.6265878935387,116.06983690673758,87.70058955786703,77.58303610421582,71.21145355909577,56.92474854256175,37.52507287724738,25.380126022957942,26.682297902977652,35.13295749354714,38.66722415641023,30.45691775103416,13.623976010203902,-4.032104738411792,-17.307112907853774,-24.812261839951034,-28.81917907582248,-33.61164651640771,-40.16819382395399,-47.05966589607841,-53.135383172946355,-58.18510534598079,-63.248261545582096,-68.19855824280293,-73.07719822394218,-78.92844652302975,-82.59646405907259,-81.83047500133577,-87.45937561761008,-105.1087359130629,-100.12481045078947,-25.791928329409654,93.23122540907711,170.82187933924337,168.00631773662775,122.87095661030943,85.53740629634542,70.82663775372954,67.87133893573558,62.259331612986585,47.10566225720514,29.944653977046784,25.534069916738787,33.370557158222766,36.56329809119827,50.0,103.0,56.0
-44.285347822481974,-53.34679236256922,-63.6274158705772,-69.5531731177092,-70.9286995440292,-74.59341604063778,-89.38761761954451,-101.57187576312305,-65.58259092748274,36.38616880188877,140.63294302976084,172.98607528109798,137.45406358758567,89.85651995223279,64.94174199155341,58.19522358633186,52.787653906896495,39.98245256552899,23.453173411889967,15.897375524620912,22.591707042999793,31.527200672585117,28.416644661250558,12.044782321004886,-8.16834857464436,-22.756316840734915,-30.5747122669736,-35.20655489766892,-39.30782594205619,-43.87975558197757,-48.62465974690513,-53.15804611357945,-58.06899724549716,-64.47719641879473,-72.09965627075103,-76.62379540202569,-76.12836368447695,-76.69104977632563,-86.85577484834405,-99.00800212520681,-74.81346208549226,13.87178883961149,122.34143868744526,174.15437869368336,153.6417851685334,107.38252193092073,77.30057902417981,68.37951378724935,63.21143070517547,46.02614543502728,22.777510624449366,12.323781237249788,18.560969455820835,28.06054556733682,28.614155378551878,18.448430722183485,2.8273444096522837,-11.04592143730408,-19.97853052402804,-25.79066597473693,-30.5613006584787,-35.91730586955444,-42.192233737250724,-46.9521993468368,-51.14613046400753,-58.511597008162894,-67.56208367978056,-74.36771218415015,-79.10543640562436,-81.77328172814708,-84.76145923915716,-96.28440180017186,-106.98316681627067,-72.95729150938726,27.58545300066074,135.0916409726746,174.68723314841515,146.07177671430304,102.27799929743863,79.48850707521278,73.76004350477069,65.6194310229317,47.49413456686738,28.602301824047125,21.788621689396642,27.41988608420713,33.56783581579301,30.328416953520563,17.945034786764275,3.4619910914263308,-8.769165221104892,-19.78871414675178,-29.468892647273698,-35.471311887193,-40.11266896703852,-47.14397679601756,-54.18628563657769,-59.170295380956134,-63.956727430686165,-69.7542212943125,-75.13813596279707,-78.24001219398716,-77.0853921820505,-77.51650003831772,-91.90806930618115,-106.66012351967149,-70.66985068055347,33.991367446188875,140.1586137950045,173.79392695111687,140.2798103255783,94.98423646760966,71.83212105927267,66.70041237773732,60.56844448241176,44.894456242349534,30.284446693691766,27.063799982298473,31.110316990116107,34.4771402860745,31.21810223434946,17.630099080859832,-0.9142417494623266,-14.743168524319074,-22.202846582610942,-26.77114134647665,-30.870943699439746,-36.871847577070916,-45.422813978669325,-54.63600881616384,-62.34959403870093,-68.36159961677306,-73.37632154376745,-78.2616310809165,-82.85414995728358,-85.04463111905454,-89.33045384745995,-105.35791025399669,-115.1688274192273,-68.28057950474589,43.389403350898064,146.68775219763333,177.0242822520052,146.54740806596487,105.61766810411788,83.41520252057171,76.06576717574536,68.08846240241996,51.34083168676477,32.765832900124614,24.43601818442767,28.91258242941253,37.1407396899527,37.53963864986712,26.145536378645726,8.291127637526264,-8.438450750377315,-20.046915986550054,-26.130323225228818,-29.988281426384436,-35.38433956669576,-42.18198743207478,-48.940561192876885,-54.65913360772497,-59.617134483761625,-64.72606998106785,-69.55429675151149,-74.69080325225025,-80.469520224471,-82.62080892876992,-82.08779972048701,-91.94821915953,-108.54049169271387,-86.60595097708354,7.52810251471918,123.33619697169338,177.645445597501,156.66800686585265,109.87404464449057,79.19788671955001,69.4578039160264,67.04294174210439,58.829245090745765,41.659691600576295,26.922790088895045,27.167344709735147,35.48545305408127,35.05063964736155,23.933845833794088,11.07489361405748,0.1119015046593728,-10.871237762354845,-21.679612184591978,-29.293904557579935,-34.45956548842152,-41.09875787593165,-48.73789095066334,-54.42764079363092,-59.92688740007639,-67.1338972150287,-73.84622287506299,-78.97529322811727,-83.6190752094122,-87.10139182138937,-92.97632054498955,-108.06250778124513,-115.59584594471828,-69.70811820104926,40.46339087300297,147.43253272309616,178.29819992646617,140.90405298939643,95.38509326256079,76.3492671806529,73.98950281892819,67.23023686746708,50.99253417854716,36.812566111893126,35.515597063279635,42.44054489196679,44.631300436039126,36.7800007543313,22.980618947357588,6.614674028760025,-8.461582882784914,-18.236968246172616,-25.93263723537332,-34.91338474968992,-41.57547982423979,-44.21913682628823,-48.14753841936538,-56.920718129848886,-64.8762768641533,-67.52874108122165,-71.43033033633318,-82.06507053552563,-92.1599423731958,-93.65827333752641,-97.15388288407307,-112.95708500880441,-110.98468086868327,-41.48030724721081,79.50915650559644,166.5454693570973,172.13774349901257,129.5762271413641,91.61152291713299,77.17849607594113,74.21131948287953,65.92008300214944,50.0,103.0,56.0
-43.80037531571119,-48.03341505004475,-52.87572823502069,-61.17279476941852,-69.8218479514512,-75.90234015111554,-80.11861861671278,-82.2778946300754,-86.96429003671567,-100.89682872234143,-103.96096929829181,-49.62206266486709,62.043069772061266,155.20840767675898,171.43412797652084,132.5932655391875,93.05903087916718,76.95178479806002,72.35333245731438,61.25228643332181,41.45188412591673,25.05162356021391,22.53905191264648,29.741906364498906,33.78378252109214,27.435871457043003,13.652654847977077,-0.31222840598063434,-12.007055704479356,-22.834663912836916,-31.613525187656535,-36.70486478224198,-41.8975212028389,-49.35844347234783,-55.8016373616308,-60.46261771560084,-65.56220504185004,-71.42630751984947,-76.38438161053492,-78.32618457213559,-76.46118922063154,-79.97490523705935,-97.98543123931367,-103.77256224099168,-45.931931510807765,68.76004531805853,158.7944535797658,168.79102608218756,126.08221845127795,85.63593357264098,69.29262205924094,65.7956857094625,56.832263976768566,39.86619583758966,28.12712209637246,27.88667889870776,32.42764528841005,34.471736880671166,28.3315556608565,12.299217526293049,-5.664556180299033,-17.403862288952883,-23.69578452794027,-27.897106370088324,-32.32830201508906,-39.123585212421375,-48.13893612607158,-57.06411569684925,-64.23423693560675,-69.87693420955212,-74.76615104365797,-79.69888460859791,-83.77583978145057,-85.54198776046445,-92.69620887763331,-110.81590097684028,-109.46431957789916,-40.57548076038129,78.1552550552533,163.85124674716602,172.33152014564777,133.7826964792748,96.97087487062579,80.43346544386056,74.44411037661524,64.11622955163284,45.568601157523425,28.93583164340497,24.644897674518123,31.473317776633408,38.438236461722454,35.35852631467174,21.28219113781347,3.0838770648579152,-12.398263807681307,-22.297440189466688,-27.25637428105333,-31.32229650417749,-37.27702854328885,-44.190397989961674,-50.72558578769809,-56.111818491649146,-61.07800461987957,-66.16960179154252,-70.92901021742938,-76.4068614532144,-81.67733533172519,-82.30046531755832,-83.31186852610978,-97.35272604906442,-108.72443593947754,-66.37015051383824,42.92328749092539,147.72928789328597,177.72198050068414,143.27633960355863,98.50897318860241,74.71256455374565,68.68877737588062,65.66792506816223,54.540253458591216,36.39480508812563,25.31158719193701,29.558574903828944,36.73477628874225,32.5679637702707,20.063878549261826,7.764179505645258,-2.9792655128605032,-14.14019880803408,-24.295457500574745,-30.856288637616736,-36.11918960779178,-43.37494541689393,-50.60094220175669,-55.878106822123726,-61.872829572869044,-69.25292404685922,-75.43138907714558,-80.37102703431887,-84.75373703732843,-88.16764420817182,-96.3913978901574,-112.7952363538333,-109.72881195773338,-42.7893751257791,75.86512584106525,165.60117271212965,172.0789433544972,126.09515126877808,86.95901449578844,75.01281876292803,73.11548151739606,63.21447356897795,46.00024494343318,34.99903101773578,37.240870240210654,44.04151069050289,43.298553181115516,33.191501882409575,18.41349754959617,1.8702930983404995,-11.837731673875071,-20.399602699877203,-28.456609278789223,-37.29350600562118,-42.611994718064075,-44.92418428488634,-50.268933738562446,-59.69043802590991,-66.06993404164116,-68.10740814454431,-73.87562446069394,-85.61425604781208,-93.39925688496213,-93.61059169363172,-100.80568538286374,-116.70730240734602,-99.04362588440524,-8.585441761881969,111.8876085118055,176.2770401994804,162.13473113627344,116.50123435047,85.18183696194025,76.02426417009161,72.820416609833,61.73851771165499,45.20914087779363,34.240058846284434,32.711655781362815,36.15532138344132,36.9401618676844,29.819109272073653,16.38338451292357,1.7381247235221349,-9.45354591997627,-16.792449086700238,-24.893269130514273,-35.266921522198075,-44.272574993412896,-49.282906217451455,-52.53176084102493,-56.841763988847866,-62.49690520968298,-70.0751150125536,-78.65015520652352,-83.8160987061103,-82.52920239781464,-78.21929740242807,-82.47486625280644,-100.19686614141503,-102.93734786925818,-42.345673755143686,74.54641897133432,167.72221753940318,180.4980497325219,135.91869181052994,89.97347693712696,71.34552953617839,70.1278635130137,63.660758844043045,44.28418619195294,26.073222234868005,23.72749952406992,33.007435676738034,36.24151213293149,26.488444453260623,12.490871303797235,1.2046778865796999,-7.770204763828556,-18.06502400149777,-30.050265594223212,-38.76422811422209,-42.38114888093118,-46.16788795010542,-54.832045684713464,-65.59641705190627,-72.57661446568744,-74.70146091938288,-76.98854629529554,-82.04604547034906,-85.62845225762362,-87.46733801511996,-95.94182884741343,-105.03924972823252,-73.71830029930548,23.8237300354997,133.83364400630296,177.88763318782813,50.0,103.0,56.0
-25.026355184293514,-29.03738324848592,-34.00100951860506,-41.577697208109804,-50.84165569186521,-59.330025482575785,-65.99031030864127,-71.32713385205174,-76.16990426339407,-81.08521283237818,-84.42446706865891,-86.46832894873951,-97.25450040301435,-114.85600730971092,-97.60699898592307,-8.162361452211483,109.8190131477289,174.0018275994075,163.61301683352792,121.4103849036831,90.21160498191931,78.35442991400457,72.38278719966912,59.34689261372266,39.959358268623525,26.224568233434564,25.851671068268928,34.03801323317764,38.82884750024454,32.20272497643884,16.079281174934014,-1.8652042501568864,-15.873842404402911,-24.105965665523527,-28.318245356291555,-32.84695517615823,-39.24569044359985,-46.16675230966145,-52.40037809448148,-57.5314829800049,-62.56187726826651,-67.56754977290781,-72.37454641349008,-78.1498855496985,-82.42423274250922,-81.91977709264805,-85.82668688063833,-102.85550214147486,-104.17156926565403,-39.834779340427005,77.91716659751368,165.22713077834325,172.12127200111817,129.23342723960323,89.14618201353653,71.76735121347312,68.14406135032146,63.53535871622238,49.559533609365836,31.75661524844872,25.153480770640193,32.206914373295874,36.88579536880411,29.35954734097189,16.275371417846067,4.605416817919441,-6.135495488494791,-17.339509524025665,-26.56662011230766,-32.30066792476168,-37.99384478479488,-45.64782324171932,-52.2559400805498,-57.40889632999208,-63.96540937639385,-71.24356928858204,-76.90758713940255,-81.74255686576134,-85.7526719197641,-89.6196195586449,-100.72742768759122,-116.08962671069558,-98.1044041905706,-10.990147721425446,108.64408496288438,176.1401455523409,161.30137863978058,112.18359769603732,81.0712514769939,74.49839292668392,71.43146455694362,58.49241635148195,41.57756991977965,34.41639889086938,39.367874929369634,44.928048612230306,41.13585402713607,29.245112672370933,13.674167939097494,-2.626205486619619,-14.716815945351009,-22.554169856988405,-31.09646793107092,-39.336852910489604,-43.351057993856166,-45.91812859734657,-52.80740344814648,-62.155960104840425,-66.8187722381364,-69.04386801018711,-76.92684679517362,-88.78919084867697,-93.8405722503683,-94.21855339331154,-105.55017162509829,-117.69116409467279,-80.36256633866627,27.175038019333357,139.04766943051214,178.93591556077678,149.55989614248722,104.91181737740285,80.76234510788026,75.33949549102243,70.64778484828555,57.03594006460386,41.08585638273329,32.91869358863438,33.51249331293131,36.99083388162907,35.75540227428539,26.375522163174907,12.042791678758057,-1.9952294810169031,-11.808344405968661,-18.857951789768254,-27.76338435481536,-38.2053769897836,-46.11411435061487,-50.23219315951626,-53.620719106389856,-58.339938174894165,-64.45161100557912,-72.60416883542213,-80.70747501396941,-84.11319171454463,-81.20934760224554,-77.9800788381337,-86.66758769162536,-104.78892101686088,-93.37574754001335,-11.627491391548743,107.81577121745075,180.0401610694679,171.00089729647914,120.68991274821285,81.63923277758659,70.25238654339043,69.59355186327484,59.080159579391676,38.01702284968038,23.532380333185493,25.923367839347915,35.27033092089742,34.524650792028964,22.418073438420606,8.854281443476557,-1.4766552812888074,-10.472334633309192,-21.51424233850767,-33.135883110890965,-40.196471505487,-43.148609679076166,-48.14029849113937,-58.01367818024013,-68.18193069050363,-73.55040719800337,-75.07698840759718,-78.27955892254246,-83.43752307713737,-86.05798579370129,-88.89896251110078,-99.73551633510083,-102.38320480076179,-51.5611662782474,58.38490082273361,155.40002552205152,175.28119496365352,136.18475421181805,94.89625199359044,78.1648270677682,76.70704481172953,70.12918209905094,49.030916802222364,29.362450276203347,28.557609057073453,36.412498058743864,37.235083495870995,31.448905437693973,22.317535934271504,7.3007704294238245,-11.382110209957338,-24.261666395979702,-30.731700022035668,-37.17719967155371,-43.170239461217285,-45.73867991040278,-47.3591188695101,-51.05139644283736,-57.241043063385845,-65.49597867533069,-73.10010810627985,-78.52106317877676,-83.22511240789886,-85.81871141379557,-86.94861575139082,-95.81016974671225,-107.08424798105057,-77.26239090781448,20.769524608306252,131.24414179078892,178.07693265977753,157.08176381904352,114.77893914931836,84.5563877355366,71.67902159910443,66.52657722445768,56.23372540767991,39.63738491702217,28.388969978285907,29.062456986431485,34.97089115287236,34.90978687962853,25.34334496007593,11.400575096799129,-2.1083619680294854,-13.971251923170474,-21.52164457002895,-23.752254560087326,-26.622218945602523,-35.64608539172834,-47.495594048889885,-55.505820599637175,-57.641813126938096,-58.81595601278133,-64.16902693042033,-71.98603743045538,-75.83455852605981,-74.896034724212,-75.1823826549279,50.0,103.0,56.0
35.880757116492525,25.700195933964874,12.667440337428976,1.525802545083432,-9.364905968859949,-20.36800964658707,-28.500795753292707,-33.75412466057316,-40.08017736852577,-47.805516874022956,-53.76031564472098,-59.090430745021884,-66.13342024475355,-73.06489992138714,-78.32804685159984,-83.05077195744212,-86.67089586251774,-91.72279862517894,-105.70569811344104,-116.6432035751087,-80.13728443855089,23.92225163007981,136.62973918640216,179.19842715250002,147.67451014007014,100.13966648089264,77.41709437558092,74.20090570989052,68.7819698230432,53.3781597013246,38.06028333027875,34.95253797499198,41.52988026691697,44.93931853998013,38.28402670324967,25.014118112448006,8.84213056882261,-6.730731191216926,-17.19170506936097,-24.826656704924147,-33.73616186157035,-40.96741029501871,-43.944989404793176,-47.33266330481093,-55.60414238916688,-64.14459437998262,-67.31639432903393,-70.52833600094492,-80.39939129673009,-91.28977959373815,-93.75799532082137,-95.92246879760076,-110.71721124487301,-114.3604206546016,-55.10122160144611,63.37290671794391,159.55401962032755,175.453763354788,135.88841925068377,95.30721273477364,78.00973347629996,74.6471811397642,67.60575713706662,52.11510429267732,37.69107793676744,32.36948967005152,34.567050048538896,37.405038732102916,33.83746332306692,22.511621838729646,7.730680340268026,-5.334910910933115,-13.90303787570193,-21.123799563064566,-30.78836624529026,-40.911180496656144,-47.601886215287685,-51.13304136999296,-54.84038327128139,-59.938083473489236,-66.60199432709997,-75.15066786670448,-82.3495975157013,-83.83602531992719,-79.79830676300517,-78.82304246506379,-91.9335254516448,-106.99375372769363,-77.3629605821777,22.67235165842048,136.71250256658482,185.01990293796106,158.0016027341147,106.68300269745747,75.85047849252506,70.06838304315346,68.08919625405498,53.476370949599044,32.35944673474342,22.552595282031444,28.762574794487577,36.553109939490426,31.77756981067114,18.28059002264766,5.530860162334255,-4.034255340913483,-13.382611957673795,-25.047619181620803,-35.791844717006306,-41.24136535253047,-44.11138951704626,-50.58160679417759,-61.219801471297785,-70.32352072357907,-74.16063634686023,-75.63953317581273,-79.77747363196735,-84.55906094423146,-86.4401778769974,-91.16490364909416,-103.1247083213867,-94.98998627426948,-23.817397742943825,91.79818940583642,169.86313925061188,167.48965284385727,122.42632900142665,87.47607882482693,77.06942083322592,76.1431870810639,65.29765695072456,42.04600458386913,27.1241505899851,30.877267025668946,37.62525534189621,35.98249729283236,29.20287674658137,18.695583805147912,1.88322679878242,-16.010503151234616,-26.48319104631155,-32.439016105485464,-39.15698027445769,-44.25263463531024,-46.114115888670604,-48.165545035347286,-52.58251407749639,-59.48302215385361,-67.9161976826277,-74.82809166146575,-79.9394346456971,-84.31220239149377,-86.0067237065542,-88.30892512051267,-100.1017143700656,-105.07428218041825,-55.0962712354544,55.504780260776485,153.13883611008814,177.23344417213542,144.96305069102007,104.15448406515326,79.29669204460079,70.02096627567919,64.47391621115158,51.684241541333535,35.29853236123917,27.431308422157556,30.764833757940263,35.93651423988995,32.99887238802536,21.46165571026195,7.373426318988024,-5.769918618898003,-16.751471614942382,-22.570843271457303,-24.147775028499506,-28.574957888999723,-39.0967889372205,-50.43361513741677,-56.6130679972718,-57.77347752110675,-59.8518829247083,-66.44612219739116,-73.72988232272267,-75.84866791025297,-74.55354780267025,-76.42722534278602,-87.13869316425473,-101.12301260056498,-83.1339009082054,0.3250013622885991,111.89016442585589,171.20797290838368,154.30257099913374,105.91219334264756,73.1809587488957,63.352160585424386,60.35840868032224,50.32014078832587,32.630867469742974,20.74805520421548,23.866634338470295,33.719954983719575,34.818906319884235,22.174423709939855,3.4977065212586678,-11.430141046318008,-20.120195711511325,-25.003415604213863,-29.041587329667433,-33.929287846133306,-39.917571498064675,-46.58098326601708,-53.33836182259551,-60.13134878027856,-66.99030755808545,-72.82059446970509,-76.44234837257622,-78.17502179249051,-79.78956026969036,-85.39441050682885,-98.88211882424899,-102.84190129803028,-54.04778275414658,54.22888469465877,154.42932882315515,181.58436684623624,144.9078964840743,96.80740352942325,71.1982961883115,66.394664882865,65.28405524947252,55.95820597048269,40.392191354402165,30.38352721228838,32.93798570790529,39.934212987452,37.13730566766163,20.860691615755023,0.5163773573060023,-12.157493454748778,-16.555403618829637,-20.50624665541155,-27.835544944850106,-36.808456279360485,-44.56769432363779,-49.96375166138982,-54.37139537237082,-58.93801368846958,50.0,103.0,56.0
63.74713970694564,47.30431598711217,35.13072010160018,32.478865607950844,35.67901460959394,37.24190007307459,31.22981560054931,18.359014412108717,3.5715783817356277,-8.248705274578954,-15.879500990347248,-23.644473719261335,-33.86410806090986,-43.296306312814025,-48.801611849866205,-52.07003972667713,-56.18462154945882,-61.65547445730891,-68.94262506735429,-77.59443917518568,-83.4826110451046,-83.04052977856627,-78.60131004078559,-80.99551920750177,-97.65613549131102,-105.36235045451505,-54.79907480425349,58.32619153710126,159.54779107979712,183.2764000740685,143.05558326776085,94.68842863258863,72.33001963836905,70.15871265103385,65.3580881985465,47.239105145281314,27.750814788824716,23.05662608049307,31.73545268915456,36.630631868188004,28.274338390588877,14.265178495331782,2.5090298641197166,-6.574887912444617,-16.53436405110763,-28.51743396582445,-37.94465378866409,-42.044477854136524,-45.419049013190175,-53.42192681085456,-64.27838731520932,-71.97772236774995,-74.54950318795633,-76.48992870704782,-81.34395450645636,-85.3601601754043,-87.03760095761756,-94.27981026922035,-105.02359180431543,-81.85833866257016,8.169937681851424,121.74818427222547,176.97669544758315,156.0672231808733,109.8256383735014,82.29709396220106,76.78639806597481,74.64355674956688,59.224082697151964,35.84630777104981,26.67069261141914,33.385274368146895,38.015828004646664,34.333372287519595,26.687359325130284,14.479565133867302,-3.665051194390211,-19.909467599616402,-28.315823914669192,-34.28345760030599,-40.9877766440916,-45.019384860022996,-46.52343619713657,-49.184335184302014,-54.3213164204218,-61.87785557853774,-70.18200064868515,-76.39205141254492,-81.3324422233852,-85.13925461032548,-86.16915241680698,-90.6344537718187,-104.13232564517013,-98.17751323479494,-27.19452259068763,89.02708665943675,168.26923618843753,171.49753538465,132.34387572088056,95.02209533017387,75.4074989064187,68.67775227053981,61.69886858581338,46.76757632929649,31.75063598815968,27.49790993186858,32.62363130598081,36.149909361308026,30.321334663558353,17.395726867878373,3.445058638699719,-9.277357385730507,-19.071513497046645,-23.21109083401753,-24.811393500049643,-31.108195446440913,-42.61370719387109,-52.89797701901228,-57.254613219102275,-58.000398995329775,-61.3216429920114,-68.80278301016334,-74.97543049978103,-75.54734780717008,-74.48224339963208,-78.45740908961446,-91.78400088740301,-101.38577545966007,-65.79739447393851,33.33430641935715,137.13528037125536,173.0100315858865,140.9008412582874,93.73979204875664,68.55469578298076,62.56195163865438,58.530664486943,45.57473942487586,27.908507325553504,20.1478616062474,26.74926116800054,35.45125426876701,32.41300985183091,16.88518228362623,-1.4680745652136613,-14.514068285669167,-21.779752369034505,-26.150595721942395,-30.33371314356661,-35.55900016156389,-41.799697424924325,-48.543717389818305,-55.27913563710445,-62.136859738038396,-68.8455685617477,-74.11655413797936,-77.07935694752426,-78.54240920484402,-80.71908894562445,-88.59963162652703,-102.7071496865146,-95.9007910723319,-27.01148616395828,87.91058573448143,170.87446574108793,175.42021450559048,129.96787487393547,86.60569657542426,68.36187292698148,66.43862884385219,63.62932727283245,51.66119360456225,36.39083030390412,29.890028152572896,35.190882259555636,40.58219937894088,33.59928217279813,14.785729034526486,-4.234746585983889,-13.972404465431815,-17.427400107785953,-22.291941751731894,-30.393235196532274,-39.27807264465906,-46.34419535138391,-51.25207439583756,-55.68225037063132,-60.17425432028259,-63.506422819359315,-66.4296511374806,-71.58614278702689,-78.69269173100405,-84.73573880297211,-91.40143242102656,-104.23247698542053,-112.25253327501127,-77.26442064273112,20.088427443944727,127.80169664443282,174.93003746139465,152.94066785073076,108.11214363847623,79.79296173090837,70.90252198328118,65.14418004971633,53.29613336101155,39.628953650467466,31.60240971571527,32.057761108407895,37.74360188083837,38.99032137764753,28.348180781887294,10.291623692064006,-5.007108328941811,-14.753686412143967,-23.997226165240363,-34.33740470238951,-42.18741791071082,-47.58109490205981,-52.14625895326288,-55.780389239501574,-59.3306214798206,-64.28596349777044,-72.50565729511712,-83.75641841394886,-90.4983076124452,-88.93555802743028,-91.65696299770194,-106.11204118825195,-101.60338116200613,-30.850670649238467,88.29057220882065,170.55830128438953,171.6489055710111,126.99500800265959,89.58000429486873,76.52168377715903,73.19215768138778,62.09481597490524,43.02023455059979,29.550982992703037,28.54868983098714,34.11805336671433,35.69063256812312,27.69391028539832,12.743598512823084,-3.1522512847903914,-15.534097517568798,-23.699516023917436,-30.78976804163317,50.0,103.0,56.0
177.21297730027072,142.6340911866998,99.0981132054495,79.08983194412536,76.77147377755804,71.88001666499213,52.326081497046765,31.01590659142767,27.706915700024872,35.59456168321218,37.634663036465696,32.410000350552565,23.803263097422363,9.681670104362258,-9.042416381538757,-23.04854038886656,-29.974110643851095,-36.2506883368536,-42.5561376915833,-45.54675197745448,-47.05540041621485,-50.41454722428485,-56.27165879713638,-64.35334371618806,-72.23250630771182,-77.86010792522872,-82.65727585496195,-85.66835605083935,-86.5832140785443,-93.97915393061763,-106.74257911350638,-85.33982525347096,5.015627022540862,119.08028779377216,176.49471517229773,162.19564240092873,120.10913346808626,87.49115512964627,72.65020531427155,67.28225347927142,58.13020458525987,41.824597419464055,29.199237244036738,28.41775195106992,34.32255371486682,35.50468936525744,27.023778210493685,13.28435550667358,-0.38016607479840364,-12.559651904268542,-20.871088910340426,-23.601370642116173,-25.923441143934316,-34.12948376399632,-46.01400066458605,-54.81372554082358,-57.56473430624429,-58.47776590624653,-63.19391610991522,-71.04459940191349,-75.6818074481468,-75.10131125134856,-74.83497598089075,-81.36715739485606,-96.37422563527443,-97.75347386424008,-42.51304390113254,66.84191634007341,156.119810481566,168.75807856818895,126.39522464288319,83.71024972387262,65.60382055274887,61.88818049350183,55.85290856157086,40.345814324068925,24.09819240488926,20.87319833332457,29.817307154419364,36.0989611999944,28.891267399782553,11.375084137366642,-5.928529655415351,-17.09899099516659,-23.199665639066094,-27.292936890178716,-31.7214181874017,-37.27559985536746,-43.72480427320845,-50.49943203181287,-57.233501855665025,-64.13768950071842,-70.57937081158377,-75.20571093996294,-77.58548318247821,-78.94774810904728,-82.12757867256055,-92.52989667241648,-104.96040047872359,-83.3386950967091,4.384453729185838,118.65603062006684,180.19174711437043,164.9433302772817,115.44054061638394,78.72577021745563,66.93064558360031,66.34187278625602,61.10862234367303,47.04117903627988,33.18608914519719,30.500317515834134,37.45276673494401,40.09808134745734,28.993803714761075,8.706366915265225,-8.108604374303377,-15.230638597390406,-18.471179796160563,-24.3738432746778,-33.0161623289077,-41.57956261890326,-47.92345019314467,-52.51078670229478,-57.01519442712904,-61.296524894740024,-64.26785788072085,-67.61711010581917,-73.56480363344753,-80.63359880603332,-86.31406041741775,-94.41657659811833,-108.34033119008242,-108.46424820534078,-54.625776040570365,53.849023115229016,149.53409204326198,174.1630294084334,139.97520179645437,97.4453689066799,75.84915536764606,69.61661736391473,62.352147325353044,49.156057165952475,36.50246747587295,30.873247041178608,33.497874472988165,39.05121020773031,37.18539561826983,23.419548650146456,5.251188664748685,-8.238758715771688,-17.242538680516358,-27.01826593654801,-36.96559346175219,-43.89100669304241,-48.977504338491606,-53.285543004032064,-56.74779269528658,-60.550204250354724,-66.23508364780784,-75.64091528589384,-86.59835425143771,-90.62470125771284,-88.5051840161379,-95.10988643230903,-109.15181027428781,-89.06985077089284,1.8824639363769644,119.48648172086664,178.81010225487188,160.7651866870789,113.83379808503416,83.60007096423278,75.51201237548828,71.20986710746142,56.88967948094424,37.978801029293734,28.045460270094296,29.95549856314263,35.38637173732387,34.38645164880573,23.82276079860834,8.007461921910828,-7.220082267341389,-18.22146436108457,-25.72064824115197,-32.899874278534426,-39.577288763567836,-45.02111201393329,-50.91512455797626,-56.627455687140376,-60.856363079323735,-66.02967065040416,-72.89888424544186,-78.82929431276553,-82.44067023103713,-83.40001206191498,-83.54983152458556,-91.32634111354257,-110.06221805665518,-107.5971090653596,-34.30548142365042,90.19652644317722,177.09692674788243,181.32535860748746,138.45768235201214,100.27063274984553,85.7107476343661,82.06964189272217,72.01481505712033,53.17642764612488,38.12309131572989,36.430467848089734,42.12958583753837,42.240525325710834,32.19744665002058,18.943729891568168,8.519702507626391,-1.7085259393882093,-15.32872296332811,-27.35095417475477,-32.470496158669164,-35.2019066026151,-41.23404257885395,-49.52559650657231,-57.83888977840102,-66.9997182241757,-74.50608665066117,-77.45304585221355,-79.94920643197045,-85.9359832576576,-91.6159501885682,-93.12771455962843,-98.36291733244649,-112.87767436819757,-102.6644938320403,-22.150230652528307,98.10464186882994,171.49087402232806,165.87217819617604,123.44692224569268,93.04233687643712,83.59647938539416,77.44505129228084,63.087889695981026,45.927558818202485,36.07863505921678,37.16175720299076,41.546961979622616,50.0,103.0,56.0
-75.76364671311984,-85.1466517780571,-100.04387260928443,-89.0743746512485,-14.102195754967132,98.51397265835698,168.09104066649223,159.69534220269162,112.11771032079302,75.98863363036736,63.87108364673626,60.959615511072606,52.265355394807365,35.00922649763026,21.493569116796337,22.721733310789148,32.626049651542345,35.51516707826508,24.4561107114124,5.924295561125678,-9.825252152061227,-19.25219751886285,-24.457820726946775,-28.474475733742878,-33.209681663846126,-39.06853030494321,-45.676609282017836,-52.444243271301,-59.21142649256566,-66.10434129604097,-72.1555793910754,-76.09462428677519,-78.00137752732566,-79.47440129639077,-84.18754060259475,-96.88372109435264,-104.40405454724943,-64.67987999787832,38.323220411172976,144.54193702684276,182.6016587699317,151.6121164917138,102.2531946622527,73.09935186801535,66.43678669717154,65.77397790052879,57.75212979029391,42.42458248076001,31.00510510351288,32.01688755059118,39.3138604154805,38.3634254627294,23.560876891454804,2.966030300676053,-11.075889550623637,-16.167118787419348,-19.79096600200615,-26.699581475369936,-35.628054190256925,-43.67552385038707,-49.34625660452373,-53.777924618992174,-58.34091441111424,-62.28264170311473,-65.05648061605265,-69.0510270937486,-75.65300879316881,-82.40248732740451,-88.07716280203638,-98.0826885562589,-111.49840378170913,-99.90019767251361,-26.852157283181917,86.45050013520344,164.78404847715026,168.21946764447586,126.50359339778888,88.78090985446829,73.25410030883727,68.14539101279213,58.98347740570273,45.070412782263425,33.997999214138545,30.87453569930537,35.2275813171218,39.69841238200868,34.290371521741825,18.11400228619853,0.6762236572244531,-11.054428567390769,-19.852230150617814,-30.074441528310462,-39.295806785999645,-45.449728297823086,-50.32002591605438,-54.340266090042576,-57.74516417015221,-61.919822873962886,-68.51663181041087,-78.97264353315497,-88.79284185853751,-90.10620040682032,-88.90784356606711,-99.50962845544841,-109.37048822909422,-69.96455399535492,37.18326021040618,145.2594425962886,180.10898855845144,147.5296414637629,102.37935201015166,79.62261578596974,74.77988662974387,68.2411411770123,51.239778241037996,33.780234450006205,27.605312389688155,31.666019677789816,36.066494222699596,32.22875604198229,19.50846013346186,3.333639223566601,-10.902974302180413,-20.594360676818408,-27.748564734065813,-34.97176633376268,-41.21411218635939,-46.63074770999755,-52.692877160992886,-57.953956383738515,-62.122393142521915,-67.93678295000485,-74.81637465139399,-80.12396737943918,-83.00042800964411,-83.28409606281296,-84.52747315142892,-96.14143295287741,-114.04082918151042,-94.82939959063498,-0.13007004138772305,122.90656892217828,186.3682401259962,171.15808696815927,125.32628568779896,93.80218466331843,84.45477485466321,80.29484359779293,67.09357331465854,47.77126401961709,36.23084890946132,37.90488021012792,43.20090867067932,40.22107497158818,28.28522368149997,15.606662630668739,5.805803153068008,-5.339541155450158,-19.35043937136429,-29.50899598297551,-33.15833467575186,-36.52228322939829,-43.568274167253776,-51.902763017529104,-60.4041550837854,-69.55615547191208,-75.77989522065417,-77.92362736265979,-81.35217675971757,-87.903042355008,-92.40426533467313,-93.62732805580214,-102.15534009371385,-115.04499697341961,-87.24750084083392,12.266935290484897,127.29876372211706,177.06697859217908,154.71537965296628,112.1996899296961,88.74505567037602,82.32963466576375,74.15594371789156,57.93011481252139,41.98628793204826,35.38950448975167,38.65296508014001,41.730288012164465,36.316772310604215,24.1763033478443,10.361130075386177,-2.8922216439205637,-16.16505535426322,-28.0423367070685,-34.60017363757057,-36.551101577498486,-39.99701085333986,-49.6690845584265,-62.114399187323244,-68.65648831852047,-68.13985218241632,-67.54485797876549,-72.43424885986565,-81.9411337449358,-89.51055523654098,-93.58285855067795,-105.09022735942017,-119.8342735330637,-92.29406984053513,8.831435087736052,127.57110313144874,180.6932449058114,159.05879296211677,114.37003123019743,88.47384742740009,82.8353902182047,77.80587304999133,62.85767068934177,44.69823557530036,33.654620518477216,33.02961675187021,38.46578081980443,39.557656144473675,30.88740170776313,17.394083217545944,4.639887692805187,-5.496830617788118,-13.673061622652567,-21.757107197531806,-30.29741134356246,-37.08086800210078,-41.42842003324739,-46.10589467526826,-53.14358873531522,-61.53681679502244,-68.39891022324936,-73.77681083242493,-80.26863178676541,-87.13618987635837,-90.09573463853026,-91.9623297749655,-103.79585477242296,-115.8288087180636,-82.93091432470511,18.334113175085044,130.91124880055835,178.29114389495803,152.50385441310965,103.5232286116973,75.39689808716048,50.0,103.0,56.0
-59.616208891693354,-63.141945746758736,-65.95638147159619,-70.73404037188742,-77.75055516826201,-84.0189250353919,-90.22779999907584,-102.24498486991482,-112.68747946187152,-85.76377225812602,4.735581752856607,115.83185513362417,173.250062806206,158.3901499536875,113.6200989113708,82.18094267544846,71.53414687752341,66.22416390938102,55.16124404133425,41.25029640633906,32.18950699119975,31.548837373177076,36.99453991912496,39.451736475449785,30.413304655855423,12.726910972098857,-3.3438674403992508,-13.61269971138208,-22.64721449172547,-33.03663721873992,-41.33396621950836,-46.921563070980056,-51.59000562157604,-55.33371431881639,-58.80878260765399,-63.48422458965529,-71.16376931137277,-82.29699692200326,-90.16300738228449,-89.28974239637984,-90.48659486533474,-104.16179579523283,-105.29556553367792,-44.48887069290609,72.61062812406887,164.2670692748096,175.44281958007215,133.42655207618978,93.0886456278044,77.23047847225286,73.82511288896033,64.24898409484759,45.546298961723615,30.625850854477104,28.079871076264975,33.39298208577391,36.00049187387988,29.284879199667536,14.9137747529544,-1.1652570791337715,-14.16803719495961,-22.749969690349605,-29.82045374852692,-36.94516932330686,-42.76768099845075,-48.32484072901216,-54.39505515126835,-59.15515034539086,-63.56088983024202,-69.9474398390764,-76.58261831364285,-81.21793517485128,-83.32199690181433,-83.19062268683736,-86.43426761636029,-101.80709097967184,-114.9577024447878,-75.05813035261627,36.74802101269765,150.05960027685077,188.58418950965978,158.50491100985985,113.66546935770377,89.35789974391118,83.5975008617404,77.63939369120993,61.574587918398585,43.085231914238186,35.55838659772352,39.695780623806066,43.49331270947339,37.384061972637184,24.35348958238143,12.574178048418199,2.9591636495748537,-9.286973325061311,-23.01382339022996,-31.046759339723277,-33.84705672845666,-38.20540202917071,-45.991139942722,-54.27435549671532,-63.06811183976533,-71.85028697577994,-76.65107598084215,-78.53471274579707,-83.07474766037292,-89.67505554877079,-92.80824621351826,-94.80148210558086,-106.68012706402476,-113.76938775077508,-65.11278652254595,48.1704911085829,150.43415456907752,176.20060431227867,142.00753421489858,102.8599518337147,85.97749848740034,80.80589274897457,70.08697104427304,52.80086098093581,38.880243679323726,35.61128183720363,40.11127468254515,41.122264427835596,33.26220281319253,20.18048195178626,6.476340851457314,-6.701931408603476,-19.91995652890822,-30.591790120745745,-35.42614891921409,-37.08566415764854,-42.1144672228612,-53.37049267615486,-64.89018668618945,-68.99478571015219,-67.63379840006144,-68.29648381986887,-74.9278942392805,-84.63877360731775,-90.72461057820819,-95.63933167506747,-110.32031835644372,-118.78825936258035,-69.92535807884677,45.646221415148965,151.85796408172806,180.34778678831339,145.97519391121727,104.15710330148192,85.53416833398694,82.14594373453012,74.46407686980922,57.40201921886253,40.4803805790367,32.44725341448984,34.376794070269966,39.68611171487987,37.97318453169188,27.166189546643757,13.488694065443495,1.4350437532372968,-7.9883602705168375,-15.937826606450097,-24.23970755279681,-32.549497487239044,-38.499657393360216,-42.60962400359898,-47.87666832352976,-55.557425936077955,-63.765569845158645,-69.99123283597527,-75.46111952036519,-82.39502249135036,-88.51939474766205,-90.266882347199,-94.06289869557786,-108.758156016969,-113.19620608252971,-59.69358542775494,53.74332219748309,153.27018313665755,176.71777198976528,138.1499986638303,92.34425397624591,72.36521543237816,69.30573914141087,60.40561441363213,40.22716784204131,23.847186341329213,22.870158433566232,32.03091432364909,39.87270722142528,39.43787449433703,30.035153858671812,13.965599880480605,-4.051088847576877,-17.791841617204255,-23.70339488336662,-26.514569042253243,-32.37242258051293,-40.18199706120558,-46.79028902893979,-52.47929530163637,-58.725552932163005,-66.19629273967192,-73.44376753578872,-78.38838142004096,-79.59549189093435,-79.63238599946538,-89.62338238444703,-109.83692895471013,-100.90824007094194,-19.805868646174943,99.95556064471239,170.8248372735477,161.3610905068211,114.43085914360664,79.06359539345836,66.97222804808516,62.209093437650715,51.44545097106774,36.96146992484097,27.8109189056177,28.241594409269926,34.36315848913591,37.09234320116138,29.21100381447793,11.363766044879972,-6.896790959846117,-17.055659828387448,-22.134931350941557,-28.397687553704692,-35.1976518390563,-40.0354379172872,-44.60133017157496,-51.08603205875423,-58.34613962165751,-64.93525505862536,-70.76423487862225,-76.81913637135023,-82.81048401567736,-85.60844757584238,-87.83733375834707,-99.38874687159382,-114.96611687265671,-95.21868431294723,-4.863045371100234,50.0,103.0,56.0
-31.927970685925782,-38.780325506920974,-44.30251877665057,-50.089636141362824,-55.961087605844206,-60.31120452719643,-65.20484825568981,-71.97862499673127,-78.16539322713761,-82.10493993774901,-83.4181264130726,-83.33242486106906,-89.49672516483358,-107.62013183440767,-111.25178168115073,-48.532847493765644,73.78653393733563,170.29188088349284,184.7573535205317,144.7899820549405,103.99203131154607,86.5699835877872,82.65153070889083,74.00825213479904,55.80799111306375,39.41658108149419,35.955396660357195,41.438648918381205,42.858937474468114,33.9303825634313,20.58861100637545,9.770229330130718,-0.15649773277296597,-13.41736167422933,-26.13075020584113,-32.0981931763784,-34.70954350460928,-40.21748865504522,-48.41801662443676,-56.69350297552649,-65.76977102890304,-73.76842252763352,-77.23529834060011,-79.42331949450801,-85.01189384407633,-91.10201495231297,-93.01619008339615,-96.97601316307814,-111.15073823102264,-107.5457856226461,-36.864846345343636,83.04483578015,166.53216592615044,170.07169717602147,129.12677695818283,95.6565431019775,84.22011362006481,78.68305782957923,65.39604070029549,47.977932687704374,36.730892761707636,36.55609941685725,41.22304573276657,39.7053674032925,29.77180313411293,16.159848440315745,2.651071764696808,-10.543540335512622,-23.4735045270218,-32.60381377442364,-35.95860375355368,-37.92634974033699,-44.819545098206,-57.113530115604995,-66.96424089207851,-68.83948062084382,-67.32609183712465,-69.59221338985384,-77.71756621918811,-86.9668815175923,-91.74100063660408,-98.70080943568442,-115.36198023459563,-112.66928819266602,-41.26584473131393,81.59677099657394,168.98823361112863,174.49056388835976,132.48295882239688,96.16475720344901,83.93552408054845,80.97858788752819,70.2307050263155,51.976459568413546,37.059019601682955,32.119000266513524,36.04572375948322,40.251486825518434,35.56368080888414,23.230989445763083,9.740732930938725,-1.5368998896915582,-10.349853881734749,-18.24863028668459,-26.743098769877882,-34.578511738786595,-39.745532565129366,-43.90230737821672,-49.87107585353443,-58.024203501013766,-65.79517831007897,-71.51159531688853,-77.30458066637303,-84.4735971825393,-89.45720795142918,-90.55863333498854,-97.29647638764203,-113.1179174899154,-105.40325265486955,-30.81636788645662,87.87565393052662,168.68096444329845,169.69236306094191,123.37278692760404,83.64067670235563,70.82980460889465,68.0671344304953,55.310316984487386,34.28586124116897,21.936707575754024,24.993455563274242,34.87252837207825,40.72083968364272,37.57803773358161,25.915792168909466,8.69891519924016,-8.735864927250098,-20.25508272678279,-24.47058578687564,-27.799184717552986,-34.61621699097096,-42.26229940255076,-48.46047702216829,-54.16921088673617,-60.77933916326173,-68.41841173684566,-75.18268143611209,-79.15311244756994,-79.37091226196287,-80.94709692894268,-95.33410519774624,-112.83829785329661,-85.31513357957903,14.631191623521644,128.64854039010677,175.35043815714562,149.0016872545945,101.70773011369451,73.63001690008578,65.70462930914921,59.88737422646464,47.24660285013276,33.428267347710005,26.977371385043217,29.776203560488412,35.92391588275797,36.057100632860575,24.795929887147782,5.589741916552568,-10.752831398270743,-18.68753178953088,-23.713867697869837,-30.468896280011606,-36.80522126816713,-41.23188136623234,-46.27389181667719,-53.19814055946609,-60.342679986052595,-66.67264301888136,-72.43691009544716,-78.6777556289961,-84.03855004141201,-85.90549917385272,-89.88678234254358,-104.59468193660729,-115.21318151750664,-76.40924547667159,30.982866107213802,146.11033276252593,191.36398109200556,160.8806236111716,109.26695942708471,82.15412036150832,79.27676743417435,77.03007803772405,61.92938360005003,40.875051161394836,28.75434143026632,29.568588887155997,33.55654062001273,30.757918264020024,19.885014984563327,5.443600761899062,-8.745506730587913,-19.984337600834838,-25.723906462838436,-28.11443834791119,-32.47435897747091,-39.933342000577866,-47.01252221835852,-52.31605488515268,-57.27946658197425,-63.15232878556508,-70.36434696526253,-77.76735663825436,-82.21666738960086,-83.18320164899876,-86.6308432171897,-98.89725598868876,-108.63236370453,-76.43678340829847,19.542289509495166,128.06177215955003,176.13433764854182,152.85024522777775,104.53221147599083,74.20140149101802,66.24832266274248,61.04893093537492,47.4209304770716,31.916858100791423,24.813526774425743,27.707010645747747,32.01612211075491,29.017918535483084,19.181437370719973,7.310765539412639,-4.902921554602274,-16.73864467521084,-26.900774483194564,-34.2086064298703,-39.560366724377886,-45.80001987982248,-53.32867104750831,-60.523108339452676,-65.43686391100186,-69.01760137064356,-74.79345892875874,-81.46907381130744,-83.57207785887387,50.0,103.0,56.0
41.73964364641021,37.53876858189879,25.985669152128978,12.176063103778535,-1.1434272237445382,-14.398401048567896,-26.698732715275042,-34.082714949055,-36.360417001000144,-39.218976865274854,-48.04471176185948,-60.634742698066056,-68.28849087891393,-68.38877732700927,-67.37185010970057,-71.42376380749823,-80.6212649163455,-88.81917743638145,-92.89539351496448,-102.85591354540506,-119.01704085597534,-100.29671292352634,-7.722059822848432,114.2294773737031,178.65920417540042,164.57142973641817,119.74338507383165,90.42157057862859,83.11187179361406,79.0220667953777,65.2956420168697,46.87351860127517,34.518472979827465,32.58497176393917,37.75108199943362,39.985121461558876,32.48228230797623,19.229207054044284,6.1970535214885105,-4.292214739995081,-12.632236834343074,-20.63236321808944,-29.20103603031859,-36.35039312489789,-40.90133010549566,-45.36390449498016,-52.07120406408773,-60.45347217151503,-67.61930416011953,-73.04406786453431,-79.30536224287229,-86.36540771916484,-89.96958809952355,-91.33818391792444,-101.57335370234642,-115.65538403253997,-91.51286440514608,2.235728301895771,118.50028145153001,176.87031727772683,158.58396840252456,109.41230856818522,77.4596768135429,70.13887625779068,65.8269870678849,49.40338976121742,29.16211508518112,21.42725514954046,27.691615494681976,37.333393004767416,40.77959478120842,34.99786721507806,21.313785465479878,3.406317144612969,-12.89810627315097,-22.03999401987852,-25.183589589059437,-29.436617026986706,-36.91774321605367,-44.19504630975408,-50.0905893892349,-55.94064927966546,-62.93762388115353,-70.56262872828101,-76.68876625964866,-79.5668226322321,-79.18534538432266,-83.46418622329567,-101.63940892572577,-111.97391440217731,-62.97325648501118,50.43379095082506,151.0896565630168,173.37227806746742,135.01887093200602,90.8852863441512,70.00393044446592,64.52976639602821,56.88736782924828,42.93492387304147,30.56139394357841,26.968668099999974,31.617528267418436,36.952006838012665,34.01263930576083,19.65475408765777,0.09573646593168994,-13.813967575135917,-20.091488742465565,-25.496534222954836,-32.494525866322554,-38.21675083471581,-42.49384316333044,-48.12900473276448,-55.317367430598566,-62.26537638405544,-68.353085579062,-74.16706483014012,-80.48557604772076,-84.9067739058727,-86.33425649565466,-92.99379953254059,-109.72407595288858,-111.18670857610448,-51.21533317512596,67.60332609781733,168.30713151025884,188.51109559691287,145.37095377364705,98.08245599236336,79.78782433482885,79.54130088286908,74.03439760375998,55.766753738929125,35.95589210807583,27.91809605979265,30.963448201320098,33.67419014891291,28.295842799900818,15.85673466522676,1.2129150769889592,-12.443883572339278,-22.23281490807346,-26.520022969590396,-28.989865073097388,-34.43438053424435,-42.16289293870424,-48.68476101387688,-53.71195305933393,-58.85185414055398,-65.09942033011932,-72.60707523531468,-79.48451628874727,-82.71208362698795,-83.53572918416245,-89.23867284889567,-103.27662462478378,-105.65165962974314,-54.430138361239756,53.3603891380053,150.17682370771064,175.2933949634573,138.98927260772314,92.95263564313743,70.32199418229936,65.33424188743913,57.941082600310125,42.60559926522398,28.70758852991231,24.85642859312911,29.3117941986383,32.07003232132842,26.648319719786958,15.817456520118903,3.803397256093029,-8.416740772424207,-19.906026975088317,-29.332260330247586,-35.827854942963306,-41.186278279303856,-47.899145545585235,-55.53417308326322,-62.22674010008955,-66.4486358479685,-70.36364813272863,-76.88888068396467,-82.66185391448039,-83.52681112385326,-87.33297120343693,-101.85344307444976,-102.93692903550935,-43.81536013062489,71.48258981274435,167.0483515697281,185.28341162348994,144.4249939028717,96.43610345761671,72.05649092249855,67.46166059775257,62.44524436487721,48.271303250347565,34.156705929311265,28.728975171378192,29.927807808920416,30.097779114019282,23.990547838328787,12.906512574585776,-0.15408242209011824,-12.82861289525998,-23.495362166624872,-33.189921736177126,-41.67722997206695,-47.601620754586534,-53.97868919529509,-62.58116758531578,-68.37041502655964,-69.58491340859896,-72.14694268586528,-78.84199423757715,-84.0413073446985,-83.6256413319079,-84.34685484364392,-98.7400356094761,-118.58500571710722,-97.87266484988645,-3.5608500341386464,116.18244913310278,179.3770963136528,166.81407665415847,123.81969061472405,94.83282916577232,85.63393093026667,78.60776862461728,63.05519321122638,43.32005162276081,30.494335597514894,30.32151752091865,36.887791455035135,37.53565693514229,26.456175138862523,12.129594481748285,2.2002991816277437,-7.251877321898988,-19.86215862494342,-31.4541593516516,-38.5388449024426,-42.75573191963745,-48.44729218819128,-58.20993924651859,-66.70690580891429,50.0,103.0,56.0
73.53985930222949,69.63809332041728,62.39394848418512,43.11607891856989,25.210886986300167,22.170097184448203,30.655831158468455,39.22806498605186,40.04141072246056,31.74509458449446,16.34447027930662,-1.7579833821008435,-16.411956438654716,-23.271863905840316,-26.034610757625142,-31.38948213113701,-39.17603407794527,-45.99566561689883,-51.71904827702314,-57.8191186164749,-65.1626414624739,-72.57391168059415,-77.9226161979467,-79.64878111889298,-79.34393788019439,-87.36547198671538,-107.574197472521,-105.8297695041911,-34.565404297541164,85.06408858935936,166.3163968335813,166.09881138730628,120.77101304934243,82.27557244811622,67.7188381726901,63.061349631492675,53.27523513038366,38.76676170494489,28.483879462834896,27.695831393164003,33.528330347207635,37.247226285969816,30.950836618881738,14.034514217531594,-4.852825641656484,-16.16588919572625,-21.46710431048205,-27.455306889224104,-34.38707910018957,-39.480919103867755,-43.89513073846738,-50.12964400612028,-57.40305249687257,-64.11046932747071,-70.00354144844411,-75.96853127862346,-82.13471303812953,-85.44295853928016,-87.2022216188354,-97.16423624521333,-113.78676165349309,-101.68741170473422,-20.48590680894292,102.57579101462652,183.16743926698706,180.0782401528268,129.7359314692136,89.65038450574707,78.9957955910215,79.24270684506851,69.83507957471038,49.46212143934871,32.129771962942,28.087646635683463,32.29383665788436,33.05268017172745,25.21837176019399,11.665073122325829,-2.937632553820073,-15.817001798414632,-23.976799493487793,-27.155175634777525,-30.159565001502607,-36.60667368324088,-44.26078067502111,-50.22122795758679,-55.123452932292714,-60.520232396633816,-67.16692189396062,-74.80957226750375,-80.86686666901826,-82.9568893672499,-84.3095617605971,-92.70020303412068,-106.89913477325365,-97.92958616606484,-27.110070537501148,86.19059463790153,165.7504329043706,169.03764955456137,124.47782888076176,83.61976034639092,68.00840578250644,64.0945967819536,54.06139200611845,37.92357157983564,26.411953871065954,25.657480137290666,30.746022434484203,31.365542867302466,23.82347340938482,12.385918621277737,0.2715778580207823,-11.870007452622936,-22.90246968455844,-31.496328367787935,-37.34422150805635,-42.95326830575054,-50.07963667545214,-57.66558871735894,-63.6916595333706,-67.42403433300852,-71.98143955705285,-78.93959946186818,-83.3403683299339,-83.70195482691601,-90.67146508825847,-105.66161832274861,-93.52456954686838,-13.771011169884352,104.95277534017033,180.81021321500344,177.27566184836667,129.25768669425867,86.54864905115234,69.53567759989438,66.85045685616885,59.10957925825072,43.61636779650957,31.603180506305172,28.693703316667687,30.430033593952444,29.029267579484255,21.139861644740918,9.243385521972796,-3.9782234051996097,-16.10082017243985,-26.343972139571058,-35.859242893911286,-43.6163516676399,-49.18801921144987,-56.37030153329166,-64.79742333597312,-69.01686508967423,-69.88863689151165,-73.79386723941923,-80.82163029375002,-84.44193867797478,-83.12086675742701,-86.77031761259745,-105.33350758896813,-119.27859300782877,-77.76206363080254,32.41872256790304,142.77384250057398,182.2389451305131,154.98479014131175,112.97785687558762,90.78710597014779,84.15787777968865,75.0418764239797,57.3161975115592,38.452958337479664,29.185956769094954,32.050063565370934,38.20708755995899,35.38443210317729,22.106350252719473,8.801498199468814,-0.26491075797790564,-10.65122998878923,-23.56778246097669,-33.97474414684814,-39.88834438858324,-44.035661216847686,-50.91865688576659,-61.190749430048,-67.87865628687898,-68.61248798745123,-71.4932342178891,-79.64612597343626,-84.68781158390232,-85.79283078645831,-97.06560734635782,-117.52449317311476,-106.07234078704649,-22.28790890019989,99.79017679152939,175.7887061249625,172.60861154882988,128.26764617541028,90.8432231321859,76.15330422727652,71.3894346508228,59.16901428386154,39.66373635394076,28.370298685720343,31.30607873308647,36.636670645273526,33.626965922281606,22.031888375425808,7.0211328055700175,-7.099016493034984,-20.352327143074543,-33.20106258274892,-42.98046697024356,-48.05944995075258,-49.7827129769363,-51.75276417290787,-57.70247226711126,-66.71934881347988,-73.76153152496464,-78.74453809098817,-85.28801632221209,-91.98708526423604,-96.12051204699166,-103.66381529935232,-119.5944467185469,-116.95235088960615,-47.21171608317001,78.62534698793627,173.55228229753274,183.959435601823,142.46593875609645,103.94699589382563,89.53673280542533,88.39523397608951,80.39623456021681,59.310413024593274,39.10661367805319,33.70346363384931,39.14561603821908,41.65162841571097,35.6420105095349,24.9300214897187,11.63018645095975,-4.032187722653198,-18.01544760237325,-26.72908787330452,-32.2481540670587,50.0,103.0,56.0
14.215523459581874,133.63706804725695,190.4577929808464,167.5676119366044,115.26917263117039,83.94630114439512,79.10624257763337,77.99426252941068,64.60671064319604,43.44314032048828,29.532619543070567,28.992221488633565,33.27991460836992,31.656704956858253,21.65397016590168,7.407894926209572,-6.955646336460673,-18.777824479217152,-25.261573642644006,-27.784923834189378,-31.66735399644164,-38.88133201864605,-46.18577405190372,-51.667045711014254,-56.58313436685366,-62.29532527461582,-69.33848690264153,-76.88179671722362,-81.87642640849123,-83.09936561852012,-85.71885845299037,-96.85046955580657,-108.72598508844389,-84.59708818799498,4.231059527715868,115.9147050435422,174.41811934717114,158.64263481338315,110.51605119939714,76.65370291623844,66.68726166914901,62.19709821161606,49.600700428400984,33.66610802400888,25.09472266269831,26.989432158401065,31.752706211688263,29.915736185856872,20.692277545110723,8.918644161311656,-3.2718292749481703,-15.229769776116909,-25.693100737563793,-33.40441250129068,-38.847948043444255,-44.87005130893535,-52.30168172855859,-59.6633800444459,-64.92944593684182,-68.4764666099804,-73.85965456927231,-80.75765747670934,-83.56891772504505,-84.47514696968078,-94.97089000984226,-107.30634838514352,-77.9224579091863,19.96726587527127,134.4599307724808,187.40339050607932,165.4878348371826,114.75933276009161,79.03107031564778,68.26583204581121,65.68097996265752,55.01787774873364,39.310969112758634,29.88052955560451,29.068341481961937,30.63687979267417,27.371740774187952,17.963559813776488,5.466603511949236,-7.698433186505083,-19.198000786232623,-29.15335989650475,-38.383105144221595,-45.326517550843626,-50.945274414670685,-58.91609845485351,-66.60452869226475,-69.33583560054029,-70.49989043255069,-75.7566960405851,-82.47843814332089,-84.34242801015719,-83.00824393257564,-90.64436694215645,-111.8266047798982,-115.09271104212343,-51.23967411848812,68.41567120738868,162.8477295980011,179.19695462997518,142.08502502250826,104.0842254538169,88.12402112874013,82.37090254685032,70.66358406544218,51.45944587358575,34.447973696794236,28.971945257975676,34.08354638187135,38.69804020556958,32.25581276447753,17.81416492595927,5.912419509820749,-2.8863442676008653,-14.314496099258415,-27.032291536514073,-36.08728735592165,-41.07804183055341,-45.56491701311213,-53.74438431229772,-63.8350631968943,-68.46042234357466,-68.8269003591884,-73.55250721396561,-81.81302700979654,-84.93423921073078,-87.39392438768992,-103.11440471942691,-120.01934199778391,-89.58764376647109,12.724554066810274,129.59858186879626,182.25236995259283,161.51805074355713,115.32911022728459,84.46353004132328,74.67551686643498,69.06337376688386,53.705166866178274,34.89649884681239,28.054069719175104,33.27599046106518,36.80292316964108,30.97980037520248,17.784769897989317,2.7743569631366323,-10.943878388957852,-24.18092408796375,-36.47710803101457,-44.918758743137126,-48.77984288644797,-50.13116738112913,-52.96946783939153,-60.211918444332035,-69.11148884825452,-75.23760789220384,-80.39913364526411,-87.41574677673991,-93.37971442756405,-97.47452135156021,-107.7473822562366,-123.01021083663332,-105.09202092492811,-13.54014776822686,113.28912843660405,185.13436395011098,174.56384799230162,129.30219995939953,97.36348564707959,88.76990517249527,87.49387550192363,75.3186054106815,52.52487523924362,35.83207333802424,34.75945262146935,40.67965672805238,40.700184207051066,32.83511424573811,21.37909456930335,7.245905795453626,-8.482927913342287,-21.10144156412764,-28.420936790636322,-33.990046709066064,-41.419913121425175,-48.78567685565856,-54.55834491602554,-61.037662905209366,-68.75262996842929,-75.50077872511282,-79.92595819672721,-83.68040155031314,-88.13313494449477,-93.38613488650707,-104.06549032466994,-120.21761233166738,-109.41440021642637,-30.909107897426022,89.06748543460034,168.86605867549645,171.17490637355,129.96730716225628,94.36288652992744,82.92643968222603,81.40443013894982,69.44941636006139,47.97062682237481,33.66565485660019,32.20770697986993,35.64374093913496,36.12866432905274,30.237717318357628,17.547918307926142,0.401697375435547,-16.561989821563063,-28.961609061570133,-37.14893255722298,-42.753399760640164,-45.22891292999006,-47.83568991684353,-55.63364769325779,-65.83585536733551,-71.9390006586494,-75.56682687940274,-81.89840231246782,-87.8232291609849,-89.6470949267534,-96.3698239723461,-115.02735712362077,-116.95419241047603,-52.05360970403969,69.77945089507332,164.83771694119528,178.0567509423812,138.2834709602042,98.4481714314021,79.26466740327848,72.53713166326425,61.41164284779599,41.45005009848315,27.760145499881244,30.696447047627668,41.7365878253285,46.11852558172104,37.506510002216395,20.267487705689653,50.0,103.0,56.0
-83.54274815733946,-86.1760855925338,-99.7285015750131,-105.39195514659473,-55.95776154385052,55.29997699713899,158.29704744221186,187.318004831259,151.35189550000942,101.76035559247663,73.78690225033944,67.66891161076602,63.680390940449655,50.446692434836336,35.610665524626064,28.93415573638273,29.649271192296503,30.392647630753178,25.168646321877866,14.54557810114463,1.6234386454219718,-11.254225289165264,-22.161330830955404,-31.928279697797024,-40.695615394233734,-46.893568336377584,-52.957666495187596,-61.459637147945855,-67.92605338560239,-69.50336059407455,-71.5251280092854,-77.87061589651432,-83.6714070582868,-83.88931050620263,-83.6750956900618,-95.92015055861972,-117.01957441793722,-104.84655762626966,-19.479403815083025,102.05794024286968,175.80364651618316,171.51711721304156,129.35425608269253,97.28873479134718,86.3219931112807,79.97197028060054,65.58298525169037,45.78827952241095,31.482632195707026,29.71461776002688,36.07818956742241,38.15875918020455,28.395357503741945,13.824175986299549,3.334750819980036,-5.7958858067911185,-18.11082251707687,-30.150884083964122,-37.8362189149067,-42.2158093632659,-47.444981877719435,-56.78824028372315,-65.94658708687327,-68.62061241727103,-69.4860137640004,-75.98391380917876,-83.43850125083557,-85.02842694977464,-90.28818648069972,-109.57284123465669,-118.42471737524225,-66.4355768819637,49.12254608897713,153.47419496342968,182.1825275176141,148.39567442784087,103.9285060069555,79.99640987558622,73.52251764202727,65.7648531596256,47.87871243096357,31.25595243365208,28.856303240562312,35.0388293306614,36.12372634982859,27.693516479509103,13.405916230755588,-1.331523431205975,-14.761106234422488,-27.955529292803135,-39.40884867080993,-46.45895041456863,-49.27508599702788,-50.60755187611947,-54.598968699987395,-62.878205057029476,-71.21437735286501,-76.6239798241161,-82.26510876461495,-89.44086674513397,-94.53647724856033,-99.37980512032063,-112.54773784254859,-123.74458621473909,-86.4583366848229,23.52330961044745,142.82374139265315,189.27131356002403,162.3253452917856,117.54133959944801,92.89576237602492,88.63032052260432,85.54221456268394,69.22413729492798,46.31085665353046,34.00284253274861,36.428300440670974,41.62745397257125,39.04602550009684,29.76794154213771,17.602540132715525,2.6913733193417317,-12.651868308002346,-23.7008099009291,-29.96378029053828,-35.938500547603944,-43.71095273926831,-50.54966193844215,-56.25822046087073,-63.212225002958135,-70.91304777098381,-76.99129871535891,-80.97540778395731,-84.89871341567871,-89.50275176067437,-95.57252995525607,-108.83941572195644,-122.1546825491953,-94.29855558554752,2.8742235579117383,119.47623482452165,176.98669465489724,161.29411677504794,117.52707500229178,88.74666468003747,82.55013840474298,79.51145641393175,63.5344702040664,42.479560017187325,32.14421817560155,33.13564159098915,36.304533389020804,35.15522637885877,27.213664167301047,12.886160122092619,-4.7638472623901285,-20.699955732554447,-31.642046224359454,-39.04640876277379,-43.77287799308356,-45.678790355215106,-49.49020934690715,-58.672157417769576,-68.15509864199724,-72.940285884075,-77.06942671638708,-83.97130715130375,-88.63521219714326,-90.43771935724698,-100.90498957633056,-119.68383100066694,-106.47732081428938,-19.76155828689923,103.98004570390873,177.15922850357907,169.37925966172537,125.11077095321646,90.78957981231228,76.78345701310302,70.39847923234254,56.12910464295137,36.044725537175665,26.965940070560876,33.7510840102558,44.199732350929075,44.92984760016184,33.06060102381823,14.804976452850909,-2.6171778576755487,-14.873526247528105,-22.111187061688252,-27.866044325172307,-34.09479990717635,-40.70355837512463,-48.08366015993353,-56.86070699283636,-66.39151813407638,-73.84953016127434,-78.3236439334368,-81.96303551580121,-85.01802548811449,-84.98021611427903,-85.81591114902677,-97.55890361001093,-111.45509037912574,-82.60833021207038,17.27971411594863,133.1835269970943,184.11749792417362,162.57591903218724,118.68396910921847,91.46540194273933,83.45439032759968,75.86762394562155,57.59611596521741,36.87019766855967,26.045794486103357,27.224765705995857,30.892261834430105,27.928585244053803,19.415082318808928,9.081010680541622,-2.9138092094802253,-16.041134226720022,-27.125271604853637,-34.57684827328929,-40.47266225636478,-46.24956286896012,-53.10350020350268,-62.23848627748221,-69.776778411059,-72.60215902690196,-74.98986254030837,-79.39672475752806,-82.05605510940794,-85.89343843358932,-100.90638059812795,-115.72116019840607,-82.41618564778571,23.07412111689796,138.56105173010414,181.66460264010593,148.60706076507086,97.5659430581416,72.2973227532533,69.33436452271587,63.29407830798293,45.26523574824064,28.491084564337314,23.64148815233869,50.0,103.0,56.0
-67.41817562095082,-68.60372855618698,-70.7217441679661,-78.52252210074785,-84.43020932389821,-85.3990449580637,-94.61685448163445,-115.40435785911716,-111.41263431245117,-37.33243364100651,84.48429518803536,170.41881192840788,176.64141664601192,134.5654686067846,94.48634086639304,77.09193255471895,72.18755370954845,61.45884080208961,42.14489107766528,28.95918958824317,30.43164991450329,36.29133363435244,34.600252381421036,23.905483967850216,9.019602964024152,-5.303655023407256,-18.584880442023298,-31.594658863042554,-41.94819625039693,-47.63111442569911,-49.63456735053128,-51.31888966154182,-56.63893012099133,-65.53806621437623,-73.01803810777523,-78.04596294021175,-84.30935092458002,-91.24790064719271,-95.60081697101914,-102.09479233950414,-117.50213564172228,-120.3198990240724,-61.030859321506064,61.52246224143654,165.59676531128528,186.888539233361,148.7773654225992,107.73294772725373,90.25365002664623,88.55577392307956,82.32332210097853,62.49580582015046,41.09064897472225,33.52668656981181,38.31160007383243,41.828153103713845,36.820453987839414,26.499774212031046,13.573856304972855,-1.9226185331933965,-16.42815832074522,-25.85872180594031,-31.503878065649598,-38.080824594855535,-45.89718412433574,-52.196381784763005,-58.09033861717256,-65.4614713977827,-72.92490777649789,-78.28354201527677,-82.03390584152349,-86.18292377492277,-90.93723819316352,-98.42393898611638,-113.91429364289584,-120.61023000631903,-72.7567922092914,38.51136703131141,144.41659137799937,178.57266884616556,149.11912134065923,106.60258684064584,85.20644504591145,82.41076847877392,76.3431422998707,57.13725495634462,38.018029406714376,31.632615965451624,34.214249443931905,36.57969869294385,33.59669299912145,23.64024064887318,7.931191192748583,-9.77768791883416,-24.37775997313352,-34.03759339309633,-40.737840139765495,-44.50748335392577,-46.29430990890284,-51.66631097964303,-61.73818069156837,-70.00029537706119,-73.89264411377174,-78.883236020321,-85.82480210068552,-89.09680177715182,-92.0140915770384,-106.4566399484346,-121.74551275800711,-89.23934559466548,16.04398844084489,133.48244811951812,182.14559872728802,157.70022651046224,113.04887284225435,84.96694701358649,74.96596426657099,67.46640034607587,50.23365873462577,31.666576993494733,27.623410963460017,37.112322482129365,45.772246030273756,42.62399251889997,28.082359289231217,9.430799178740358,-6.783238169959315,-17.346344531115122,-23.774844036031908,-29.613239153294945,-35.96229746912182,-42.72673743363293,-50.4575118804107,-59.64113398496989,-68.87607494483163,-75.38528692653139,-79.35902095283376,-83.02206228589077,-85.35773173698676,-84.67929914864936,-87.81704371544483,-102.75681859060899,-109.90606843117553,-60.30335813475669,53.33385543938464,156.6782823131301,183.54674867876372,149.81974100615108,108.33110567859947,87.85087134588767,82.08272229773699,71.62439234967276,51.21250340547989,32.38033666386059,25.404954987276472,28.591815969777826,30.84853062139208,25.819527604802133,16.554185381046384,5.816868636791549,-6.6972206559874845,-19.60467797787862,-29.602080770470675,-36.33138225922431,-42.134265254535464,-48.017813008735224,-55.56901091009558,-64.8469017156278,-70.99866510585693,-73.0783090626844,-76.17371873031442,-80.46894956742887,-82.58196246174948,-88.85201205016548,-106.81532008176411,-113.41407745272892,-58.247653842687406,59.82575201452151,160.4609697048746,177.8664398882834,132.93986805176462,86.93154535300535,70.23861217884333,68.84545094864754,58.97531656521173,39.55532558600227,25.78589218115227,24.213785251643184,28.608470731664145,30.266952845838265,24.52213975452052,11.929447586752875,-3.0912422923756955,-15.920468703062976,-25.923884391878886,-34.37009498937903,-42.54363756289607,-50.26467344975324,-57.135996185030876,-63.37407192803337,-69.0901100608577,-74.16517513369456,-78.58673078991986,-82.4196975490504,-85.58056747380589,-91.31500382179007,-105.67018393869871,-112.58809111395897,-63.97703662013798,50.32049752632259,156.43064083726625,185.1813512196647,150.63536872425672,107.76791295949539,86.47750484630782,81.0122176857647,74.77930826954535,58.84378676202098,39.8483077021947,32.272442934063186,36.946414742290806,38.49513925693633,27.77650011361383,13.058480740937812,2.7425420608357034,-7.778717929452931,-22.468012219038318,-35.69751392872973,-42.30198167904946,-45.28122632067185,-51.29813539681935,-61.587823380116916,-71.91713286592484,-79.7911880169068,-85.91019440490798,-90.7764444753294,-91.69388610227863,-91.1114688554633,-100.71514605975187,-118.0090325548568,-101.29400787449323,-13.52446746609455,104.14365156506943,169.45329494563882,160.48138686977666,121.34779146760165,93.3741306420823,82.81965407026152,74.56387245534076,57.67002763895818,50.0,103.0,56.0
