28.380441647639355,868.2860922633763,1077.005631747328,890.3222154203582,748.9862106623352,710.2796035501791,660.6839956207999,578.7589106589628,500.67696549226156,433.97455373221123,367.41304621171554,298.85317769715914,231.69959174088166,167.79853208707985,106.47713991323555,44.108978543510865,-14.330659419216932,-49.07952356914877,-48.34115254258727,-28.90996752449585,-17.78055484060548,-22.308074043180284,-30.698360734616212,-32.851975693138805,-34.054572832912264,-42.05520241127913,-52.79006724647904,-59.22751213231177,-62.981775822358266,-68.35164968562924,-73.81782207074052,-79.30833800154714,-87.59637649625654,-97.3260802986003,-106.28355401159676,-115.82909831150626,-126.1934750065453,-135.5034444466725,-143.4643388282313,-149.88571360471988,-153.67902548810602,-158.82291260467628,-169.68683863816833,-174.08486252830662,-152.04088074732962,-103.78517883571482,-51.95573326569863,-16.561481990273457,4.633069768327846,24.816442572555665,44.937803263558344,57.99102580775811,65.24759902578444,73.68931198366747,84.91478828426678,93.2302476877952,94.40897039788665,90.43070029816421,83.14952375634016,73.25720373293956,62.38039165036796,50.329683992813116,35.205002497259244,16.684688356019482,-3.006548586237958,-19.698502175265403,-32.6824766099388,-48.282974283630956,-70.88266615539922,-88.69620957166825,-80.66776114670405,-43.31398403981808,3.0395057639842027,36.52355899095737,53.60326807629462,64.98011242748159,76.15703127172911,83.40752683086947,84.6391779477205,83.29786927080734,83.5864727722304,85.5454756254257,84.41319335077827,77.91605361297749,68.81986529782756,58.557007130383,46.3435267680704,31.162298525407397,13.558918044968348,-3.9121317285561132,-20.447376100874894,-37.1775560409713,-55.14672390815933,-74.30967933152112,-92.35701342267683,-106.84302766173856,-122.57811770210742,-146.42628430397886,-164.5326516105073,-150.72445482527112,-106.22721076512404,-58.192685378155105,-24.905429036331558,-3.1287304727497136,18.708290541342144,42.53111137710802,59.49123827956653,64.07250835622688,63.473270365719465,67.00487025290899,73.11825335486905,75.93133681484098,74.19111395330624,68.98113043072195,59.49479358918673,48.16828489935589,39.901724402505934,31.841010043747815,18.041747401808976,1.068342756150558,-12.250563844323542,-24.128873042369264,-39.354008010952,-54.09629611533098,-67.22031034983009,-87.24119826048968,-113.65533841681354,-124.568473178624,-102.22151345470434,-58.307284538406094,-17.578088158932076,9.170923491699064,28.868130759546553,48.09567321329874,62.41586955541807,67.03817690999956,66.16898550246259,66.07825815036611,66.16593081398014,63.888255995956975,61.32200163655179,58.18876759930705,51.530463149925566,42.71044277531205,33.17676271199157,19.94699248666197,1.8689846864501165,-16.950609660500835,-34.16110532024363,-49.957959774370366,-64.56523733645072,-81.33026065726771,-103.01601370293174,-118.3047401490504,-105.20395471379584,-62.47273163007298,-18.169927212114093,7.708322954694976,22.323172809634652,38.4515452774776,54.76862096500387,62.37636645513838,61.01296474015546,57.779776668807976,56.97294491777491,57.106457251966916,55.65769571042499,50.5604932911693,42.10574526636558,32.82878119300104,21.821823107603183,5.6785353727030845,-14.195923403787935,-33.39995743589932,-51.01049899974694,-68.63165512361931,-88.48113908367957,-111.62805224405545,-129.25168921082278,-122.08963712658255,-83.66273445240462,-35.33202538834375,-1.0970083428857016,18.97214210346093,36.48483731853319,56.14453286828725,72.67404895330375,79.03419655773763,75.6479043708195,70.68802934577536,68.32534769464068,66.77376773614888,64.25537686966018,59.798573809858325,51.71989260148369,38.92047756579541,23.30575591153902,8.741172664360768,-5.065053859285503,-21.773956017727905,-42.70580144756886,-64.77718425448144,-85.51155396224232,-108.30007057503899,-132.22806802610435,-139.96938682628348,-114.96972083000522,-67.25388831656402,-23.4338239270571,5.335828558677863,26.580655251932296,48.402079326134015,67.8942047960745,76.97487542587123,77.52914313580047,79.71707397622338,85.10904936856447,85.28202148352611,78.98054476095743,73.41124942201131,68.38090277186826,57.01923184829678,38.97679890151837,20.534498351174307,5.212024837611516,-12.424465367943426,-37.54650580976954,-64.02053871113687,-83.79177119549219,-99.79809488694829,-121.68660458322012,-145.1513035214731,-147.87655675846844,-117.59729611667692,-70.05648717741497,-28.29260139446661,-0.0889446537787817,20.14329572035195,39.982727527645075,60.080408306268694,73.96043397373012,78.35683775145564,77.29169257098073,74.91134106030586,71.098491682794,66.52353745482984,63.30788113540006,59.19516425380921,49.777438758426754,35.48297292360787,71.0,123.0,86.0
30.153738079861547,10.948103088953765,-8.30434397953274,-23.660549970250443,-36.55103366100349,-54.2349925979174,-77.49411348810307,-89.72318216909764,-72.30884016104487,-29.672626618949437,14.618132005197491,42.771749922830985,56.9989640947795,68.30120386811107,78.86758509759036,84.30374092012066,84.29805222295148,83.09730907470174,84.13779780982695,85.7627709887442,83.00885942689213,75.42593241790499,65.9906562704098,55.276991023651355,42.293475828130795,26.221145211950383,8.404591411005411,-8.752888403444565,-25.20011251304164,-42.2176374350942,-60.60846444580511,-79.802725851727,-96.88745371418331,-110.8177209606067,-128.6932028447575,-153.52775761853854,-164.52872858318105,-140.01160461813762,-91.48832700639082,-46.845045163949884,-17.965807747548666,2.8055431346866317,25.668245996740257,48.58632263355307,61.997857332535354,63.8890600703139,63.91585456260432,68.80408721813586,74.43127715545816,75.83449718497342,73.04621213551536,66.70520353558717,56.13726269213458,45.40498896528526,37.879190339363596,28.543316689761507,13.103718971754377,-3.280408158518169,-15.50250091337753,-28.205264990639623,-43.92703434211052,-57.78078462681941,-71.91850215250027,-94.85429193140513,-119.61599089652645,-121.58549769198412,-90.61188595190157,-45.32695493523739,-8.489948232813777,15.102188104427283,34.49087878741535,53.084353539977414,64.72749694346734,67.00180132660023,65.93698362672855,66.27097989315844,65.71870398492578,63.073450960296604,60.63062082895822,56.666951066239385,49.05857941181434,40.09738050632535,29.901950515603573,15.095457174062384,-3.6857854592843964,-22.084895575940976,-38.87269941379499,-54.24240359541444,-68.94457431066736,-87.22266035202375,-109.06526567865524,-118.17933694844163,-94.99739120000648,-48.42395362321895,-8.698118630753763,12.373534694379837,26.56916104845902,43.56765067387275,58.1096835182516,62.634603281864095,59.956192714729525,57.28717581177218,57.04171011762741,56.94768403539044,54.62435712575673,48.34669848782296,39.44645613956779,29.99367270107859,17.756788881887577,0.10395424447451274,-19.93700815108122,-38.5999910489797,-56.014914072473644,-74.02279637943421,-94.936792467508,-118.065232827757,-130.51603458398432,-113.72197841524184,-69.3386322756913,-23.514484264301256,5.649025160067068,23.86962777507576,42.0335316536798,61.61172910907607,75.74073846513278,78.76078282645521,74.02385958771933,69.76656864578422,67.90410472103697,66.1841272285963,63.22713006352187,57.91768560091642,48.49794441566031,34.51589564033749,18.88402099470339,4.827078997554732,-9.453989763336965,-27.450423181328887,-49.16679692739302,-70.85264655810268,-91.67717104662913,-115.55822368691337,-137.1655754379028,-136.26950814694905,-102.35555849326009,-53.21403723961185,-13.70501714558417,11.752612234037151,32.71276463419306,54.679943374190835,71.77617542712605,77.5880128741291,77.62941856699074,81.26294564480197,86.01570413782633,83.83676918334095,77.05957229811737,72.20917885930935,65.95728030052436,52.26980059320725,33.391920784968704,15.864151047940824,0.7419275770886805,-18.97324743698098,-45.52829025327036,-70.5504269230412,-88.35634726620195,-105.26318893798575,-129.10417364000088,-149.10765460050504,-142.2965088453459,-104.47093931717735,-56.69549060744269,-18.844389095379537,6.18565914768954,25.70360275065262,45.98022304547611,65.0310506880369,76.12560871534345,78.35229359383477,76.68090833366,74.00029981708924,69.73242200504947,65.44356351521188,62.43690430109452,57.12621574407938,45.97676092952813,31.05405636880453,16.003240530189803,0.2712609304909702,-17.08084482146829,-34.47824236374979,-52.32143501127041,-71.88277823534516,-93.45083148649232,-113.58249916813182,-119.6899391060261,-98.28461647552203,-54.11952035412155,-10.409896076494608,15.895884580946015,29.531265623187096,42.839290965881524,57.43634154744684,65.55037913782128,64.76511107351027,62.02126022622362,61.96660437967119,62.02890149592115,59.37103621061298,52.770179979165576,41.84551507317524,28.835599896840066,15.930820188737444,2.8811902230415236,-12.499245807186755,-29.59936750260344,-46.42229901744501,-64.53017578489498,-84.63342202394313,-103.32803291706539,-116.30870127850723,-114.09758333014929,-85.84497476267222,-39.52153395881882,1.6430051911709005,25.311660473567223,38.53022616881831,52.04596281729941,63.46618278766611,65.25390610579208,62.45273009187046,63.31143067470955,65.20868640529703,63.627730037727765,60.81401192460131,57.06576526780089,48.23760820055307,33.93738069168634,19.165055281973682,6.6849434155261,-7.322718996723089,-25.771181511783574,-45.65923842407427,-62.32459005959392,-76.96066921058375,-93.06254719540162,-111.60603687437361,-126.71036015441086,-119.86966206821722,71.0,123.0,86.0
-77.46916167638277,-102.77628047372882,-123.56013737260669,-115.6222223442442,-77.79148362063127,-33.19026654170846,-0.6149337466892704,20.738514821410874,40.12744900524908,57.457206638335386,66.18691471596394,66.69973377101722,65.88412599507032,66.37545175599901,65.05945721318847,62.318275193692536,59.81723898374487,54.79434251041018,46.49715322644088,37.41405584291686,26.20689908060099,9.878479904898994,-9.174109993191754,-27.079299393347878,-43.469582203293655,-58.434738367731754,-73.64230541192298,-93.54095203575854,-114.10210027210047,-115.13091834741564,-82.66010544090248,-35.112384422415914,-0.9628677010499075,16.494222200431697,31.171813749762418,48.49320219673956,60.52409756883611,62.2644973138099,58.940073224873736,57.03223718682521,57.115292344311314,56.605450680650755,53.23438212140925,45.90510031708243,36.77913925849918,26.933484182180823,13.187518739412683,-5.672328682410545,-25.52991364940037,-43.687221422538585,-61.06568702861784,-79.664855710322,-101.67082590299259,-123.67267621529113,-129.18879147909078,-102.84859442573257,-54.968138029335236,-13.280197546016293,11.460993439590373,28.835612414103533,47.76199775635655,66.61365938108317,77.81284214191761,77.79521421603738,72.50208449481647,69.0699155531983,67.4828417989215,65.4899125931893,62.01024569140726,55.68535563148457,44.86922247334066,29.96566960411858,14.63934474427955,0.9041642242533816,-14.178936824196631,-33.470074626501365,-55.60319420660301,-76.80640872563902,-98.16143507924312,-122.76117078055721,-140.15530870287455,-129.5876757783914,-88.41698559992548,-40.153104173250796,-5.241463418715685,17.827567526387394,39.02165684443549,60.55730913027165,74.61716445430017,77.68350995530707,78.1327420391059,82.9495699373093,86.2500295209276,81.96997047676376,75.39131602083127,70.90932934187089,62.84116499629326,47.05732948104068,27.958153694524434,11.466262354707133,-4.148988263781942,-26.185141349494387,-53.35786632171005,-76.38342211414157,-92.82010548534734,-111.45615512993196,-136.30887431517715,-150.67768004103996,-133.92776134206125,-90.53864999381675,-44.295091387394265,-10.531315486705461,12.008570594842096,31.389624237259014,51.916615968172955,69.2659151472313,77.50543898260526,78.04249081738543,76.01863124309665,72.93011035644096,68.36431190343004,64.51400670450846,61.373708214741804,54.52285054460605,41.84859480448562,26.653731560750288,11.632950172422213,-4.634185643206044,-22.145855203667992,-39.51180468616713,-57.768860683671825,-77.93082704417964,-99.7835217178793,-117.53843837371564,-116.59386365314427,-87.03154906364385,-40.32562075583431,-0.8474782326418056,20.52722503491705,33.05589647953721,47.20565513100517,60.77500528627173,66.03432118067593,63.81711759806489,61.74366770098956,62.15961072811696,61.59020462485811,57.93280155117823,49.99292901782277,38.180476718756175,25.041943139137036,12.271957105462151,-1.2633050724012274,-17.39123992236984,-34.48617849690817,-51.40513438918848,-70.23447491847836,-90.35744527504279,-107.92022973449109,-117.84907854081857,-108.74752840780255,-73.36051857581964,-26.151252771227757,10.260346373623268,29.605643551165386,42.20196541390238,56.00649059646217,65.02992343312557,64.41491164267643,62.22937136229022,64.06607463916309,65.10721995700503,62.79302464694406,59.99420786618312,55.183526325799285,44.50980731359241,29.464211793524175,15.404441732154215,3.0193542311498267,-12.216962882398766,-31.625572063952553,-50.88845469957731,-66.57101133161954,-81.37432053702344,-98.20285291704384,-116.9510570954273,-127.8959230489408,-111.67108107146004,-66.94806810906282,-19.745538178591577,8.090706981837782,21.72387435184629,37.50749657384411,57.58909165864383,72.46176003538194,76.78601700396838,75.77154910429869,75.0526966741451,74.52938162563258,72.72158330183527,67.35009489661975,56.97197349810076,45.45339083274793,35.70172568807743,23.894864636510004,9.926207761517563,-2.524862265588343,-17.11091269471035,-37.15044730378445,-57.970437768219604,-74.57742228144858,-89.42100750863331,-108.97856293437574,-129.4981036386476,-130.3187689606343,-99.07720699817745,-52.067258436965034,-13.279428499252262,10.637980533821608,29.013507644012854,49.42860045474693,66.6553705513551,72.00302242561952,68.40944101952743,67.96969200871848,73.20290431749302,75.52194297869775,71.73982349663757,63.901035095458525,53.89455068315507,43.21771363654169,30.952982314154998,16.5972644084072,1.7787197299963455,-14.357618324975734,-33.138691489443886,-50.38582477273058,-63.42891410423333,-78.06668795526257,-99.52062719041508,-119.17165326194387,-117.91664389850214,-88.2828645626992,-46.7420729107059,-14.548549640161202,6.142491588247397,25.333795904337258,45.87048696195872,60.518639182925,64.09634976687919,71.0,123.0,86.0
78.8716635665802,76.38061506121515,71.20006092361864,68.53605843980135,67.0146236419321,64.67616839751109,60.55971356546417,53.06529236209128,40.87051760354408,25.391438633742137,10.570428181981622,-3.1349192735190017,-19.2860214442588,-39.75151813895243,-61.92018694048012,-82.74238888140347,-105.0218724265088,-129.46131087037583,-140.67284822273982,-120.13927224949774,-73.9206853406854,-28.385811958909514,2.1849728768118677,23.805141475648266,45.44416810507337,65.77430076279417,76.44191233362376,77.5686457836793,79.11430616440474,84.50849534867632,85.74931892619934,79.92143245672773,73.98968151901235,69.29082849722482,59.01162978491126,41.557434734264795,22.80022194209365,7.194816467139749,-9.650037333513195,-33.892064285462595,-60.7857924623874,-81.57434808737811,-97.49254950454493,-118.33849669100238,-142.68013848099912,-149.44725714779938,-123.18931139097914,-76.44817311051625,-33.0583078773285,-3.1960202789667997,17.594761017402018,37.23885434220808,57.601497745434486,72.67739621549627,78.21546336388478,77.55263251030034,75.28477069384168,71.705004415017,67.07435335313437,63.68315993282218,59.98113329115781,51.38818043449193,37.51626068116961,22.307756414019412,7.1398336028389044,-9.657446926924564,-27.171886995164765,-44.62684256400197,-63.37694750812898,-84.15382286516204,-105.85052199659064,-119.909086379238,-110.94496381812847,-74.24339741881711,-27.24436013708335,7.04716853738836,24.420041721052957,36.818813090313334,51.566508625684115,63.34687306391544,65.83857284009797,62.929940527159275,61.72144298401629,62.24638579012211,60.89437426357665,56.126047733286775,46.87476805896076,34.4107935033421,21.301536568405943,8.557606411054708,-5.657456947242759,-22.359151803267796,-39.32560074632531,-56.5728454342782,-76.07314147521726,-95.85945210747666,-111.93499836080952,-117.78986788070894,-101.02329846897244,-59.82735675847705,-13.81513786116403,17.33033819308959,33.35527552737404,46.09722191993219,59.55777206976252,65.66935043709577,63.472912568026366,62.434477921753285,64.72591118422947,64.67294894778604,61.96525821775703,59.02496425985408,52.76788960059143,40.38440958729156,25.111854354264544,11.828313764725388,-0.9134925043319826,-17.503535797136546,-37.46367378905562,-55.76160249136515,-70.75335771628416,-85.96926582065184,-103.56381931850599,-121.74743669669702,-126.67672397849736,-100.869692870377,-52.18452969552494,-9.421397368945795,12.690403590556773,25.601578942159772,43.208972627577246,62.85545651886057,74.73104350629465,76.67395973779968,75.46460836461104,74.94574526889777,74.21427567061303,71.66269421158246,64.8031799885802,53.500583062820155,42.54278430964793,32.685191223999084,19.86112779992741,6.178246832298055,-6.2323395382022895,-22.42016293626137,-43.40181657147086,-63.251645126881826,-78.75246788816082,-94.40105062776364,-115.49709742609649,-132.78646887804513,-124.3658873903194,-85.90043280140587,-39.29610364256406,-5.085587862854174,15.988784449255377,34.68867876005893,55.2148748357547,69.58583478385596,71.38024715963928,67.51727441118521,69.21897427908516,74.50539311705965,74.97793963865615,69.810808573613,61.13690714934783,50.87449773334128,39.91107263479441,26.96150273317234,12.314918942071893,-2.616992290394162,-19.596819781466866,-38.538241175277435,-54.47301391232599,-67.11387549489434,-83.61599398442556,-106.17867940338105,-121.72122535690983,-111.94822509020368,-76.37367897179101,-35.94474183135807,-7.801914457445169,11.475508067276628,31.325536198604354,51.10991213513031,62.64234679525696,63.6028405978867,60.70648380343682,59.938476221208354,61.833575808782264,63.192957869809796,60.16843017467902,52.39457284768985,42.62727446474145,31.544392438423245,18.31701131345935,3.7608940512251503,-12.92693798830177,-31.56436804216544,-48.04523867026189,-60.8536948234277,-73.2413532623235,-90.06646682837732,-110.63524702839699,-118.38531624854362,-94.5191353682267,-46.49884223798534,-1.7383439403064587,24.97066431885697,39.89265499266097,52.85486027357401,63.127681703300276,65.17550155138476,61.573733746358585,59.12638649701388,59.91386208436061,63.10573096968403,64.42998930741021,59.153487827203186,48.656349039987546,35.8454816932593,22.989789482340665,9.88414878546352,-5.7258417977527944,-23.76045453286567,-41.81283672879387,-57.89032543123362,-72.7591152807486,-91.44203843651424,-116.44224937128489,-134.78713197430454,-126.19520039352909,-88.77721320523003,-41.61538620966479,-4.274520658441098,19.505198763109757,37.259323077872054,54.17884612259543,68.41949662856902,75.4019707693538,76.36142772427411,76.75918958151077,78.90643153694576,79.16240823881074,74.64292011005304,65.42724056174515,53.00016885100887,41.826798345913225,33.46631148780415,71.0,123.0,86.0
33.0957494327263,17.995123241734195,2.4794937684241,-14.736657045983899,-32.17191257597712,-49.86113221914008,-69.15691722043745,-90.5052711929399,-111.3454717180549,-120.2843018577432,-102.8087652108939,-60.549513067888405,-15.375755468989931,13.40851996286388,27.942032202269942,40.878865878688565,55.68617714563419,65.05575164918375,65.16919712733535,62.24570005785397,61.87103462786308,62.14901567512052,59.92135645911819,53.9218352959191,43.48212536957202,30.59546975993344,17.61705227094539,4.715044494493915,-10.292947178808264,-27.325352600357437,-44.1683255284012,-61.96650788908417,-81.9454801980569,-101.05704747589647,-115.16268577812875,-115.77101033553566,-91.08213528425335,-45.89727193342384,-2.8736525327349893,23.050238054495708,36.893674509184315,50.16151289165671,62.4291235177774,65.52187328932843,62.69791980811846,62.98433630360165,65.1336348177738,63.99253314556901,61.17416709123918,57.77344631574947,49.792267311128555,36.00117394298279,20.981686586551255,8.319204727550764,-5.206702740791696,-23.109728595700624,-43.135196888941664,-60.31227863262528,-74.97709031229782,-90.7720963003818,-109.0669215734908,-125.49392539964865,-122.68804851165257,-87.99022525439477,-38.03283176498076,-1.0271390971083871,16.51296357898055,30.011271857646467,49.126799502857494,67.4127159871424,76.09446470084316,76.33581709765642,75.24924430571264,74.8185078626349,73.75746251506176,70.23279486461801,61.83521543756792,50.09382647452633,39.77354623335457,29.355691126271655,15.753513641292438,2.6103827944279665,-10.29589400812072,-28.186781410224935,-49.53522596280103,-68.10982260857642,-82.92351356197325,-99.9431771968586,-121.81647950834359,-133.7913456130409,-115.69355012865118,-72.06963737259497,-27.712812771981355,1.9308396786738526,21.193521820390526,40.6178739102565,60.47298098480457,71.3612285863367,70.24355523870827,67.20528981430643,70.8168432701755,75.32933481103628,73.95401191962492,67.59093995007326,58.24438603085866,47.81762137414061,36.42361325652001,22.813857704707196,8.043511414604055,-7.197702616087759,-25.048192301534755,-43.64830338618411,-58.22105668835051,-71.15427762381901,-89.78950687232496,-112.2995476608658,-122.02493293971365,-103.6555207832979,-64.0922138008825,-26.343151697476852,-1.8293798362777658,16.939212910561583,37.37199294682584,55.61091647044046,63.81058081523072,62.80079242576502,60.146825210137635,60.3021096995381,62.477475641485555,62.87775799090961,58.307103787510314,49.669799055176064,39.62254987634841,27.918953978807874,14.233356408952197,-0.7682782662026153,-18.250097359011693,-36.72991496348806,-52.03705139070686,-64.270617779748,-77.45629992702541,-96.03227342473552,-115.2600743617252,-115.05395828836461,-82.00725277488897,-32.11204101700662,7.849032892894417,29.94319866460828,43.635911043110795,56.395064261249345,64.6538865643207,64.37621550019593,60.55544709372978,59.03003446474342,60.683018803091436,63.97539907286788,63.62456652309642,56.512527987483466,45.078919884575456,32.072956321492434,19.330311259783752,5.694502587182045,-10.772460230706974,-29.092381154290464,-46.7002777803616,-62.16451200643893,-77.48060820758062,-98.23319685585561,-123.41344036705411,-135.67043553942136,-117.75658439070796,-75.09715508785719,-29.299475023926814,3.730495385232918,24.904011447929662,42.179787716733536,58.80568569486338,71.27690387793572,76.07184087215465,76.31225818081205,77.27760780476014,79.38827979861126,78.36229377871621,72.44612324482424,62.01245204585951,49.437238914192164,39.257188933712165,30.917168174139498,18.933261691526535,2.2532698911636055,-15.36263289815363,-32.541885093062035,-51.55248375869894,-72.69706497177114,-91.88716142425315,-110.76552700210078,-131.88724337958897,-138.9006765875874,-112.58343080291337,-62.5478434773657,-16.496184774330462,11.465047167945828,26.841203267389712,41.003583129258786,56.79277403788556,66.60995339183472,68.49760005639702,69.9454112026938,73.75793462388974,75.31517359278416,71.93456041363588,65.21883106154799,54.51447801287899,40.35351524515478,28.581456816888956,19.20626586044111,5.183258952480084,-14.063958390593296,-32.977675584957524,-48.86281174508776,-62.21856385590996,-76.66463883076342,-98.34175587985463,-122.1094185658732,-125.51985949545396,-93.77052712742862,-42.389753371041294,-0.8134695346232756,19.835950975591796,31.592112308663296,44.24675099179623,54.61030693666226,59.28349470698885,60.18295537179899,61.140622598609056,62.095511627539594,61.6971748417443,60.04942588110332,53.380416488711056,39.31535031672024,24.546368650809345,13.8599978039844,2.1578063195675714,-14.71823207502916,-34.003334905977326,-51.032119887748344,-65.73666173566228,-83.79958037004306,-105.30736425860164,-115.06637933202549,71.0,123.0,86.0
-115.79705801610646,-73.74862406832389,-25.136638749243694,5.569761373900281,20.05918966007423,35.0166495713592,54.98657732547108,71.08958273554875,76.7029295546583,75.94112195141336,75.10513600929097,74.63866779453558,73.10568862588028,68.36751037642678,58.55174915434668,46.86609375083353,37.01366055558537,25.686730816281177,11.725080232165096,-0.8890106712368612,-14.838497262032638,-34.279060067750045,-55.39387939196618,-72.60069552925982,-87.28901675855683,-106.03057765213185,-127.37093873136394,-132.08402200488203,-104.73547823629085,-58.26098579172654,-17.50813424525751,8.040351361284566,26.492999145104317,46.66331664462955,64.93128650755601,72.02746743452899,68.95510142950944,67.5760488522537,72.48582197833626,75.59242160604069,72.52119760414814,65.11605774567019,55.277018807548956,44.6933148782959,32.72805125020894,18.56954337944292,3.7668656701242433,-12.033065096805162,-30.593061082663358,-48.360630158138484,-61.78847701460231,-75.73665807721541,-96.40477198909537,-117.35118178153074,-119.8130602961958,-93.46550574861804,-52.05932920245746,-17.99822943978724,3.678075504759782,22.63047195065408,43.26884850203226,59.19949389534754,64.1594755609422,61.892162380169786,59.85758314266582,60.854581547756574,62.970247082396675,62.115223677282984,56.0909253818443,46.85665583695499,36.47719295492391,24.114329193101707,10.064223818102935,-5.5273356389417,-23.68470622075061,-41.5902572757965,-55.74969439955313,-67.75615078412089,-82.17707881402052,-102.18477343029616,-118.22557253576278,-108.7423894550167,-68.0099196312573,-18.71282045571758,15.818971583419064,34.23805070442066,47.39363157649661,59.56143040476922,65.38655914754052,63.28185647056488,59.77218439544843,59.203108947744234,61.6256444529995,64.5244653784097,62.206300338159174,53.51932565511807,41.369628541530496,28.347809401621614,15.603757832125531,1.2433615024468632,-15.984701106968151,-34.356228740036876,-51.387492593635315,-66.3921858405211,-82.69311289736294,-105.52947713652156,-129.31435683552613,-133.85393082300027,-107.13802203327019,-61.20060131724041,-18.18120857731706,10.702686738135341,30.016574645079654,47.09730356246929,63.08795621624291,73.43534082312559,76.34845747245645,76.35972308892029,77.93372181982676,79.57701402098,77.14503348266672,69.8615101525646,58.39253785262122,46.11661071041079,36.8851638518502,28.022730835758953,14.457034459076574,-2.8922203266010795,-20.311224927687753,-37.72738203401415,-57.59425790547092,-78.57249549600357,-97.06886219791359,-116.93852043376575,-136.51234045908316,-134.95614505109975,-99.37352731041292,-47.760558993192696,-6.531345441069748,16.67621918508736,30.666831219062104,45.63712691654054,60.586331800451624,67.70831840749038,68.64145900354029,70.94059181598253,74.66759410006405,74.80937203999497,70.28117489229813,62.63390600990292,50.562772204200435,36.48363248682222,25.920048324769994,15.863887071808135,-0.06632306612071504,-19.774873732029018,-37.89085510540634,-52.909295870727696,-65.99292102102717,-82.03607755043718,-105.76379519938413,-126.29774876144921,-119.86562112855967,-79.5945393591465,-28.327492892514933,7.048130751651325,23.429457166135535,35.140483561489695,47.72371829228607,56.555610805695565,59.73663913632126,60.36229569465302,61.51551539201317,62.10611036954829,61.41354327292212,58.88972957379444,49.932006205669076,34.71356191251616,21.132576997510736,10.896315871271366,-2.198668601819761,-20.272764747900155,-39.297635208276,-55.32233559882969,-70.36786974673933,-90.03180281256367,-110.33115942654169,-112.62947676896492,-82.51617148047599,-32.982647391682136,7.756481883127771,28.629142449341654,39.85597917020027,49.842548659584736,58.38417274501805,62.74994089186558,63.50113912745876,64.41337031563775,65.07926814861426,63.263640472418416,59.21755334612008,51.76607759551283,39.30212234160593,23.795744069913606,8.236228594261501,-6.767549330106751,-22.047634456488343,-39.296729432130356,-57.927770453579456,-76.64357713371318,-99.04924117718805,-123.33696781994959,-133.22554407308425,-112.87549756612218,-67.6094970867764,-21.01762312525584,9.487515769909226,27.0112516753982,42.75961833504917,58.6697348326675,68.70237801475793,70.91724604403508,70.00379450688169,71.23230163216606,74.15969735427572,73.22232566071594,66.1388287702691,56.29359775417836,45.61690617911694,31.59794836609101,13.451113850744091,-4.934645264062211,-21.68301651399355,-41.30809171999325,-63.83066632080226,-81.89538726080124,-99.72207471106566,-124.06966197832448,-139.1328286508644,-122.17361104812807,-75.85456955811891,-26.40644419545339,7.5340697146073525,29.566041572451986,48.8621715322865,65.32704404127735,74.2515266432328,76.1191008362659,76.01310176681926,76.4976726314962,71.0,123.0,86.0
63.88182691119868,61.042978183448575,59.85083270091023,61.51734842357621,63.201547269846245,60.88712799509994,53.6061367803114,43.9785131528317,33.14796234272658,20.170851172048334,5.784165486525095,-10.5370576682401,-29.106476720016925,-46.09221419178935,-59.26926976890235,-71.43906335974964,-87.45468929866274,-108.11803443675066,-118.94423476580099,-99.59149990975202,-53.303290231217964,-6.723010167849531,22.360400892550384,38.150699007110184,51.15042469083127,62.16262805852251,65.38584707804957,62.09937766398397,59.26471031291954,59.63332059920067,62.64651153323663,64.59256549796423,60.23000965778272,50.24419201224543,37.59264526896843,24.67343627540949,11.734837961241887,-3.4702771163228388,-21.29706153557178,-39.49673732991468,-55.878130856975126,-70.70140497842092,-88.52646078786825,-113.0320752798866,-133.54764239769344,-129.2400777039855,-94.84746137396822,-47.63193039761811,-8.365860202723884,16.869037808627958,34.987196686729625,51.97110494958227,66.87558380080443,74.92138174296545,76.38407770625355,76.5853472999225,78.61841691485309,79.38865116333143,75.5237208963433,66.905155512144,54.69330480411114,43.10648975907294,34.56527528123127,24.681970117365942,9.64446800454497,-8.011295436874882,-25.238297584521305,-43.14753975087177,-63.75997932410025,-84.16239000067856,-102.39338263982393,-123.26310119227777,-139.3189082471713,-127.91714331344804,-84.7716457101404,-33.997024948399975,1.819935902905979,21.10806234868817,34.66278762253836,50.32999371477902,63.63847695847733,68.24278374602083,68.96756231650943,72.09300051347962,75.24172304160159,73.88712566256828,68.40760456852239,59.64465172388278,46.406940706840025,32.98476438205308,23.33093542437259,11.953583913818385,-5.65178089075021,-25.316012294088104,-42.53523754269594,-56.7675653650911,-69.99638986789054,-88.16786874241693,-113.03495013439554,-128.10836058518203,-111.15400606134288,-64.47458947373624,-15.778968278394261,13.18744430599406,26.724086046505107,38.839268443713515,50.854549392232116,57.993546283376084,59.97453804216282,60.62527430699317,61.83480626657053,61.99830728542956,61.02517217895104,57.15493340028597,45.888088133051575,30.305808480381682,18.06382245598963,7.653705466418908,-7.017539316739659,-25.904692842465057,-44.297756858864595,-59.49370988872694,-75.4537204538947,-96.43495462949352,-113.83562958176778,-107.27035813050617,-68.9474715183156,-19.27546736124674,15.592155876072216,32.29557311302144,42.760361146343854,52.589177268358284,60.151788635948236,63.17368597159091,63.64433793097715,64.77334556594273,64.82698917559098,62.31427433823137,57.5296297435527,48.66735207675263,34.969758313454406,19.237367045808494,3.859357847832915,-11.084270001633497,-26.775065387397248,-44.658491604466974,-63.24762648385107,-82.5571505380123,-106.3548468893319,-128.60558227386522,-130.71396023675976,-101.48947424376668,-53.168728453145015,-10.317667488648164,15.349260206632124,31.403987173722104,47.565688852150956,62.41487666864286,70.02181433591565,70.6932650496591,70.00810496327028,72.11560935975754,74.52026513249726,71.72126597752026,63.395304237613445,53.35172301891752,42.04526775620745,26.665438647966027,7.960124139294728,-9.83109267914748,-26.827188936710794,-47.846331765497936,-69.66264255166308,-86.52240661178018,-106.29764803025772,-130.58655785034424,-138.04924237218813,-110.86774715899642,-60.64492332480601,-14.811330157097666,14.618910755682379,35.22621451611189,54.13439890629918,68.80795546712395,75.30893432685785,76.0930512995277,76.08591809797389,76.66921857833276,76.22799757979541,72.11638265519531,63.75714190664356,52.81062305585306,40.567966167011505,27.50615832547421,13.049236045114075,-4.683810249147051,-26.828986006529554,-48.69318817342002,-65.03050632382472,-79.51016680563193,-99.93857508738137,-123.0476261768406,-129.7758597904218,-106.53502530039107,-61.59860890896277,-17.02374665593615,12.799511419023439,31.266937863530845,45.52355260006442,55.18327920659596,58.81455249362563,58.416698495739396,56.59354731305102,54.966814724787774,54.574477512758804,54.40951588645703,48.8717523050128,36.43524836825122,24.254694087466618,15.169956480729944,2.7042453078602544,-17.200850017749527,-37.49111078746421,-51.24841935605519,-62.5254894716949,-78.61547201503785,-97.98882190641403,-103.97146409448877,-80.50253519042232,-36.100734888993614,5.2756073188849815,31.351820511162963,45.60308790401618,55.334264903692954,63.586862072761974,68.17144095983659,67.47618274044727,64.60037038656212,62.621243770325634,59.2733700918584,52.60285330265909,43.166621118447246,32.28622601852936,20.868680524752506,7.746962433366373,-8.528217045597394,-26.18048201903567,-42.409051783441164,-59.985008310552125,-82.22317316077432,71.0,123.0,86.0
32.127172012356084,20.85603306697849,4.613440490399892,-13.060781876732287,-30.211409325061815,-48.83920734033091,-69.90867910554594,-89.48942072081232,-108.03442149463747,-129.33110705860457,-139.68652342789767,-118.00089423623902,-69.55777893692965,-21.649518826274146,8.713703765298163,25.080252272489037,38.93715054904639,54.84415427089,65.86055178174011,68.44730498025136,69.56979947599825,73.25904774163253,75.3964723366162,72.616659299258,66.29198293273801,56.22636488629367,42.2315298897221,29.888968994161363,20.58542322688455,7.447673861907651,-11.402523071257699,-30.620847602491136,-46.922243946191905,-60.5063958082235,-74.4259711429959,-95.00591767655808,-119.54831829933126,-127.05464155998712,-99.76420981556825,-49.23760253242774,-5.082907077923083,17.967950758062315,30.021429687082374,42.56448619867931,53.539565300982126,58.96864530609081,60.1187337330456,60.967112391059516,62.04442609572711,61.80641761255153,60.43148225789915,54.73736619239687,41.43766406164391,26.26352417010488,15.180525667410722,4.001227986443758,-12.220605125641217,-31.482966581632883,-48.97628889485491,-63.71892379492809,-81.05331568414036,-102.64213725871326,-115.25240465400866,-99.0357785455654,-54.38846429138966,-6.991581146287494,21.7984389644508,35.51194870189105,45.658920740584385,55.149708365555156,61.50677860242951,63.36776424678962,63.89442875527622,65.03309842139883,64.34110813787883,61.20125458183402,55.49131220262996,45.13458705867662,30.474104418540588,14.72606838505472,-0.47537862983199475,-15.455274188005463,-31.715639588617687,-50.070013709721806,-68.5797910170746,-88.92266730993347,-113.63557111472846,-132.14153248209732,-125.40963518160802,-88.41388213705181,-39.28772131607964,-1.2013092229502529,20.400649841012616,35.899846205502925,52.29346784503733,65.50081913594322,70.72574451412427,70.36472246876704,70.2986932174663,73.04760589291196,74.40227703308591,69.72534199208384,60.53927506780186,50.33330992466983,38.101825469481476,21.424973357365353,2.5790107945204497,-14.610598459912378,-32.380261268594325,-54.48974986073415,-74.9408739557213,-91.43766083171323,-113.4493249395219,-135.67270506016632,-133.84354384898216,-97.51729273853081,-45.93272226464486,-4.7361936392965305,20.985404765168106,40.8245631302303,59.060141151036866,71.55237513085878,75.87183171411421,76.03230332921532,76.22600935346826,76.7641167127818,75.51115649991989,70.07468819514317,60.79030523296255,49.36486723206216,36.885309532531174,23.526584089663928,8.373831065326403,-10.703821689413573,-33.514801679307084,-54.00805211373922,-69.02787226542601,-84.59418400027441,-106.98753602586676,-127.61868994149057,-126.19843271625018,-94.90780434530805,-47.707677929223756,-6.758964798937548,18.880726658946696,35.705196560615484,48.91525338829391,56.81081567724579,58.985921513176606,57.94388465577049,56.0543513139921,54.69209216620482,54.682527110968806,53.6290739102673,45.75911631524863,32.55871291383722,21.478653175602872,12.278691055397308,-2.403156112138724,-23.500266979565062,-42.15261947549799,-54.38975291724541,-66.48155737075408,-84.34739381362614,-102.0769257251352,-100.39748772731586,-68.791686652551,-22.91775844465966,14.43371662250178,36.3328791175561,48.62875031594924,57.89662275312734,65.43790376080008,68.45800823328614,66.65455710901797,63.94813586032165,61.953327753529265,57.6821559947749,50.1165077612013,40.10050470900186,29.054833790870628,17.344719837744357,3.369178194089885,-13.655896739298298,-31.026330731277977,-47.09391252783561,-65.991781098152,-88.98425835973886,-110.34894860830724,-125.92216529248701,-128.2007166334141,-103.97025007200445,-55.85422884012212,-9.620996257711532,16.791070324510876,32.79073911482603,52.41951825219744,71.42560316554777,78.94605457585303,75.03922359020642,70.44308760817205,72.31959177655142,76.42943371462395,75.56185381430232,66.800832002941,53.82497304917794,41.44483495676713,29.225556326703078,15.15948689202343,-1.139871784465756,-19.346689916342765,-37.75015797955375,-55.42253224707922,-73.04062185457276,-92.71342009317281,-116.62231048069978,-136.51976460936177,-131.35731515111743,-94.03426075198028,-45.983993152058595,-10.939459967732914,10.529659153661047,30.47511632522537,51.21345886362953,63.72933160037676,64.82647648900348,62.28508415036295,63.250545913174776,67.00346875033792,68.21637524319905,64.36007466682477,57.072380524134026,47.99583751368138,37.34954348888014,23.376213799015353,5.438514521637393,-13.108148469426878,-30.203037152486424,-45.807242079203654,-60.467486877335716,-78.6189605657508,-102.76874261193088,-120.48040729021265,-109.16938474848146,-64.9717089172337,-15.347564767230939,14.742445616510674,29.884246147203594,43.550649952249906,54.77122379513727,71.0,123.0,86.0
-114.10938661299359,-88.22721154189368,-39.6363829318677,3.5330274116521427,26.70307624336084,38.50741508354581,48.53635054643868,57.44027210638776,62.44642409515434,63.45956220434355,64.2389849970042,65.11541313353587,63.645923798884105,59.89754588064308,53.04323768037118,41.21694353227902,25.906155891596256,10.271241897218927,-4.783765258508724,-19.932434769104635,-36.864219986541336,-55.460418405606916,-74.04134642461221,-95.76079099347315,-120.47205791971786,-133.46553147458744,-117.40379093321056,-74.28756871777941,-26.468640858624532,6.4198057405389575,24.9771374815309,40.56213607058192,56.75495884528766,67.86084355624702,70.9412216038986,70.08206332635653,70.88037677346216,73.8664717168141,73.72770074714286,67.33804741701266,57.638454480110404,47.15903772743108,33.745372975605825,15.98819576798472,-2.613025770829454,-19.413475674633858,-38.393737166932596,-60.968733175621956,-79.76227931789153,-96.93885340902206,-120.78300039747872,-138.64024231789227,-126.52787202932228,-82.84741235206022,-32.25822727508516,3.9409133206929905,26.91562503205155,46.35522475438667,63.4894701911769,73.55942844747791,76.09205212692378,76.0044365465814,76.40913797567566,76.71448452683785,74.42080523454376,67.70415819066004,57.64991611634609,45.837811879237215,33.13429655641911,19.409294492811565,3.359962861123371,-17.091228533709174,-39.98397015218071,-58.79286645365451,-73.06095134488697,-90.35984275081357,-113.99209987331687,-130.24820837361372,-119.96910995851093,-81.88817914641504,-34.444260576229254,2.1070987566231856,24.24917269738695,39.90174595341041,51.84407513189981,57.938954940612206,58.89217274117744,57.40871383633819,55.55883087371494,54.54997470779817,54.74350891517096,52.21736770556783,42.147168191189735,28.926415335104714,18.91887262794112,8.878998069689755,-8.132372607287987,-29.550540602845047,-46.196183307489605,-57.52448134136834,-70.99834183752,-90.18211268534795,-104.48775860973191,-94.11353335015721,-55.842010051579166,-10.579364065191077,22.215038159354723,40.515809793263124,51.43978176635901,60.34838536937305,66.8891889886578,68.30699155368754,65.77421587934943,63.400308332689136,61.06794009694478,55.808400498904746,47.41919553157854,36.95632511603923,25.78400369216329,13.628007702730732,-1.2937612645032415,-18.809362950692037,-35.706976037841734,-52.03786252293372,-72.40705592708674,-95.5759553898627,-115.59678265657479,-128.5382631068201,-124.33409716120667,-91.66073131326516,-41.022602259356,0.08652754909624405,21.634050257481782,37.90835911811651,58.54275121726778,75.04832098640634,78.6343062743442,73.24980647242863,70.33047891553426,73.63145827577205,76.93380682745256,73.79846106770206,63.20503723450616,50.1024356588132,38.0180518390429,25.38540813259613,10.685923061604367,-6.260087077377994,-24.724003961017814,-42.92149784314436,-60.46224954949051,-78.37005018596793,-99.22649669138903,-123.60776238856482,-138.47599487416704,-123.36663235200851,-79.91548259692613,-34.008141438819976,-3.8685727975084587,16.040423650775733,36.688200366309346,56.073843546543216,65.0052196887544,64.03148842737225,62.07899390468545,64.26342600992866,67.83195890896904,67.59228186668808,62.50837743411138,54.59583639153263,45.11788561027697,33.76439146003214,18.49581617169233,-0.01597857361492727,-18.204399063212513,-34.87336159467932,-50.03419201410414,-65.07987733399665,-85.17451850799907,-109.53848476630584,-121.00935431791487,-99.01017665795284,-49.63395575990209,-4.302222097162868,19.89531507384556,33.73764029436926,47.37144772429798,56.62261408741547,58.51800149719221,58.7378558576962,60.91093469653668,62.988200067800676,62.636380099864496,58.854324597603274,50.86564886280427,39.28629917249002,26.330201768846976,12.983218136936538,-1.1010282769606978,-17.927595752575037,-38.051298832804584,-56.54607158307796,-70.57469345114532,-86.50677894132768,-108.57507835239178,-122.74130269388188,-107.51959363280508,-64.30189697317539,-17.787321402747253,13.72211083670561,31.91898915995,46.51165857827332,58.45664381853185,63.59050544567787,63.995816024668265,65.12598613876028,67.3348232211395,69.46465970497339,70.20656417370395,64.91947479505365,54.09809543246119,43.767753592013094,33.75212374926824,19.77958889583639,2.0035705250259572,-15.683519619569335,-33.30851901980366,-52.6789047647946,-70.67540769976732,-86.2124293995443,-105.71215204479067,-128.47721504079274,-135.0109951638306,-108.17033224341162,-59.68083582205612,-15.397761093728322,13.733201582928709,32.619502658216575,48.746506753347354,61.77352540010157,65.8075564836169,63.032041615017455,62.62213469556796,67.99135016177392,72.9909131278804,70.38536278064377,60.47940510568802,48.39740086624289,38.219553243356586,28.198356704311585,71.0,123.0,86.0
76.59589816893829,76.44601488613739,72.93397998204586,65.05704565387236,54.36564206893478,42.24487161398135,29.303506586736855,15.109181109707476,-2.0484258075877637,-23.72987769468816,-46.059541368073,-63.135603567631016,-77.36936864608904,-96.79083198401649,-120.43005481243765,-130.52090686137402,-111.27949835868608,-68.06870970592689,-22.22604530100298,9.68499470090684,29.13194924508845,43.8255519940768,54.25391109697512,58.6265953035298,58.60058139040426,56.850201265442614,55.132382689672376,54.541582307709156,54.59767734658333,50.09181996165619,38.256510030392654,25.6435384681369,16.388232580242526,4.81938286441663,-14.289479111536224,-35.12388022392455,-49.7369944222497,-60.86439429244332,-76.09330576578806,-95.69661560416912,-104.7125869172484,-85.30682611319946,-42.334045389718575,0.5814224673527855,28.729262254512484,44.100955470463525,54.12524677466802,62.6226607849439,67.87867012471806,67.79987593800011,64.9450245955452,62.88031500816742,59.907722207271924,53.67139039564412,44.54251587741138,33.766742574313696,22.443824280668057,9.666696013283644,-6.201926995997811,-23.887197668488533,-40.293033769238995,-57.37202701499997,-79.09629967463829,-101.86604283149268,-120.30898450123922,-129.75794054982714,-117.92012625208568,-77.7044379254646,-27.132357396408388,7.965264015459098,26.086491302464083,43.54299821292014,64.31030287732196,77.49708406308709,77.5113247628761,71.73226635041019,70.81406057638846,74.93595946051066,76.86586224057908,71.36177946147068,59.41459713994208,46.50922210655048,34.53680640366462,21.363710952737534,6.021528415940817,-11.519336343229572,-30.064864510763037,-48.031156519475545,-65.52061778330557,-83.94466751646118,-106.13710107329486,-129.8804979598244,-137.7548758627059,-112.81761669300731,-65.65878584008362,-23.54013045747684,2.3183350514834413,21.71912386333504,42.85778467256383,59.974018392674395,65.39151951520849,63.189294923235174,62.2775365066902,65.40855414807355,68.30671140325427,66.5428946374428,60.42989791461176,51.995866710887135,42.10213934266449,29.830171585173215,13.318231062706854,-5.418143519112111,-23.168049021534358,-39.41626049995543,-54.21053943271561,-70.1491934894464,-92.21483323528167,-115.27679207842293,-118.54168983839182,-86.35609936814903,-34.757569268824014,4.7507331430332105,24.211584733846426,37.69755612131084,50.807193634536716,57.78050728775493,58.453409418441616,59.19292166206134,61.658798616322905,63.189514608365805,61.936861578665656,56.99417659491598,47.80005261924827,35.60089778721683,22.511108654709773,9.04232117603382,-5.567241306679678,-23.531505635818807,-43.83913260352165,-60.934582591158374,-74.57119425457307,-92.4708675459052,-114.5583717749572,-121.93268753465264,-97.02950629603184,-50.03027484531199,-6.867923930074767,19.886896534162943,36.23012200223263,50.45149926148269,60.71043963160435,63.91666314494314,64.11456485208137,65.74847021903147,67.95183292583953,69.99967747136272,69.46487845871076,62.09206876488524,50.8946718146403,41.04563595284018,30.239686184501462,14.868874527701117,-3.235752405896363,-20.646549321734454,-38.772800598198565,-58.216730308429824,-75.228209387169,-91.13633824683744,-112.5072209486695,-133.15502420937142,-130.77820773739307,-95.18591450513924,-45.56295347175709,-5.452782497026126,19.850792292320417,37.37003774913109,53.1032019437914,64.00494596220152,65.31711024071329,62.3247968666687,63.70266862087454,69.88601252466417,73.16320439598219,68.08215384033981,56.964916294757316,45.202201412489536,35.54976128943674,24.51532541439411,7.793181248111303,-11.439148588892131,-27.71242971228589,-41.87394459630937,-56.44555891900711,-72.62785457766059,-94.70362206308067,-119.47535373298925,-126.19006714144089,-96.91876514121408,-45.056136109372424,-0.6742781517772369,23.339271806212377,34.52156919062265,44.18549101138865,54.01947542700041,59.503745029059246,59.203326699234445,57.17781531906954,59.75319680695151,64.91885674076448,63.377179193226205,53.8288563448694,42.192073959739105,30.386618525832898,17.192895143337633,2.239365136303944,-15.727902953821173,-36.23384790573156,-53.81457522530128,-68.61715624361165,-89.90667180498389,-116.05234513695517,-124.54692296414464,-98.52022449951474,-50.45865711552314,-7.773031640581552,16.991442545907738,32.69137003799558,48.44744782736255,61.84193267496297,69.21292147887624,70.9428621553633,69.23917094200067,68.50769729890546,69.41165705694623,67.90292216591689,62.50857557178212,54.697607797160146,44.63946485572162,30.7603075437252,13.482824671578793,-5.189428642432533,-25.541202472486027,-46.9980716028413,-65.580369069467,-80.1882256918851,-96.98313129094036,-121.06834560392409,-141.82368731971508,-135.7263840136176,-96.675632510338,71.0,123.0,86.0
-85.87836392608088,-107.7710512718436,-124.34704870840633,-129.18040436751858,-108.93257955293753,-62.81460521661261,-14.73525699442399,14.28634989031428,30.597509434020115,49.57337311998195,69.39131155800538,78.75087625211566,75.87479177061557,70.71008195563834,71.76913591231047,76.03812739681565,76.13575854066092,68.3471881260154,55.57763956697024,43.02731665601656,30.937239252772347,17.159398035034453,1.1633586295628013,-16.867007815172872,-35.34190836684431,-53.09648045283491,-70.64190879464027,-89.85463826060939,-113.30463978857705,-134.8443522176705,-134.07163359049898,-100.2848725183271,-51.95749473844612,-14.59363449890288,7.991196940946662,27.656444848709327,48.7069500937374,62.79601437864377,65.11043428422478,62.50448180146646,62.86624582612535,66.5337615419523,68.35080618537478,65.12266346012619,58.16795754477719,49.28336415986492,38.90335695392322,25.50405774572915,7.948094380225504,-10.712032185485231,-28.009910978754494,-43.821664431035906,-58.4501807905053,-75.80058238098998,-99.46568268028038,-119.34345211199486,-112.86164242579677,-71.9553063155387,-21.089099149570586,11.954484652118417,28.123303727366824,41.716595905355454,53.67566419068699,58.354548833669305,58.443619651586,59.82133300738257,62.31715507787704,63.15318429647713,60.92929255286137,54.76558728049642,44.474088328033226,31.858563503374715,18.662665585466137,5.023856168189053,-10.335917227514155,-29.37580508702478,-49.31744972364155,-64.96187478524187,-78.97612718123827,-98.9391699499342,-119.31585639591268,-118.20668746346729,-84.57701557669574,-36.194096971047436,2.54527065093541,25.168250890171148,40.4575486120426,54.06418214013737,62.311960150842474,63.99051825119347,64.4050492234812,66.40243988008382,68.56906774334668,70.34623090196845,68.08672827495121,58.924161771418156,47.87449431283595,38.248952531577686,26.301465673391952,9.713351482840734,-8.36869897237006,-25.676206484985997,-44.39338027022415,-63.509101384463875,-79.6317451080443,-96.61268331057342,-119.38119612855003,-135.82567995741314,-123.53109836648726,-81.01155465347021,-32.38807614086555,3.175622438553196,25.32773710596291,42.046255034752164,57.07471336498209,65.34726114928702,64.44319322979868,62.04678219923249,65.2480358276082,71.51792776856416,72.57585635956525,65.25812793797134,53.412087691295916,42.23354183164017,32.77482179556897,20.293422337991583,2.1799569613876857,-16.534675045115367,-31.860812795614688,-46.01328690841816,-60.815345716246114,-78.23463201038393,-102.20292325679132,-124.44459073647059,-121.51884425579172,-82.88741513999358,-30.400961062585736,8.290253608205575,27.297276412201366,37.169163219583425,47.19687957003246,56.211742186358656,59.94267543020136,58.477038913591166,57.30062911769754,61.37387661896658,65.47642440761422,61.19043916047787,50.477096127671395,38.84991236086441,26.748797426522085,13.072783222703675,-2.560370605249302,-21.582633222434872,-41.83779016006103,-58.039228746902516,-73.74390704002643,-97.66741921337031,-121.50508338938427,-120.59800334819374,-85.69263894729819,-36.53529432813871,1.1111720269827021,21.847007082498106,37.168139371953615,52.812943565506124,64.61818962105113,70.23809291414918,70.62766092814556,68.76156059065866,68.75215274155242,69.38501966427577,66.69070744475835,60.44457325112632,52.080073786039065,41.07725558858692,26.00803081016246,8.201141973344171,-10.85763163309333,-31.75804000220339,-52.84734322589805,-70.05246219275479,-84.44310411602184,-103.25818365358666,-128.40320528515986,-143.69981063003644,-127.24112811246523,-82.06872638505672,-34.08980000956191,-1.4628272501250803,18.531559876551828,35.6481339237653,53.21600126663062,68.25478168338343,77.06841961636506,79.53517258987667,78.1874393939091,74.33381526560136,69.00810357145629,64.38399905699245,60.67186041879495,54.31492983704746,41.35952403624538,22.847331236165086,4.726621673183941,-12.270219617378432,-32.68807761692488,-54.0288120680572,-70.49870903434476,-85.37445607477392,-106.47477078358887,-125.21931483581821,-117.67995171307754,-77.31990653545999,-29.057898252517578,3.864877917992364,23.37292932562368,39.39336092861616,52.73483144197553,59.23900225830999,59.12024165655823,57.92650627458285,58.32210465589889,59.11720732635518,58.801326848042564,53.98292535400575,43.625206094332704,31.433806209877545,19.95790639540308,8.906488977636208,-2.277151503344412,-14.497042663556282,-30.42691989405562,-50.03037313667723,-70.66269455791878,-91.91327332716965,-109.52904469989156,-109.35698862313374,-80.44219954120936,-34.567134883354605,5.257549350572124,29.54044229806888,43.73370966113783,55.03912618188206,62.16395096130759,61.25590994329968,58.67749238550348,61.89014908136927,65.8092671661565,62.06800617283615,71.0,123.0,86.0
55.858556448284176,58.52162151738006,58.5974761562756,60.5573896321705,62.821175604138915,62.861783825022115,59.58970617825154,52.175251746758185,40.95504394890122,28.081336514009397,14.783531732852369,0.8747204300972279,-15.450886715798699,-35.32206842972512,-54.372466310515684,-68.80307196419895,-83.97543797372113,-105.58321533169008,-122.20136086708472,-111.53340073516324,-70.85365136755591,-23.306412977603088,10.500892328495036,29.870209905943906,44.62604859405086,57.202920603797075,63.30689138985943,63.984450519707835,64.86702978984594,67.04569459220167,69.1878766702867,70.35696931650608,66.05742256823119,55.61771232812637,45.03459372271565,35.24232847969655,21.93025301601075,4.4402422819977385,-13.392224195664888,-30.855594364339638,-50.074362398638556,-68.48756683097963,-84.08201218478584,-102.70985988435382,-125.82259814289242,-135.93475234236368,-113.5533787936705,-66.38633835104561,-20.446594312629767,10.634236400483076,30.380230075782922,46.6595848790095,60.46045631804577,65.8356146832054,63.45442200091486,62.308441879436025,67.09578838569048,72.66973487543903,71.23815334876973,62.04908999956269,49.942307412250884,39.457544166317064,29.7325610720774,15.533575061987232,-3.4707131342319073,-21.2926165743925,-35.92427816483776,-50.21263848595639,-65.36519418939397,-84.47783385569642,-109.69114023854735,-127.2260637549873,-113.6026776220793,-67.66621543450144,-17.07460279047305,15.499958797306464,30.50731865566636,39.91671888867113,50.13975687887495,57.92904370923254,59.90916406406728,57.769552006729604,57.945682586164786,63.030261893604695,65.23622772321698,58.44775761871615,47.09593461608586,35.47455252539484,22.96830223925074,8.806461640765448,-7.670042662597523,-27.57786607250187,-47.029899060635536,-62.16385611568152,-79.69057729849209,-105.56414862184972,-124.77032134746284,-113.58745241131373,-71.63425485405733,-23.73475849627438,8.453828077731343,26.31150984950558,41.7534778255488,56.82799392281239,66.8575171669617,70.81780743052963,70.10460472370076,68.48696072726848,69.0719578888293,69.04443025785575,65.17237970352647,58.2199604253636,49.253246096916136,37.14821262606288,21.027124030647386,2.8370313034662646,-16.697514595140976,-38.01815570015861,-58.33060026611529,-74.23837360845492,-89.09673062301799,-110.2015212286505,-134.98049951525013,-142.7248752108116,-116.18285691138904,-67.29871747443646,-22.864420401843066,5.142126230314574,23.461403311211203,40.73582422590869,58.01757285953595,71.53458508632752,78.33185118780031,79.439480146973,77.31315053127754,72.85463726376652,67.52216847279887,63.31077334847239,59.32410106388674,51.33710775159751,36.35335754323274,17.341815916649537,-0.07794682516863805,-17.741333433010876,-39.073030354867804,-59.38629034703789,-74.52463334645704,-90.75398927493127,-113.10487794340649,-126.68530935564907,-108.72727934100794,-62.75247591882708,-17.6090987845591,10.349281469480418,28.12691912302276,43.70600503373035,55.4482550504964,59.6850946581637,58.64490545454728,57.91256400015885,58.56354214611333,59.250941505322004,58.03308351033947,51.44013592681385,40.11356360583157,28.02046050157171,16.763074250250916,5.6957909923382015,-5.601699898152704,-18.617280955527026,-35.8452066841997,-55.94082999514081,-76.76164058237363,-97.82423716776192,-112.08137311945433,-103.91595863390178,-67.86783516800863,-21.640722705801213,13.809046902532046,34.27213625818054,47.15739977147052,57.79966191929662,62.6669480082888,60.19083391684062,58.98287344893466,63.43174766251915,65.64818198135572,59.6085126139313,49.610741696703265,39.70298296912512,27.987802275265985,13.42982932639994,-0.5240923220429938,-13.369072161453618,-29.777520780910585,-50.256859407269296,-68.15463187008197,-83.78638716682525,-105.44218335346592,-129.79363086864396,-134.66052354539787,-103.93182629899572,-51.97039280721998,-8.157482131720975,16.166633130773025,33.56560029996777,55.4965621575741,75.49893684738947,82.1461924402523,79.74335860295149,79.61909905874808,81.48378948194957,80.21291031032776,74.42356084872318,64.93453776035686,52.65432531423811,39.705517004567426,27.90094216955197,15.746121745560064,-0.9642916249306062,-22.580840285802694,-44.48496188680359,-63.01253662888897,-80.30215145261671,-101.32400664197358,-126.63022345112348,-141.20125488258913,-122.39045174937776,-74.0020740957017,-25.63253671474177,3.168306884658643,18.109871640157344,34.45436523999732,53.78790159203879,64.68279453304365,65.81591703888755,67.01379323839801,69.83999738213345,69.56253651001767,66.44533420450354,60.153911266668786,49.23789030653691,36.91405492422762,25.21634124881537,11.527804374283134,-5.611050432820707,-23.746074475995076,-41.21315485762368,-57.64415579148632,-75.13579357893902,71.0,123.0,86.0
26.277469661461517,10.315049121792086,-8.982584519738603,-25.74356582044622,-39.98640686427729,-54.46473834109524,-70.23296571069089,-91.35391155904544,-116.63406650587143,-127.23626084019656,-102.75511007927027,-52.11447343394391,-5.428466461203959,21.166690720634783,33.29782146700606,42.81092014213524,52.869759174075995,59.12849639422055,59.490513185836036,57.28036369081059,59.08914843356963,64.43441627424382,64.14953236058312,55.33785441082365,43.73393268053265,32.0183964566118,19.046761749622547,4.362121667790695,-13.11269656714069,-33.54383329192226,-51.76868085568607,-66.47859604255535,-86.5052521316051,-112.98508870598579,-125.31261776005206,-103.81766582999816,-57.10830065465041,-12.42892502153667,14.524544034719927,30.667248629218825,46.35760992584745,60.379610245601775,68.5827165906162,70.98764993980863,69.50431811595149,68.45011564191068,69.3405085301586,68.34661501094428,63.39874829484597,55.84506948516762,46.16581231338005,32.853953958266956,15.889066472978882,-2.627583040477955,-22.713830420994,-44.20585771405826,-63.3907652107193,-78.30117632896935,-94.3351089884109,-117.60200150518597,-140.122961421555,-138.65188533870028,-103.15144021721946,-53.02431667519355,-13.151440808313327,10.938158412720071,28.364025258795966,45.85644606954746,62.49867067616525,74.22023766822585,79.11052227598782,79.09148659989694,76.23706396475299,71.2953004498089,66.15092911484624,62.28416696854534,57.63411678620023,47.73080303565036,30.980819910885522,12.039206620377973,-4.887458088850391,-23.59471290839338,-45.37067615450377,-64.22112052997797,-78.63856772241961,-96.80454791473409,-119.08282748128988,-125.31127274328568,-97.22866973573576,-48.3695079201135,-7.782669690831114,15.998943638182388,32.77575562715037,47.709852958952716,57.48714797982415,59.66043989901822,58.24109049092691,58.02492516454956,58.806219129416114,59.24876425980321,56.7787125209049,48.47636261857531,36.5604432054053,24.69407775334381,13.576545989419099,2.473335023863884,-9.053281065681196,-23.126320600114447,-41.50788064305085,-61.885967065584985,-82.92867034094357,-103.24673515107963,-112.69361789588311,-95.9592292265098,-54.42470253953298,-9.751494461837353,21.032514476310258,38.38769148186029,50.47181647017586,60.06466125754543,62.460858815677234,59.26844601144557,59.8656241864021,64.76779868535371,64.70704356214749,56.83049601071198,46.73732072993942,36.64883158386961,23.967439259513036,9.182225947801676,-4.188410510940839,-17.542197266600734,-35.51719924326162,-55.940889599969545,-72.55154245641003,-89.1726525111782,-112.9220455512141,-134.35166613198834,-129.41816153521864,-89.77243109365816,-37.416871990340205,0.6172132725110899,21.12357099765087,39.383595887925374,62.114341590124795,78.97666296914839,81.77752801486702,79.23558264440979,80.21674835569102,81.57938471876838,78.97657568113935,72.02834545046483,61.60762073724392,48.867371809834346,36.158140265923535,24.604961018121976,11.529201513966063,-6.8572989190710585,-29.120678857524076,-50.209009264524475,-67.91234172034214,-85.80494660491463,-108.47314194553631,-133.07700189520602,-139.7668914724283,-110.33980481723815,-58.69030570365564,-15.123027395580353,8.188918170062697,22.218909002062762,40.17610199508325,58.221112476745674,65.61335362289478,65.81894148301826,67.90326379933825,70.16648159322305,68.87932192431192,65.07484420087322,57.413064897366375,45.63231855752838,33.525451516608996,21.61750867831967,6.864539005945988,-10.870595280273893,-28.884138609550497,-46.06052805963422,-62.37638697576881,-81.0853044548482,-104.32679271515502,-120.10310527204552,-109.6252024978432,-72.44981459270431,-29.368010639716935,1.5587934326544137,21.890499686050465,40.543339275346014,56.21546696424879,63.27758717954999,62.73313300528945,61.69819532846621,63.93711986590933,66.68482931144199,65.6138226827557,58.860241635265176,49.16182088564804,39.98339488391778,29.420257781230042,13.284161333852495,-5.540638748606009,-22.50865888392794,-38.6376876346956,-55.737316572237795,-74.1291545444508,-95.18710781073653,-114.91454337507137,-118.01184256479678,-93.139223809508,-50.29339954217753,-9.152150844435592,19.68307680857127,36.21603616205892,47.076907781870744,55.89040252919517,60.19439902246537,60.46671972698567,61.78527078427002,64.82006991409024,64.06134427321264,58.27170012141086,50.84297467596647,42.41672057189356,32.58296629185889,21.293251717502784,6.332827397077617,-11.643213732028046,-29.056574060118116,-45.2628296688321,-62.04222163662425,-79.62546926789241,-100.1484225224347,-123.32464586919582,-132.987022992382,-109.3410316791569,-59.520878305805645,-12.33736113109278,15.942186924364535,31.792248933706038,47.079775886736414,63.888080425219734,74.84162151813226,71.0,123.0,86.0
-88.86708533174392,-39.76236940473653,-4.8604311403016585,16.20860687321979,33.328814312705376,50.92523578003757,66.55404416021507,76.30383837956929,79.48091814937102,78.5212042970968,74.97252904236656,69.7211072632624,64.91221845732147,61.21242990037685,55.48643905594706,43.50278195532586,25.42131502538052,6.984112881129867,-9.872364942248684,-29.768883127390506,-51.391136575930304,-68.59478712360024,-83.1201344899963,-103.36691206756885,-123.72356561573689,-120.81378174524131,-83.87487497549556,-34.85491159026039,0.5025758824739393,21.12043963864326,37.335010660010965,51.273916483213476,58.8374974650844,59.32858516453909,57.98636161137878,58.21764698263498,59.02889818169339,59.0165763806733,54.988644360011484,45.20439535796485,33.03619305575571,21.440437253731215,10.382872230551559,-0.7692124262895896,-12.71418761745261,-28.036507438207796,-47.32113618791061,-67.87775372707237,-89.10059507058428,-107.82230062250164,-110.9913382107563,-85.76897311209312,-40.76703129553086,0.8431710795277637,27.086272596101562,42.10459826590936,53.6488058269658,61.673426935798204,61.71397910802354,58.73974609155534,61.19106002230635,65.62993879805244,63.04281652459292,53.904282677916314,43.905434568037805,33.34822870590598,19.741537760914795,5.096435764643885,-7.821009244828138,-22.15664233928472,-41.5074643240848,-61.213409008078436,-76.91455724694704,-95.28104388729729,-120.336191283621,-136.5912517248992,-121.03925042020006,-74.51890640246638,-24.24727255686475,7.787289418418402,25.969684299274256,45.712352602314176,68.22689916510117,81.1311749338717,80.97038304700254,79.12905070228715,80.84001554358511,81.31258011067902,77.3715172507534,69.34541845521578,58.07285682795126,45.091822441354026,32.73582210702189,21.19563012841683,6.8238908839566115,-13.098872942615207,-35.54313089328373,-55.60277343381049,-72.8240183640827,-91.74217123595888,-115.92480924898608,-138.04075994563905,-135.05205813674772,-96.31323456645298,-44.20414406487956,-6.474738791488266,12.419049736669722,26.797506033861783,45.96518334020878,61.63506661946349,65.8994394416454,66.08322869941964,68.81497473183201,70.14450488173321,68.02056855090447,63.374778573696226,54.28592186428053,42.031802819239395,30.184023809536257,17.75413328534142,1.9273153155144152,-16.132378724756308,-33.95383556982337,-50.80827080517654,-67.30066544504177,-87.52625054504732,-110.57495140679045,-120.30919241868308,-100.96012837979708,-59.51579389121935,-18.872882831862817,8.046085682028217,27.276274660977577,45.67909926771754,59.26067504434537,63.64455198240121,62.16369057414495,62.053624712733765,64.87144422089872,66.93838090494891,64.19686474646622,56.16902895075794,46.39672430651444,37.32505993416201,25.356775262593576,7.843535464217556,-10.688022680626649,-27.126686959716842,-43.46773300330548,-60.87257228051742,-79.90736243665059,-101.52569892807037,-118.31604122394232,-113.68942386136003,-81.69097729575205,-37.531798962395655,0.6215752166633168,25.493688915523638,39.62886445704953,49.88447937511254,57.7107932686516,60.48873920114808,60.54460211820149,62.686156848116326,65.20689157685257,62.76236359965206,56.18480810715726,48.56382213055071,39.684875052450614,29.551689900712557,17.41925512259683,1.2943559391428208,-16.85377312441226,-33.776862760520956,-50.018138458038095,-67.02010471849577,-85.0856715688543,-106.93311704854418,-128.59935546180185,-129.9446862248321,-96.47891151489277,-44.41401473338581,-2.1801696938101784,21.19215199972687,35.927935821254025,52.01191150609896,68.00531406623266,76.1978184888198,77.08098779940084,76.89670581768769,75.4604878679478,70.85357518058342,64.8037719928067,59.30768899093053,53.497495249871875,43.40753309963457,27.855944657865574,11.272940332333738,-3.8191855604806277,-19.134279471628183,-36.8594118964192,-56.31934212252478,-74.88934194931582,-94.60848562524193,-119.49389616441998,-138.32258078072303,-126.89987131621677,-82.93413259086431,-33.241594260886025,0.27419094423435003,18.91516204416856,33.49416652657735,46.979624021708126,55.28092198211088,57.699031056120404,57.385128452304606,57.332668689699545,59.96822577243293,63.23393780267238,60.89680903159674,51.25052508034748,37.98220667035394,25.485754987943036,15.485997915867829,4.976788925508122,-11.144850638224137,-31.045674426525174,-47.15019933337813,-61.405564791420865,-84.008296260434,-109.777384061567,-111.68917199867373,-75.75326336803745,-24.365567919872344,13.463260716568987,32.71885261483901,45.11298067737261,57.116421306471615,64.94851701234614,65.69392301183692,63.15602728550426,60.76314871131121,58.25303092040552,54.655965421279184,49.75995021078589,43.33267904938679,35.49746929172449,24.231617810583955,9.12054285807333,-5.332453943272165,71.0,123.0,86.0
60.79332174108758,50.95613331589637,41.05135899761688,29.749564209799587,15.420436115973406,1.2074288702193625,-11.563938348769705,-27.26327992913027,-47.531221199007696,-66.04991482651911,-81.51375488844045,-102.10163930880056,-127.08970483136927,-135.9900618147157,-109.86906123466056,-58.998167366374524,-12.808744722645795,13.721743397992947,31.06487040192109,52.38348729563812,73.46359085326067,82.06293586211211,80.09047694573792,79.39812076822818,81.33460218140624,80.6519256758051,75.42689477698086,66.38699768087771,54.386531980654176,41.38203551421801,29.414132563809083,17.545112997563127,1.6065346772869928,-19.563475659193017,-41.73285269363586,-60.7202108291024,-77.88368820417352,-98.18182904597269,-123.34882194627002,-140.82500707715468,-127.08058171452493,-81.14246410633733,-31.101982057799585,0.4647681719030865,16.312251981079758,31.92488305533003,51.4571828429179,63.959217124603285,65.85912964343693,66.65831819014119,69.5774551832253,69.80689755898567,66.98931942064463,61.27135948524632,50.87306342615963,38.50618745380126,26.80994228492059,13.570105528400095,-3.204335712727632,-21.356189711876407,-38.94376169803552,-55.48921587368362,-72.56178340752759,-94.33201589662782,-115.71796717145966,-117.90875087915089,-90.32856567859018,-46.730314423084465,-9.676456495178765,13.895645936016034,32.68968081619248,50.40626934375296,61.480140553092404,63.48636652783942,61.761292294257665,62.68700770744819,65.74589288027128,66.76364226535634,62.30859313854473,53.33603045109678,43.744833983175795,34.41860214155841,20.76446561066326,2.3347341300146778,-15.614867040432161,-31.75303434486926,-48.392030582649014,-66.12737948920363,-85.96107282143832,-107.54566403685388,-119.85363230271696,-106.91010565146262,-69.2202010359678,-25.35659328245302,9.225484104652578,30.37063150470904,42.76587996647263,52.52622558666961,59.06207682766894,60.532881431956966,60.851552145927236,63.653258278595125,65.11845128863492,61.10505722052572,54.04486545333244,46.16919002457735,36.85340211203145,26.371405393368452,13.175105832986212,-3.9236523652209025,-21.92787020100028,-38.434469786406446,-54.85573049771887,-72.05530048718708,-90.89705564914004,-113.84427839414136,-132.1507077495754,-123.7452907773308,-81.9750629853305,-30.289843528587454,6.262744345979935,25.734054624171208,40.261946015359634,56.9912173238501,71.39695575080692,76.89400108642556,76.99431813842364,76.75982530058988,74.43238603475385,69.13275326997672,63.12872221339802,57.79690322786551,51.20425412113978,39.3388478064948,22.95532209092062,6.788287225494935,-8.106939265058172,-23.95429150346813,-42.439877536274906,-61.81709160561786,-80.21534065407744,-101.32162512679962,-126.62422330883953,-138.94716467976616,-116.67201400455785,-67.79623524678432,-21.545744968470483,6.693411416586609,23.187852755911337,37.650476591048985,50.06306556098164,56.46841755937124,57.74425282351638,57.216493240275895,57.770720285009375,61.12000714458939,63.347274675420756,58.76266977045841,47.56777375622711,34.1466560909797,22.37278974177182,12.753179817416981,1.0225163892430817,-16.854270959724165,-36.29453875603767,-51.00188672760665,-66.79818924994568,-92.07607131571218,-114.05232909426636,-104.80590457324064,-60.936026503319674,-11.293023951226429,20.527296227690396,36.477323728853705,48.663126276158,60.06750399135338,65.81638702112336,65.0659080275944,62.41444634516992,60.10325977562939,57.346144643782196,53.38268418169184,48.056257591665215,41.240917342537145,32.72896378222965,20.10001794700858,4.70955406602804,-9.194230699250717,-23.73156552818746,-41.56535180731913,-60.91592537655573,-80.4557985263675,-100.38622181278643,-122.21464841195252,-138.1403516376224,-126.72300821288808,-83.10318081925087,-30.986519191725577,6.883523434484661,26.61240391228484,39.498077078562936,55.00496657762046,69.33252810448192,75.95865500303235,76.32076842987648,74.73574885743507,72.83654705602054,69.97464615040748,65.5357424143656,58.15917305089988,47.44905511736343,36.28619293596441,24.98349479748869,8.765218035762791,-12.961978987935279,-34.05756539101919,-50.603247853909565,-66.21635780169854,-87.89806254024079,-116.2374209755495,-136.49054220783066,-126.88891899697737,-85.61543943835676,-36.99337311707987,-1.6647712247865303,19.265874787444268,35.479759888883024,53.12222359758268,66.74450798690792,70.75846478773471,70.14416224770464,69.38000569652712,67.93123918144337,66.29366826738143,64.82079953744264,60.418347400353674,48.052396772852084,28.491902225625303,10.927299320419197,-2.598573673706761,-18.76488988614762,-36.9128393376994,-53.124490142630826,-71.2869979588764,-95.99564954195004,-119.8802455475689,-124.38532036839567,-97.0871097348149,-47.56289360996551,0.031832998743404096,71.0,123.0,86.0
-78.27877418217896,-101.22776833628147,-119.19830632851381,-112.83348430936887,-78.29487264729862,-34.61575629873961,-1.7314039325394757,19.401317365313325,38.090658814162296,54.54561611752725,62.8854961457845,63.00429770767896,61.64264610281236,63.516110992763764,66.44928667164875,66.09579617989364,60.02236724652815,50.46910768759008,41.17027109223903,31.111645931019638,15.723060156230996,-3.0945133119776123,-20.361385157803674,-36.44417402871145,-53.400700915816785,-71.55334890367304,-92.24624048828247,-112.84304718885895,-119.15586807816462,-97.91986923197997,-56.27840527498039,-14.03305710518138,16.647064520464674,34.50387732631024,45.74278421373668,54.90872766662785,59.937840662704396,60.480188183921506,61.43171109123169,64.51135743807792,64.51082526345104,59.20253364609254,51.865657643753124,43.63376612308475,33.94734183175222,22.963299720377155,8.567296378020233,-9.21116613434103,-26.84171743025832,-43.096477489839465,-59.76233114660245,-77.19650682376155,-97.13169512307479,-120.49184839447038,-133.36101713752728,-114.51463298962577,-66.64226240108287,-17.614671855874402,13.183964439008218,29.908851477625237,44.86795239512353,61.79809987322781,73.95101886505218,77.13161162011329,76.94690926392502,76.42961693487841,73.131799281225,67.36145978390623,61.53169460510082,56.20485604369463,48.429388567346244,34.85888718614719,18.10863347834828,2.4309944674436768,-12.476264562702056,-29.024123480892435,-48.09913340489505,-67.18588025481318,-85.76281410181343,-108.54015490790378,-132.72923499635752,-136.44038101151133,-104.06160372463248,-52.9986572782033,-11.517525770697677,12.117544206293367,27.37406360171027,41.663275644914904,52.598684146856755,57.21406964480857,57.646588672752785,57.13661569181448,58.48953494230428,62.19414284347175,62.841397965399544,56.04876536934897,43.70630202993954,30.46824500969589,19.477102501710693,9.849591773547413,-3.5184648464900934,-22.715332677854743,-41.04380472950233,-54.91022184014848,-73.14748827263537,-100.0093460052102,-115.52643330909562,-94.77282103045584,-45.69728731251061,0.09292384109803675,26.19939278271121,40.004739708278926,52.20682672009325,62.50802832224503,66.09613793939455,64.30567509552824,61.72193778584526,59.40421632996404,56.33103454359462,52.00141159153704,46.218509408512574,39.03818154749145,29.582736052120975,15.70523587732858,0.487982475345833,-13.110332980587561,-28.581110225601403,-47.09556551783738,-66.56154499815786,-86.10938181741267,-106.50827113770508,-128.25985156128993,-138.50881067286224,-116.73341989604769,-67.62344427471933,-18.02760643542028,14.132644793359667,30.403126725213536,43.64505470199381,59.65790895919713,72.12576023492794,76.49417050985939,75.92553167435449,74.22860625848256,72.14419148701634,68.8847679418401,63.7908347153567,55.31573209215028,44.13971858833599,33.1971431052226,21.000255793635407,2.8486068673006293,-19.420009764467135,-39.286911935479246,-54.89269471472958,-71.6101428539006,-95.73186077019662,-123.94882571328333,-137.47454989436127,-117.45227503157523,-71.05970897633296,-25.029561172415782,5.516379575776283,23.97517089808426,40.46383547816642,57.897271961507826,68.8320791452959,70.72385592335085,69.92668738733639,69.0567022538139,67.41441730026665,65.9155811621118,64.07635246876887,57.82921974672785,42.81209572981126,22.831593391239394,6.887959820266429,-6.809795197310643,-24.066024591251807,-41.779784098637194,-57.85455958773143,-77.77999020266158,-103.69235207643261,-124.03140029241254,-119.80026929628006,-84.09387676245021,-32.53363360426958,10.43163672282882,32.10986800385699,40.00491209002091,47.90882033189043,57.068884328927844,59.98902823962462,56.56129871932155,53.40599841132407,53.208264763517555,52.39721353777312,48.230543517599,42.08179067030095,33.59387127791298,19.71024988896037,1.4574295421263026,-16.8252199651333,-33.09817140737236,-48.57959093174935,-65.1009718036662,-83.74666345428106,-105.4247363755432,-121.97058519295214,-112.12991426544664,-68.53496377538657,-14.880354216802468,21.732975064720105,39.64506446535437,51.52606757466595,61.81084649065433,69.08090893721483,71.80573172042251,69.41771712750625,65.61616856578544,65.53060468704976,67.76685044333782,66.52627732543554,59.281562410621575,46.19672873382984,29.466263424844037,12.80466088167848,-3.088650122865885,-21.212252365630405,-42.1228929148223,-62.493300297593024,-80.41900056216639,-99.96007638035293,-124.4484330691627,-143.32211677412036,-135.35348709991882,-93.40872443067992,-37.80097049494062,4.529063389382788,27.802647557587647,44.88178809022664,63.75953383618851,78.67668468564722,83.06564663448434,80.73762964741542,78.95838430107061,78.10220670846105,75.43683140848076,69.35849487362357,59.22250876420204,71.0,123.0,86.0
75.66513455272086,77.12035289557838,76.92091277154451,75.8344903447912,71.6107799681917,65.59989703008712,60.00071582363157,54.42025967601721,45.116595112843164,30.101692129558668,13.393120251458736,-1.8522473166098288,-16.989266019752346,-34.338195911167254,-53.7438507575585,-72.46323095502017,-91.70076588738249,-116.04482390685918,-137.09138547945307,-130.64616811127226,-89.82040711840783,-39.16581144861194,-3.1073853779692144,16.868816711462735,31.561636299161513,45.3933439761655,54.562385822955484,57.60929322511482,57.47309308875297,57.219867954156044,59.45982768879735,63.001311297087504,61.6653357043078,52.85348886885444,39.783071460988836,27.002716040535987,16.730634042725946,6.617740924027331,-8.626749376603584,-28.482130249335544,-45.31036161030973,-59.20648907030966,-80.41366613962211,-107.05568710028787,-113.70433085115123,-82.19249505888683,-30.86961019741966,9.656391739895932,30.83166953369294,43.49193582955402,55.625237098807695,64.33034225469088,65.90317160565968,63.513744815843175,61.06292594522584,58.63670124601228,55.20846108115413,50.49822977874918,44.26586140697795,36.668875472043254,26.01554437680914,11.195380828957855,-3.531421805144133,-17.214718486666847,-33.70906525184542,-52.689636253508056,-72.20948603235024,-91.81450868816505,-112.84569862661844,-133.43727766556216,-135.9937076584733,-104.29028010555881,-52.19193386790106,-6.658811024061225,19.968286565375205,34.00168039887024,48.12250711749946,63.99268122623885,74.17819786830798,76.62070114202817,75.45968326978104,73.7001043729832,71.34683263455537,67.65527217786587,61.74547819176918,52.224072778046825,40.88491721501269,30.03886349586841,16.460631216399456,-3.4481809087141455,-25.639804137454426,-44.10548127277939,-59.26720743342914,-77.68336265091793,-104.02843080168236,-130.45121533332102,-135.45578734281133,-105.656718420393,-56.645949663312436,-14.488601387123442,11.64426942469678,28.57241585587046,45.618795914526984,62.08326189694079,70.08525583793185,70.51122310851804,69.72576215078713,68.64722532842211,66.9223772585622,65.53492705265919,62.97403843723061,54.446639389723835,37.09994945943253,17.61212828428908,3.0679238258851034,-11.407627039271395,-29.39101887308475,-46.441546948955704,-62.92829245124158,-84.87818317178349,-110.98371779112512,-126.04826965329018,-112.41552042883865,-69.71802085957344,-18.30644991437258,18.90220758662884,35.103441051576354,41.919652004937646,50.74573584168654,58.790077260269435,59.37703555611928,55.36584849002156,53.12119574352917,53.248252968892295,51.524731241217246,46.58048586095938,40.01113039599148,30.20848820635679,14.700823711219327,-3.9867787679991036,-21.724591298097696,-37.555719853321676,-53.19574720832944,-70.20667768088963,-89.75500894159917,-111.5413825802065,-122.75048375256918,-102.4460701477929,-52.568594145535336,-1.9247247697586558,28.274998861451223,43.2702054823744,54.71579785935961,64.2775607431119,70.41550045216084,71.5678267897565,68.19674878941326,65.0997035928147,66.20093740529917,67.96076678486845,65.07219749400434,56.050443454345846,41.577837352911494,24.508566404308418,8.245240790073035,-7.9794350993146725,-27.068911663880627,-48.23782940077837,-67.85717611362077,-85.61427303023663,-106.64989416788355,-131.37989486562498,-144.59922496539377,-126.28918838168968,-77.38009820122929,-23.419607345659667,12.802262115748384,32.74290867236481,50.204586345999026,68.90421491783039,81.07026991057637,82.69049921899278,80.00608589481101,78.74886605558422,77.60638109771763,74.08373010359041,66.83739213716878,55.60391340359973,41.03838556778176,24.05263735014922,5.36853229401815,-15.400852781825243,-36.296592743116115,-54.12904049513697,-69.4924678065764,-87.24292384944037,-111.89415224376967,-135.96652398856963,-137.0007780904466,-101.06817919908076,-46.221126695011016,-3.813891042524817,19.24173951769426,35.62458735870615,50.10433885468715,59.425260949645,64.25922186913418,66.79203371859592,67.67779901408163,67.21050952800184,64.38353815850932,60.15279695899325,54.837627247178496,44.19367522754651,27.444457482036295,10.352217720262491,-5.0674737559167085,-22.693586043113385,-42.79580713595228,-61.56996822385312,-81.0991857932851,-104.42170332295866,-116.17494315180868,-91.98414140172773,-38.71064614866919,8.455577286860398,31.56586655418534,41.265377035996934,49.695493347856726,55.59867569484984,54.58885064373419,49.23753043061879,47.17845549020907,50.04304947780542,50.96720371009832,46.35458009243429,38.961765525964246,29.543170092998817,15.970037545351659,-1.5700823686824954,-20.036088049435566,-36.88967729705604,-51.19492783727791,-65.39955430562709,-86.36800420888207,-113.22942075495068,-126.2822606123687,-105.90652677507684,-58.828676331535554,-11.465902117307825,71.0,123.0,86.0
-7.415774990163748,-21.60161859491712,-39.050478436498544,-58.31604807097742,-77.85406468196673,-97.63943631241558,-119.28244640463572,-137.12345470390542,-130.36264373675775,-90.05838472276528,-37.42882426792503,3.00245977398021,24.700770299809513,37.702000722911556,52.818181117667265,67.79911567729461,75.53840402454414,76.46093125457547,74.96649823252177,73.12518349686215,70.43501085266311,66.25336077555694,59.367674613015936,48.97381756900356,37.71906706947886,26.66039857116985,11.325513423978038,-9.949015663133268,-31.498642120930572,-48.60157423635482,-63.922916475637,-84.50447318106842,-112.44381645004854,-135.11930315562546,-130.29820619857185,-92.1824009839849,-42.94814744700735,-5.393654834156174,16.987449603470225,33.25622920711882,50.79261426837857,65.47834239667962,70.66285642628407,70.25575249580437,69.50212503315345,68.167009584002,66.47991820839046,65.08092175957498,61.36814526232041,50.24788622189074,31.19556439470078,12.920928757514115,-0.7661437118815518,-16.37631623638674,-34.58823946555744,-51.007444268014446,-68.50997356541914,-92.43119044406272,-117.378093194306,-125.54251931666596,-102.44882505493423,-54.60054284637283,-5.380974503302517,25.477154459236168,37.320516816178376,44.1196972126355,53.54619756407873,59.80125743325354,58.361844167531466,54.36201656086642,53.07526014511267,53.10535070412557,50.35624912561157,44.82639248676757,37.6814259271771,26.302126283748656,9.415391902864101,-9.325438262252646,-26.445744667896285,-42.00076268873093,-57.93232756125539,-75.51658505929305,-96.0433062582447,-116.86561161484819,-120.72032171351418,-90.07893083855625,-36.604413504672976,9.10863048215767,33.51589999086057,46.69374896599826,57.75340122028551,66.46252469310839,71.32082664521472,70.91816450641622,66.99823210590458,64.99952895834019,66.93565155278202,67.73168942262221,63.09776378827855,52.348743361289,36.73290514012136,19.653912800592586,3.7062008340922175,-13.140410575908527,-33.12235828809657,-54.199844682881,-73.01680175756074,-91.11067498984396,-113.77056294159073,-137.39941455552633,-143.08734675295273,-114.47943817193836,-60.953098316099144,-10.712399157106677,19.629277584595297,37.5644269670742,55.72113532002426,73.46941036254077,82.49720016771732,81.96627161499516,79.45384705904623,78.54765860267544,76.90452736003836,72.41320532180401,63.97602935582074,51.706818990178924,36.32745498274834,18.8376423456382,-0.42546622382410787,-21.6004986827549,-41.829569944753736,-58.67397432248946,-74.09228873020488,-93.64570260947413,-119.72025481891062,-139.70589023139829,-130.27035555747815,-85.63953324222551,-31.742615561925742,4.366761933037661,24.159281099558285,40.13842695487655,53.40488685300999,61.149922364154015,65.19229198010522,67.18076573903959,67.71899485306832,66.65434720477298,63.208216354828956,58.85764179111429,52.50652700878434,39.78509741647085,22.289255823957657,5.855475803439446,-9.777689802752068,-28.422187175112278,-48.437594488331165,-66.84936258986896,-87.65734528680747,-110.24540223371076,-113.44695750207585,-78.17580292844826,-23.009925251907443,17.5027681528116,34.97715899549014,43.66932537690563,51.921339826933504,56.07219779005361,53.165544069726806,48.02375620431268,47.717452621732306,50.83632873168118,50.13508059157673,44.37205382219736,36.5399165750627,26.112508305818753,11.204028854450296,-6.9553538142434626,-25.143233450285795,-41.2726430562456,-55.0560548320279,-70.47634691637101,-94.07442254233133,-119.57910045095937,-124.13948894449149,-94.00596769679044,-44.03489095052346,-0.6233560961171842,26.41460523936345,44.15963324045972,59.51724052878164,70.41807080014293,72.64093177787169,70.48262286577082,71.42933924809408,73.91576263114685,71.97611452426474,65.9730862801682,59.02423136172181,51.21705507009554,38.01053429349023,16.201112976830494,-7.743508907993972,-25.606680657253932,-38.16686041112797,-53.15501425670598,-74.42795693781879,-100.36622183527989,-126.70653500880536,-138.77940117311394,-119.10777887839232,-73.78429295424792,-28.258905072991443,2.4612090861972487,21.57019602415068,37.37657327916464,52.73372742683639,64.10399281904212,68.02180695475468,66.9191304482602,65.2699996025384,62.99283515269296,57.77943739147427,50.83553933453051,43.92637504035126,35.23791678331552,21.757110261744696,4.813165590901824,-13.452220382759371,-32.357958448101776,-49.827272169502486,-65.75109011689723,-84.17706319883816,-105.93460242743501,-116.79210410564482,-96.6994177865709,-49.473953516268395,-3.5846318784413853,22.332604009712433,35.26414580034547,48.18014471349746,60.50662695742896,65.30000471491164,63.44267196730279,60.69110764618821,60.39982854817625,59.29651396529502,53.359456340590405,44.655371051188034,35.67969971399475,71.0,123.0,86.0
5.872280115242123,30.350432886071033,39.17373261258269,46.64966898250562,56.06591796078526,60.084378562313084,57.141060948936996,53.636532131252835,53.160791234573715,52.69229150622739,48.94483475529247,42.97603667758736,34.98625718326326,21.894304271571595,3.980059004051453,-14.501800549525253,-31.023097508670165,-46.4860165527142,-62.80451679567,-81.08166435720328,-102.47823984715662,-120.80035935340177,-115.57344337914667,-75.65865170359379,-21.429795454055512,18.17508538737286,37.850711327732334,50.01958680034333,60.58550552903474,68.33469730761229,71.76178174337201,69.94374029013545,65.98312566225606,65.28988266890032,67.56027057123325,67.02291699577853,60.603903554891865,48.22358572863885,31.76705009132003,14.936182945356824,-0.9087713418455075,-18.598218500025602,-39.27907615498794,-59.935617396289665,-78.0781703918264,-97.04937851510829,-121.09753488830617,-141.9127704866061,-138.51482815117365,-100.4443700843948,-44.89332912376586,0.14389876069513866,25.390808055504174,42.516393182613555,61.261106911929474,77.2443654551769,83.05438516200385,81.11882543700803,79.08189900138898,78.2726706749299,75.96170732376498,70.40304365818652,60.792877027108595,47.54672561956639,31.443525544650353,13.48627857877924,-6.410545807160105,-27.71565404764787,-47.04809891303805,-63.07321080549446,-79.04853806381959,-100.70264477156284,-127.13580278359126,-140.86580555382682,-120.34700698095256,-69.42919772502871,-18.990508739713036,11.114436314915837,28.870204673733582,44.44616919501401,56.19741603393569,62.57549442255902,65.9604325109428,67.45120251989627,67.63805778374191,65.87229631723628,61.978070219884984,57.43186885761308,49.59070227362785,34.93939336157784,17.2788064461393,1.4556670157089902,-14.790237008657353,-34.28114757566151,-53.87740726329353,-72.34753771669446,-94.53903443261333,-114.46190883718134,-107.19301278205855,-62.58574003839534,-8.753699807999151,24.456893172130957,37.72286625435794,46.131115938426525,53.79167965381806,55.89547905647694,51.53390722264697,47.282805429826404,48.5929528700794,51.252579548002416,48.84820388970109,42.25275520515019,33.90971381609075,22.283093920008387,6.1502553716183845,-12.330055197793703,-30.07119327244382,-45.43129348688849,-59.01796183587899,-76.32846528735807,-102.08033755325422,-124.11690403389795,-118.87708836025156,-80.36330976978057,-29.92846901376883,8.729088127809481,32.05946920184883,48.75620528906537,63.40012010142233,71.95122789393203,72.070621830045,70.28100384526837,72.30705281980791,73.93354120862301,70.5000024560083,63.97797380557913,56.97311978726266,48.23094829351833,32.49436018491177,9.03635304277568,-13.697653456892475,-29.49092526484838,-41.916906125547015,-58.69091048460093,-81.53422932280063,-108.32796851801773,-132.60186413651422,-136.70637191283245,-107.61637914240207,-59.59791132326051,-17.73556014372256,8.768980597025694,26.20874824350144,41.924858320242535,56.66316929826947,66.01160140500382,67.98671663861161,66.38913665241726,64.80853936702155,61.8094058006223,55.82981903212592,48.83778897053483,41.76666689416231,31.87695362245978,17.067952516092504,-0.3463471768947201,-18.92126551383191,-37.63819227936092,-54.47091029437645,-70.60000518061345,-90.41123326632638,-111.21145200861166,-114.66323579824784,-84.80632613991348,-34.761844341739405,6.053667794276651,26.69479206597191,38.716555862417884,52.16528397363739,62.80760847429569,65.21106509735282,62.490105424160504,60.37469229179885,60.427197778973806,58.09783166180283,50.939002586752956,42.11765795609356,32.75992354029814,20.31983024277268,5.143976253214877,-12.784379929555996,-33.684933119106375,-52.82895881259049,-69.409443391824,-90.13149739047226,-112.27187514117293,-114.45654356362508,-83.07928033989288,-35.65723167841548,1.315892485477034,22.218002686775062,36.947446915647575,49.93732059429829,59.11647385469061,63.80079511089874,63.305590529860936,59.173674499988394,56.78603711344216,58.64018303005949,59.44538482354223,53.2724328249181,40.65560814835606,24.817837193799026,8.20618659456238,-9.104885884041487,-28.005445630243386,-46.424883933455895,-62.10563379627702,-78.31416872120815,-98.44659240839741,-121.07213319167107,-131.53283033088206,-109.63628312989397,-62.877707358123054,-18.64672911668671,11.784269349872556,34.426668905512315,53.08668361697727,67.18117245817456,74.72925961612498,73.58131700108962,69.9605537510401,71.1623535469894,72.48831159986854,66.47986798009943,55.31212131987982,44.27076328913479,33.064378324498996,19.917065688499786,5.527255825219601,-10.635922838776708,-29.422804151235287,-48.80725142665917,-68.63597151296148,-92.54428333526292,-118.48354718467476,-131.83298262861618,-115.53240094721154,-72.02559327068344,-24.672774603019874,71.0,123.0,86.0
57.307708247967625,43.14345087403046,26.414640179370096,7.972855460055563,-12.544024968540318,-33.64650844591375,-51.95858738582533,-67.446070569666,-84.51590139155081,-108.28826291829961,-133.537934103774,-138.978054146852,-107.66338030859431,-53.35569827591108,-8.164706607510988,16.836795720628825,33.50633980308188,48.417830385927545,58.5065529744283,63.77169103909065,66.56562708022503,67.62639887223973,67.39165460798182,64.88990347555847,60.73212793859275,55.744594739657074,46.0400296692966,29.83366979260707,12.486177138108454,-2.97617662272257,-20.130272350781798,-40.134074669090104,-59.15823161478099,-78.22984750901037,-101.40456347986252,-116.30916385926281,-97.49871023635632,-46.22843340723431,3.5323622577216796,29.647449490593054,40.16753683726372,48.59350443621162,55.16414367689454,55.11865567068479,49.9169173469393,47.08710166696445,49.59853945691368,51.17871606522533,47.20379192711518,40.02683040218101,30.998313834126645,18.050896552966947,0.8950102196212619,-17.631018440471898,-34.79028855815479,-49.40483561887091,-63.27639096917139,-83.01907347762295,-109.87599201118036,-126.24442912692892,-110.6244235603046,-65.71365726607672,-16.970684394364373,16.721120072087956,37.18702119744081,53.25401888045379,66.7590923643115,72.70503574064547,71.34406345340156,70.48796709654121,73.14780800642156,73.47037356421669,68.7687159592256,61.9669410792391,54.81396679361163,44.62986970028771,26.253107924740604,1.9551489198841339,-18.999924496373975,-33.05800446396378,-46.08800752207961,-64.75268314650238,-88.98455901558025,-116.17708229028655,-136.80111779376927,-131.6346582206653,-94.47015146049716,-46.05784233947003,-8.60614204584749,14.324603049676028,30.751398360717815,46.43234529735523,60.12213120299035,67.25614077140622,67.65616831653178,65.90471228299445,64.22774697249348,60.343658414968445,53.805789956020064,46.86377341648053,39.370188666409256,28.05994984412363,12.180121237433392,-5.600795793329705,-24.417006816224927,-42.7364132009943,-59.02427504973203,-75.79830620063849,-96.8570864714269,-115.04211128421383,-109.51996513487327,-71.09883738354398,-20.97604779968292,13.836179092009235,30.36001754552907,42.409869228354765,55.91662114288012,64.34714054597858,64.68278540692096,61.61438907211654,60.292821596684405,60.236391192703536,56.445814773782374,48.400191109374546,39.57266516404055,29.545314947614497,16.145926370137104,0.3298457611315059,-18.653719675086656,-39.62301603431132,-57.645379484341944,-74.71680933918095,-97.06592402521375,-116.05171980490955,-108.6337237956732,-69.67112953346371,-23.152198655043883,8.654665094838656,26.691496780738657,40.95399298275577,53.040092271369936,60.95443460707427,64.20588020170665,62.29187890892479,58.05765880333442,56.9882801924173,59.33395967875043,58.475311061378854,50.14733533469519,36.27310685269399,20.04261013013259,3.333052821227504,-14.417396858851024,-33.54871473044253,-51.19223732023303,-66.5158022766808,-83.67158697822987,-105.0222402335712,-126.42401361694571,-128.91652952524126,-97.4932347467716,-48.836702727465045,-8.569408028110045,18.814236030139316,40.229586249879326,57.67034048337742,70.19159015849533,75.22239691339121,72.30939301894865,69.78421114965751,71.9742965093535,71.60910993366659,63.48430182497173,52.0118298499619,41.17067223121364,29.461917353511872,15.858290579819954,1.1165138071958052,-15.835105994871588,-35.07394692305639,-54.34665295814131,-75.00817171107886,-100.23933895957381,-124.53035540328736,-130.5855133639158,-104.95951210007051,-57.55205718069763,-13.60554042800855,12.652567603627956,28.33526975113623,43.80736155831591,57.16163234616935,62.77748049776816,62.889120261985155,63.25083659465552,65.36259057073592,67.21632326144697,63.800053010105145,51.13421515646311,34.53095818133553,21.772600611372617,10.616072779329729,-4.224204611982181,-21.58190929038213,-38.00378596956535,-52.803072695409234,-67.9392445456994,-86.86215102538046,-105.19302860581737,-102.87925288343753,-67.59331112414424,-18.808182790566175,14.809442632772484,29.391882324701857,39.7483890061844,52.219251596762156,59.950884017469,60.38312336279968,60.15258739803881,60.76849716433514,57.760303941564494,52.42308150555463,46.95195756217486,38.721221737008285,27.515092343619354,16.035630729175914,2.8296734789592497,-16.10225439819687,-39.04768857750536,-57.98596653167288,-70.70004482988801,-86.50039488681959,-110.68855805170865,-128.66436313702502,-116.2470189873571,-71.46248901173934,-21.6537746268704,10.79154820965033,27.55840120261061,41.85736758218109,58.01405153620135,67.2232090518551,66.44494391553381,64.83128594356904,67.38864059243609,70.13842311932116,69.01228464127524,64.85272776175005,58.569394094906066,47.8632522236318,71.0,123.0,86.0
-5.433803654101165,23.570655803334514,42.0023473428497,57.59849832971762,69.44038290631306,72.78434538434009,70.69756953393272,71.06856136515879,73.75692981927534,72.54281727596279,66.8771786065663,59.95504060320105,52.43153758434714,40.28451405673466,19.456784281543676,-4.7962916926734875,-23.656707555518874,-36.53173332520272,-50.79295047361168,-71.27889970958479,-96.72498367017306,-123.57157062543783,-138.7604047505223,-123.66614247787334,-80.39079610357967,-33.57932333210515,-0.767983848417458,19.363320007806344,35.28199132008314,50.801298548893946,62.996952456192886,67.89949662531939,67.16619460307975,65.4671610268553,63.44216026878192,58.63326833833345,51.76807298132039,44.870920153602086,36.635807485343086,23.827076775521157,7.161015729128729,-10.95360859253648,-29.874247277861286,-47.633964398671175,-63.59835373245049,-81.43023250765565,-103.18345312789909,-116.81705976444887,-101.38448961757172,-56.37263875180656,-8.665206183311096,19.969173578100534,33.72407764057742,46.33007032936665,59.201859232830884,65.15231039791728,63.87019994446021,60.925728038200596,60.35716770380205,59.692456659011654,54.40423334616012,45.83329639262035,36.94537770825375,26.009224583324336,11.798392675687863,-4.762286928042525,-24.733253976380123,-45.25336428075245,-62.334782878619805,-80.57831297656509,-103.8532058214753,-117.48850556754725,-99.94176027558977,-55.65794816570136,-12.063521502019988,14.784957094320536,30.932406628380292,44.7971406568052,55.77595573976731,62.412013394543045,64.15412345630493,61.05783012114458,57.24594766939226,57.53346068553178,59.738341231005094,56.82999400193787,46.55928490282294,31.700239955583818,15.247319128777496,-1.625569518796738,-19.876552230703783,-38.954722516730804,-55.71712873126695,-71.1037177089576,-89.4024649820977,-111.73013795446124,-130.19301987045665,-123.19808776806873,-83.8510841847521,-35.68054539936139,0.358033380406851,25.402344280466128,45.71147875885224,61.85552738424923,72.57524617014252,74.96469772754352,71.10539052076255,70.10108818725301,72.55125778469925,69.99862976452012,60.22123731534372,48.81117281898748,37.98929140634352,25.68190441298465,11.726755628689824,-3.4865193651448054,-21.252362576256,-40.6942494782487,-59.98089527306857,-81.82297645023134,-107.95120504698623,-129.0389634564354,-126.51108981130064,-92.45360108203123,-43.45217739983375,-4.184089403071249,17.64692968506909,32.6749319309872,48.206054018037264,59.660148579984224,63.082390349861605,62.80953400640808,63.72003197591549,66.08544801003447,67.05129687465751,61.06203039641624,46.288271592454954,30.33942005804627,18.693159197437353,6.784935851672182,-9.161508691128377,-26.513955105295082,-42.403823907493646,-56.99257001467791,-72.91954701998131,-92.87106621100227,-107.67199409959184,-95.81590319130417,-53.40026377730988,-6.767422867032281,20.428049181513888,32.19828414112136,43.31104812960056,55.285246173246186,60.61313438745524,60.09791982302454,60.45322789112626,60.36306078079212,56.26193664068135,50.92286112251621,44.974218601156316,35.66366092746293,24.168322579710384,12.602879532470954,-1.9636769616627634,-22.62032556924166,-45.268626099047765,-62.045612169579776,-74.4349903171197,-92.86030537168256,-117.6448664353279,-128.98130511236334,-105.76210750688945,-56.179862310498585,-10.14269651640656,16.69383834793034,31.43789395916857,46.58269876769862,61.82269273127557,67.73648566567094,65.63101328957528,65.2085875863586,68.42448631692255,70.25666079835852,68.01514552600847,63.32298319427402,56.02746225297827,43.84168475522244,28.400106593758185,12.775650315047182,-2.894365222657451,-18.876346708100176,-34.49581986634136,-49.4395799500265,-65.61409283805934,-87.70198220443595,-115.75177347266366,-136.98316446169153,-133.35767237892836,-99.99091774349567,-53.16028922906417,-12.63337524895665,15.189553164144048,34.436670127162145,49.57027672910115,61.85854332855858,70.86729903023206,76.0752343563113,77.20409014561619,74.95951914522622,70.88569810144408,67.42449406705829,63.90762316794904,55.907196142156714,41.961147570156754,25.334344624679517,7.764004312632591,-9.611828788549944,-26.124095829248116,-42.38477825909162,-58.279585249509104,-75.34683841713006,-97.81196597857891,-121.83598100265084,-126.7167645318127,-94.96972899807771,-42.05900265822805,0.1831094811872453,21.543806170349313,34.28415936709508,46.2504161666669,52.87825168081687,53.391472924417,54.453220538239705,58.05663537230047,60.19552861138971,59.957254676507056,57.86927900713004,51.55574128243482,40.02421538503318,24.78359617554206,8.994862667378653,-4.71369382893201,-20.207073146860406,-40.943041685629325,-60.05420360801081,-73.71307714252313,-91.35097390628665,-114.7160927872506,-122.30059608870738,71.0,123.0,86.0
34.139177227565206,22.174180937706783,7.286556803788861,-10.177035714163505,-30.87736255792757,-50.51874464132041,-67.11281512992026,-87.00992564838114,-109.91005521518149,-116.11244414078465,-88.83550720530948,-41.80512597450044,-2.5471074620010663,20.0189458506287,35.06645494206214,48.38788775483628,58.14585934136743,63.46212113374881,63.664461194715315,59.75352072656522,56.831883031249944,58.27962509278005,59.67251949439615,54.53348836979263,42.59121956249377,27.006437986912747,10.434840812312025,-6.709811578594525,-25.432905915307188,-44.13152859959642,-60.09817476636422,-75.96406475460977,-95.51071785568831,-118.2536501593302,-131.72984981431205,-114.5211599106547,-69.51131294116816,-23.721782794078205,8.350247370823059,31.64922117117668,50.844383467405585,65.61028509795369,74.23137129094064,74.11075239349243,70.21647595407134,70.78267983658125,72.65278556943642,67.7196530855797,56.85916950274966,45.693984426634984,34.66053683277041,21.760864539664933,7.509649872540647,-8.322104790661177,-26.824330868997404,-46.2569696146326,-65.83188505632525,-89.07533925228475,-115.32182429648324,-131.50581333801267,-119.6115929108526,-78.64235411556709,-30.296655580297706,3.637917820973584,22.112146758384462,37.15595536657908,52.253342353144525,61.41573743230697,63.08253926566846,62.86481609744456,64.32581514123889,66.71661889587291,66.28496060314681,57.50705626589013,41.361602464562694,26.59589549135283,15.57786032584725,2.5614676692953355,-14.211092885278852,-31.301006741181876,-46.681735354858155,-61.27948935421057,-78.3182110990865,-98.5695832928753,-107.79610954943502,-85.95223581691339,-38.885297459561514,3.426643137504999,24.68564082378516,35.067021434265115,47.017264665448295,57.719377106218815,60.733546308663215,59.9660660572633,60.73317245297224,59.556725588000205,54.68720779382982,49.404291271345855,42.676345309743354,32.413576737898175,20.863009683644766,8.920513006562594,-7.319712074084816,-29.34337270607516,-50.9241545386791,-65.66022996046942,-78.74813113606497,-99.90748695864154,-123.50623267158458,-126.1823269362321,-92.90391921151789,-41.322416955205796,-0.40117855503654964,21.550749228094176,35.45430251096224,51.39702701110723,64.7539084777361,67.51127938183903,65.03105430656149,65.93991461236517,69.32221405255513,69.9970739623237,66.83245691713542,61.59937299841594,53.0386941900151,39.53789556533972,23.848929586596448,8.286561282814723,-7.499284432875658,-23.462096035047246,-38.859332115312874,-53.80961542899835,-71.19169485598228,-95.50716244114247,-123.42979878760751,-139.11498375959505,-126.38764330909792,-86.81368768742888,-40.22439093129676,-3.371222124369676,21.379593917997205,39.115976155702164,53.42624904620384,64.81719322412785,72.79313543913995,76.79799088410982,76.86687770794532,73.85107083007736,69.76019232479969,66.57160822608908,62.251497608102184,52.374256844510036,37.30070381868232,20.32457686241118,2.6563878069050495,-14.44720586068002,-30.835817181353118,-47.02188446058681,-62.90923830543658,-81.16368995143785,-105.21134921062861,-126.38725402541407,-121.33607473601296,-80.37315775584067,-27.692563082286064,8.167671643769404,25.46808520594098,37.89543623308948,48.95748936371462,53.4094512569827,53.37185277608218,55.38115455703674,58.971255500498344,60.300552066174546,59.61141554820766,56.59075340333389,48.721082867273914,35.89926444979634,20.09552419247252,4.84623879491944,-8.699451104273823,-25.787304110749574,-47.0567282018731,-64.32307916828798,-77.90539050975028,-98.087283958837,-119.80102304959311,-118.00281120230693,-80.07512721508058,-26.084155869249248,15.16330872005311,35.100702724375445,43.40224667148485,50.6263073389869,58.126247263422144,62.446220062559725,64.65301518777204,67.99750544424877,72.45015562145366,74.4038360602547,70.55232493617135,61.635567691807275,50.232179692035245,38.16574144608394,26.212436944812236,12.362315366577295,-6.582632825055508,-27.94686114735964,-46.43988273152153,-64.74930713580389,-85.53144041575858,-106.58777863786494,-128.28366779307484,-143.45175282656035,-131.8097404272985,-89.2382048931553,-38.1030460065777,0.9884531585960507,26.22881412198448,43.5830295281165,55.832816862805,65.61388210479551,72.88340360977647,73.76580360068776,69.75723994601442,67.99847006051064,70.44728282921609,69.8289729668365,60.64659054265377,46.866074533203864,34.262411134912895,24.14548279822645,11.931086826537422,-7.4333735030617945,-30.342066172755306,-48.29826248466908,-60.87094301253388,-77.37550825088977,-101.86403323245948,-124.25129820432406,-125.73369654870052,-95.89146613920417,-46.76503088540929,-3.033991504180024,22.05014138684275,34.03601036632939,44.57633931804266,56.62019288785683,64.14403914697755,64.4290349813783,71.0,123.0,86.0
-18.507664369799716,10.069445347318764,26.372473420739702,41.716426681271805,55.76420343804358,62.48370947560042,62.95238825053937,63.088949897252775,65.02471139844666,67.13527107180745,64.77458523071499,53.26483934236424,36.60872128107193,23.232901472821354,12.254708676165526,-2.0163740851239838,-19.270066696443138,-35.92576885145972,-50.87950323261345,-65.7696465712195,-84.10418334298122,-103.41647299891204,-105.1227403426223,-73.78508245733732,-24.887069039793897,11.6540402615806,28.030644126940995,38.197730247053855,50.643749151717394,59.41815608533164,60.52558901403597,60.04947419474775,60.8273955576771,58.39160558241849,53.12653242431382,47.77181299581396,40.041959104690676,29.06658255368352,17.570386477754685,4.8598217120577285,-13.220166394947302,-36.03858002768159,-55.912857192493256,-69.09258342911448,-83.85247310664859,-107.29863499829645,-127.5755953172071,-120.11467460178173,-78.43786722462681,-27.526918015406565,7.6210979059838175,25.744041153694628,39.76281945416436,56.027390362437586,66.67756816606106,66.82910513021214,64.7969653020549,66.9055257728845,69.95805326247134,69.39155789092362,65.50772450340172,59.60449995814203,49.594573366955544,35.06007814743008,19.331715024561376,3.7710418405619737,-12.124317859197726,-27.995056056929105,-43.168158993147244,-58.360752626513765,-77.40145981408878,-103.71216754489373,-130.0938460049944,-138.74738136017493,-117.0308590870945,-73.0871209720719,-28.209630393522964,4.831883287205256,27.00218356450205,43.53181235496405,57.04235316864849,67.49146816015137,74.38417193624491,77.18652931690073,76.26328148714151,72.64967704920218,68.74024333016956,65.64915126455693,60.08778155203571,48.38494838383831,32.507782367576205,15.247080873635152,-2.391803281356843,-19.217643643483832,-35.541747940838455,-51.61169260357188,-67.7172003490837,-87.54832544249224,-112.50231248531654,-128.65892998092457,-112.67810060021671,-64.77318560255603,-14.950811669878874,14.492007369363176,29.082480392579875,41.46618126645899,51.03938414273112,53.528628276510176,53.58791307183237,56.466993409629694,59.65274715859032,60.247124550928376,59.09451241365749,54.881474559972084,45.46381394110311,31.51169007069999,15.463483646389262,0.9027589841131373,-13.016719181829146,-31.8036498615766,-52.76290367359475,-68.18575066219917,-82.77070121650542,-105.12105868526398,-122.83260961874241,-110.42756280147323,-64.67889070675612,-11.983359488238246,22.877682904238682,38.11162693451639,45.34104711980049,52.93480654276735,59.7675581533949,63.13490363787403,65.41772845631436,69.28468044311364,73.46705367740118,73.93981495051123,68.37551570997448,58.50259362046002,46.746530369054746,34.72545723912185,22.573443911062334,7.460134423698456,-12.818403465830903,-33.62955958238535,-51.498470491433245,-70.57786027085196,-91.6352089702066,-112.77985146354581,-134.14069086259516,-143.62900650620708,-122.0276746490786,-74.12088303945595,-25.154718402863303,9.424470258478893,31.872200288402986,47.55435459281781,58.79877778474836,68.13669656235236,73.90214392444993,72.8199670615244,68.74321583822879,68.46000852175817,71.00235021509944,68.02332782388265,56.83582972492212,42.93443023976638,31.1833487572914,21.141455360821254,7.112194467066576,-14.079915852733654,-36.309200667453986,-52.161424521774606,-64.81476986378972,-83.80985105579721,-109.31852673681672,-127.63161219080489,-120.24667710297271,-82.6178171145788,-32.600942179148255,6.174933589188035,26.307345257415435,36.85039604737776,48.09461563425731,59.538284773474864,64.86230304355617,63.74947985916111,61.87753303937031,62.545917656426695,62.00339572886933,56.35085797539866,46.63599769864548,34.389824622357395,20.452298320877272,5.482458608405047,-10.274455311988568,-25.95753699825958,-40.63663272861633,-55.07281998549059,-73.31104480701356,-96.65415696021893,-114.50126220550348,-108.52575969975472,-73.56835983375399,-27.983893102155697,7.904919026814982,30.92507018767851,48.134585317850764,62.73832783801528,70.39740129138637,69.57928564296903,66.12391581433619,64.09320683643685,61.79471204970194,59.45340530063285,57.98121412234213,52.65496542349415,40.644975198281756,26.0660668846795,12.847512579516296,-0.6284274886619037,-17.017305168596938,-36.237350456928354,-55.6500953653343,-72.46824365560109,-89.61050837452404,-113.49740284106761,-139.91399867985322,-146.7719369234867,-117.00821869039758,-63.94513004705679,-15.402708785814895,18.522855976962955,42.399509265959885,57.278105169204785,64.6469428694517,71.76291530613847,81.13770179784339,87.74541100647895,87.6425779938024,82.95881293493525,76.97350697120436,68.90641326461318,58.30152348131382,45.72280115362816,30.183783051627433,11.877828432078726,-6.062834142304838,-23.04475779160804,71.0,123.0,86.0
45.73723628266764,30.50538225358504,14.842018761316687,-0.7821607656518951,-16.749844772264407,-32.46104515113968,-47.45527032002985,-63.225751310148105,-84.29736954261767,-112.00660192474875,-135.2468112791769,-135.687139383496,-105.71778214694542,-59.35905495408095,-17.284366033587496,12.10653875962043,32.17579229141701,47.716064696624514,60.40090723292284,69.87214928755233,75.6238871854508,77.26571815590196,75.41841882095021,71.43278351762031,67.82283084721352,64.52918341973516,57.357724475451946,44.04781303316548,27.617562943641936,10.127704134209162,-7.35458175272291,-23.949240086017205,-40.23227022520062,-56.17273006701716,-72.84046636927006,-94.47381292480775,-119.15723404879337,-128.06818332097927,-101.11161170353009,-49.08565653375299,-4.134057750337,19.533906734057197,32.63352683022507,44.826699644728585,52.44689492589135,53.441966266268025,54.109873393337615,57.57524074150345,60.079331516548315,60.07396512568819,58.32947980013363,52.711826385696774,41.82144264970145,26.933800621557328,10.986652107079832,-2.9360367566475483,-17.812987008954725,-38.054460717443824,-57.89628342362427,-71.93074245130214,-88.45768372080532,-111.8819864874193,-123.1771709265476,-99.83574825445358,-48.72741726629016,0.44662714090997335,28.866859665679478,40.48361112164976,47.386764516914965,55.188247038408235,61.072240572028726,63.73483381521527,66.34450850957946,70.61869479009181,74.16358976805458,72.93621577967646,65.83960368830026,55.2183843089101,43.246195139633905,31.297201819320215,18.6917269864079,2.062972541440969,-19.092154024739354,-38.98929787163146,-56.70088522107473,-76.5959732258789,-97.70189969427395,-119.08941702272263,-139.09259357052468,-141.00964570009756,-109.89127741953217,-59.007147859649805,-13.542991321364678,16.840314705224777,36.98298608385854,51.13786933919065,61.64330706428618,70.38083203578427,74.28749313358702,71.5984102503601,68.10590173773431,69.22257004518002,71.04493931349573,65.46843833943649,52.810346356842594,39.21813090133634,28.28837646706645,17.790563516275423,1.6178643611242343,-20.825867402222684,-41.6593991674503,-55.70186083956222,-69.36412558520563,-90.88502619339998,-116.21633584063483,-128.76753415238534,-112.06591307195676,-68.2658257679237,-19.505576525446912,13.710419321452376,29.758136671080784,39.81100074151033,51.67343846167882,61.89350023242777,64.99710775035831,63.024014483391475,61.85282470537858,62.783168594280156,60.91349142085659,53.86874961555662,43.31851205884564,30.50081992587074,16.217279878936715,0.9934724786788206,-14.86815064322544,-30.32073070555589,-44.70924002286072,-59.743824198166514,-79.73081778547704,-103.17515226328688,-115.90882598078956,-100.95388950503367,-60.35959979754253,-16.13241763835665,15.62610844437393,36.17880469556514,52.73023837242806,65.89056545972237,70.86606798579226,68.54097457075483,65.4069598054113,63.54351360044567,61.003871040938314,59.05593456084992,57.09919053974118,49.7920092599821,36.43106858707252,22.0861237093631,9.13674480562675,-5.016483532243031,-22.346575234073878,-42.001917044681925,-60.785678150253744,-77.08782128730994,-95.6502405528035,-121.58163478598402,-145.07211547800858,-141.9754438766451,-102.77251654457466,-48.527613491523354,-4.229380524560859,26.27673395475028,47.689093198070935,59.904727648452635,66.43293966374152,74.37854174807087,83.60449466416863,88.42258329994335,86.55348526837084,81.33601121054132,74.92688411933689,66.06373345631278,54.88421987302593,41.59635549532584,25.06644247094253,6.52948905034619,-10.964125425976041,-28.139557004971905,-46.63389676784001,-64.40872270549616,-81.84115163707048,-104.53789238189678,-129.20265472274744,-137.43983148831583,-114.20621499843831,-67.78316311142666,-22.603554297475196,7.06835339982753,25.716584712746442,42.17670691702372,56.53573177782325,62.62090061730136,61.377927485766804,62.219332024619696,67.59052972611427,69.79882520680428,64.1356602531905,55.912807682029566,50.45714183882997,42.80644106205811,26.762510497511244,5.187677742016051,-13.665090207182956,-25.773057533153864,-38.06990947057573,-56.746349205787446,-79.42684555528973,-101.71939739732353,-113.49518152886375,-101.62822243495907,-63.982258551400996,-16.784810558412573,18.324089153042134,35.59692951382909,44.71953276109897,53.38175606203965,61.16119350398345,63.93339564081549,60.64003053018223,56.591426973230405,54.71039880090793,51.10798389119113,44.39887371666727,36.66354760281661,28.30287579797406,16.931793331190857,0.2781715229548093,-19.835041757055958,-39.018287047261005,-54.9985396990263,-69.38532152498817,-86.88178476287887,-108.58965184984329,-122.33708438973689,-110.6412678081339,-72.17588344097251,-25.567907920909345,8.970513692565358,27.987374868088757,43.36804014391915,71.0,123.0,86.0
-120.39627153183157,-86.75231971921909,-33.03325081404771,10.97068983654854,33.40675303681027,42.51315162273581,49.57698345471974,57.26092344176871,62.0703214646905,64.34486737614513,67.4409765141719,71.90390289403383,74.4400552247183,71.41440979225322,63.016240326554325,51.82370475096999,39.76189853307074,27.83691070978177,14.459030352176024,-3.7754171772478076,-25.21513444118558,-44.11515955331699,-62.14662701269301,-82.70748816162194,-103.77026200666529,-125.42108673953891,-142.53994860787554,-135.39609193429644,-96.02095966729165,-44.479003856101805,-3.296989912924509,23.426402161767502,41.606697021382935,54.407211039445286,64.38883874859178,72.21289778788514,74.05679223531801,70.31297497976787,67.9250362047849,70.08458316079428,70.39280660793393,62.28342195494905,48.72872444689109,35.76407449969643,25.464614659393366,13.92373041290829,-4.469355713250097,-27.41937011910604,-46.34689652380692,-59.19485493892833,-74.66427387200129,-98.36638049415667,-122.0571376164525,-127.3242932125392,-101.47055952101549,-53.51488489028469,-7.854810827541109,19.724021950531405,32.73643805345158,43.01544108935084,55.12606696117975,63.59149369165937,64.68175689054333,62.397768103743466,62.059675156482314,62.75807141017137,59.35993598741356,51.10456331992435,39.81252366167838,26.49072941553398,11.908770961351518,-3.559073884413276,-19.423262280392137,-34.582343527040294,-48.80637937238618,-64.8671604433821,-86.53651731634054,-108.83539316819463,-114.86285614484841,-91.080221709263,-46.90593478014946,-5.457032767435409,22.37619947935984,41.15401912844351,57.08899570776104,68.31024735163912,70.67758045627507,67.47590518294838,64.83198812408286,62.898884242815946,60.276428183389584,58.70613018411804,55.72848387015998,46.37682901333278,32.15988332836317,18.263266301127736,5.315544513038611,-9.688955563215167,-27.887737150111658,-47.686336147126795,-65.66349169141955,-81.88071604859284,-102.414352993572,-129.58878002099914,-147.90510709127895,-133.91943614624068,-87.25842939394062,-34.123020960438964,5.741912080237497,33.33231022634223,52.17279703985711,62.0200489362361,68.4008196003968,77.14273820858415,85.67425741828059,88.49525449363816,85.19779237969985,79.64647720120931,72.65545339371793,63.02797545081388,51.306560758792784,37.17943264193718,19.76185232429066,1.3042119325260106,-15.830269954436696,-33.38214826489722,-51.95774866192501,-69.26647733931073,-87.67379387779349,-112.07694171438428,-134.22403746210412,-134.11410994303,-102.17899450423793,-53.582138369172036,-12.356331615131968,13.120374035903307,30.48029286983349,46.7983281160659,59.345774428445914,62.647475819851685,61.040055408319056,63.54532349248816,68.93797713537101,68.90427344319272,61.64151696744075,54.07633661825504,48.87293589809285,39.08275687977099,20.770034833489692,-0.9034698095426557,-17.73229317221293,-28.85427896714727,-42.81528558801618,-63.05625327597118,-86.19438074558809,-106.83371683150796,-112.92045365345015,-93.00731887014068,-50.2642993582976,-4.72331194623882,24.865849720283023,38.56426609700128,47.16029420980112,55.88514761344084,62.64434711431186,63.46339610691605,59.259814522444486,55.931118972329074,54.025931244450994,49.40783525605862,42.19366071273427,34.37377395628661,25.47244425269165,12.676057135833908,-5.369000378803756,-25.642410010772128,-43.96753912431529,-59.15083473603955,-73.89645226883654,-92.97678002611153,-114.23820303123252,-122.08564557889308,-101.72440072681157,-58.48193804856074,-13.787721757940238,15.683581531812232,32.218987495908166,48.5360678607816,67.12930666139656,78.17849382141247,77.04098744696223,71.82648899220676,70.5787033062188,71.86607935089873,70.09842940580344,62.56888055887632,50.406106725446996,37.25426577567008,25.068143110432114,9.976896876242279,-8.89582310625502,-26.696139412678242,-42.01445060878189,-58.035804898338796,-76.16779256523724,-96.87895604123044,-120.29431437201441,-136.2688627060709,-125.76915668333235,-85.43867696020436,-36.11370385057725,0.30883317663221804,22.487798282509885,40.787553466638535,56.586880242027675,65.40698562973587,68.62874426469043,70.59465267107574,72.32728856933768,73.08412781596368,71.59885280907915,66.13568775901726,56.98202127901559,45.47532405377346,31.314439136628202,16.65507290974417,3.9221438791856813,-10.565381982655781,-28.960270379435876,-48.18656859507612,-64.96229657008851,-82.12499073536725,-104.67637935182128,-123.45995133883864,-117.76481821657825,-81.69282062433534,-34.59756753520413,1.5057501865723815,20.94439077647299,31.540824698861627,43.355494420657806,55.284107473107866,59.89107616952062,60.26825690437624,63.0014356830049,65.53987691568737,62.55927884098937,56.700486175717955,50.67456702296391,41.77854015569247,71.0,123.0,86.0
