-6.498256545156375,151.5096645494333,182.8409122310563,134.63284661746516,95.52055906033848,75.93389278810822,50.869406741241484,22.77404932579716,17.400040973804654,42.78257626927055,78.50218000861899,101.94179316552862,108.05479959461945,105.26540152115868,97.91680051415602,82.54686451972498,61.46250283654886,44.345829603070236,34.39724080001136,26.278392289434667,15.88520863068084,2.1947998176336774,-15.590715071369369,-35.10516672384156,-52.42276975407515,-68.52947619731711,-88.06172812346954,-107.53311426373318,-110.80582100726546,-86.01538802005322,-42.57377938846641,-2.97307936005761,19.63335681825552,28.627221427189003,32.926370394386446,34.28561147512485,28.0108945047419,16.488723176031044,8.718318249888107,5.988453417313756,4.428340571532383,0.8153764961451421,-7.110468395321568,-17.782696991295406,-28.41735936307048,-39.4189731465162,-53.46701865955968,-71.71604997644285,-92.5486211200671,-104.67534750569361,-89.47568093236448,-42.53911701227479,11.785417697428668,44.931127317471926,57.36514824652676,65.13249700284572,71.16355218943538,68.91925664519096,59.95766630865967,52.107347178139094,49.162250060614646,47.45458957525097,41.67953155652276,30.15340684353652,16.5403929316333,5.124956569917666,-5.176016945366441,-18.12666115678933,-34.03286619987543,-49.951182678056455,-66.21508916501553,-82.46456407610451,-90.05627008046132,-74.24647141353358,-33.204959852978725,13.398958306606163,45.32532590706459,58.99492630674443,62.67575289144972,62.480118682213025,58.44096868237124,50.68435665301146,44.22210582636229,41.85984174644092,39.10181294573779,34.66987444466136,31.796452453606985,27.34032710529367,15.437229365844852,-1.470446945578183,-16.98962251277068,-29.3637222896838,-43.03570465322591,-61.27336016182023,-79.87492009731982,-94.99330369499272,-106.6604715837079,-104.71793255981223,-73.69045370495398,-21.152323122362983,22.536628810085823,42.448196263480895,50.57044316930234,55.95991758378747,55.01365290098567,48.50732593254952,43.70948571428129,42.43648371495001,41.421553697249706,39.08339748011173,34.500215857181665,25.83652212725771,13.52555028333362,1.3919503678275662,-9.07994140640867,-21.668252580142934,-37.708834336267266,-52.46710786310385,-65.43704824999372,-82.26995718885125,-101.20656683713038,-103.90564095680938,-73.55634337785006,-22.393084155812588,19.624199005687277,40.12136888860699,51.39049455760138,64.83808884086498,73.51141725158394,68.81565074522993,58.32377006156889,50.90253553261756,46.07865033785854,43.912122107957465,42.90607044296515,37.93314340657589,26.62270003136455,12.799130533430564,-0.23222462326070364,-14.25696649061779,-28.34374420490589,-40.49958440034336,-51.4419051513207,-65.12526397214592,-84.43989824408392,-101.45275588706936,-98.40832047112721,-64.9244408587815,-15.61094877221238,23.826985424569816,43.89846177796266,52.74790068708044,56.98064332248685,55.15441378503839,49.10992462871384,43.65420788557585,39.41979867411952,36.25510798154352,34.30162338463043,30.037593602679475,21.139004269036818,11.91377137355027,5.787881446770511,-1.6345322177093702,-14.461398736318749,-29.257052779227394,-40.519464855968266,-49.82567033495455,-63.59670589534234,-79.81434937849909,-81.01389465696901,-53.389247025428595,-8.325155408189316,26.49554070989488,38.702165261474924,41.86476880653144,47.52481457880665,49.06903916029678,42.393186582808084,34.040134981736585,28.070102746887073,22.510274877969792,18.570498872921682,18.99758595381527,17.77971226383662,7.362586156513715,-10.059848094432068,-27.442945657865856,-42.09199306414272,-56.396239778584885,-72.24936810400159,-88.12494147733057,-96.74454950429151,-82.89200220559071,-43.12962456820103,2.5130438372781603,35.02738281315243,52.29417256391553,59.8434141127072,61.681824526122156,58.73528016723199,51.894066781908094,46.01961809821159,44.959564561722914,45.51131231195497,42.76151652284324,35.11798695621231,24.753188006454135,14.595244822791416,2.1518529436975404,-15.238127813075282,-33.54593914588141,-47.49037396002553,-57.99904351084908,-72.54154671248325,-89.9481987304328,-90.98545230401476,-60.17027749377911,-10.947662212756597,27.251593923361526,43.29761675121938,49.44725320429414,55.33145977002633,57.3777680467748,51.3890651906115,42.507560105380335,35.87392324942472,28.978732839810768,21.227138978899248,16.643627579045255,13.249737248370637,5.6654508856775925,-7.222274689097835,-22.968268437861976,-37.02933605021143,-48.79090860275279,-63.05393187660404,-80.66163686134686,-90.67257822219528,-78.03151986494423,-40.594529601728944,4.013579904568304,34.6918291749894,47.8225729528703,51.66529827788386,50.746128181441776,45.696622075942216,40.56062294712716,38.57655278388404,38.086418071412005,74.0,122.0,82.0
38.87888501138136,26.17408921053242,12.9564562699298,2.203734951945765,-8.522332689241296,-22.54920952478136,-38.70332855661707,-54.52844828080357,-71.10166339620007,-86.18334271429201,-88.42634172362857,-64.41166065861196,-19.196155570908555,24.64316375041249,50.8820387446377,60.67635086722473,62.94059243243739,61.76898832114227,56.45105413602701,48.401461793458445,43.24016458650062,41.316466352262914,37.844548467602365,33.6318527355038,31.014961674144587,24.73717466543696,10.768290357051995,-6.31338142900154,-20.772149045158358,-32.925972796729766,-47.88464441552185,-66.90848988997033,-84.57768117018894,-98.86429737964201,-108.30849620030814,-99.05342991554483,-59.542403654223605,-6.3325176735364375,30.514428365961088,45.28829114710495,52.4525302296463,56.51894790007859,53.395633296069995,46.69415971260803,43.10689751529104,42.23693045783525,40.90561354266822,38.06209079620508,32.48226881046523,22.516363818165658,9.8310801777404,-1.7110406712266748,-12.293910527989098,-26.106260919394032,-42.29991024230177,-56.186712196854934,-69.69329549635962,-88.04728465865917,-104.72764959266478,-98.64655363861367,-59.602368730993206,-8.197588159564921,27.530769526482818,43.53329097713762,55.03202390868183,68.44297198954705,73.48928195266924,65.78968801121809,55.78519356373895,49.30057569873978,45.14499808290252,43.705206197407875,42.0916331833691,35.25259508608887,22.627443850229348,8.990960496968365,-4.12652919620997,-18.453110832067942,-32.071563980178595,-43.68166715064029,-54.87045209740228,-70.2202549232653,-90.27400580592186,-103.45106930742413,-91.72026875645061,-51.09597069158347,-2.330267713293722,31.448986198802288,47.1206272916241,54.438940507698284,57.13804027099869,53.59289450744914,47.360228089701664,42.34863862936118,38.35438666690346,35.64314642039716,33.52309920046704,27.860363989944904,18.2300992949412,9.888050381876948,4.075131202007716,-4.795084623310339,-18.836387343572667,-32.97744509398782,-43.13237345692875,-53.133109003221705,-68.57620171064598,-82.63763898206066,-76.04174005831962,-40.99418905677995,3.8846308057385324,32.10214979520817,39.68069414434382,43.29061829204999,48.835293018022995,47.802817271163974,39.81700020660616,32.10768035059072,26.500488100236197,20.998979026353574,18.317448941096153,19.26976565974691,15.819060565215352,2.7300155902212326,-15.334270481034734,-31.90721622399378,-46.11768652354839,-60.82305102897682,-76.98854442779317,-91.94768128491228,-95.68427208509576,-73.50512821086166,-29.41898005652239,13.642014408378005,41.36607308128775,55.23343048916026,60.871763869300686,61.32871569179104,57.02529462384022,49.81683183270824,45.236459332031075,45.21068122275676,45.19902527912735,41.028861802352225,32.22610061378398,21.78277815851439,11.46104929270032,-2.4319387421271355,-20.713740649442553,-38.15500517719937,-50.59801320457509,-61.499606550174576,-77.84075909176387,-93.00293660247945,-85.36581785210254,-46.540424327010356,2.3006550680086875,33.871209768526946,45.400772791826384,51.13716707259944,56.645999541791,56.40581312156386,48.76053247730263,40.35545429129149,34.086722705762504,26.647188712052902,19.489514281039764,15.818610912343818,11.62922566818241,2.4347150580319643,-11.668848079835577,-27.368665651316153,-40.502380173084745,-52.437825620429024,-68.04872653960672,-85.07179523199667,-89.81476139078836,-69.31798439170039,-27.32892814621518,14.865332781337846,39.98345892583082,49.53719615505299,51.871290721527124,49.6142938988201,43.981376065090714,39.67042835540686,38.40976057018541,37.80217572742274,34.696875302513966,26.95214677687407,16.682054206264752,6.895833329790378,-3.7857897042216213,-16.261179160030697,-29.0435135244072,-41.4946517386439,-56.67785644925558,-78.2237595704189,-99.84305873947586,-100.96471003236805,-68.44551703595279,-17.299204499856238,24.609555026843157,45.37524298572439,54.80612803524756,62.81506417646352,64.83963322281672,56.455535618900115,46.55976971466789,45.43727136507999,50.35791803846837,50.57133274455869,40.56265259383599,24.81067753513726,11.098303901456765,1.177922722754341,-8.989092445613936,-23.1724214314331,-39.25784315914456,-51.96032620048834,-62.391354419079676,-78.84989823225166,-100.54441796555449,-104.25936778885092,-71.4132619093331,-19.86025937500715,19.910379925847586,40.75529723068501,51.98235533372034,58.40940908521203,59.024372070597664,53.77426663406562,45.147221555392285,38.74612669418358,38.389738944254916,38.315164169532764,31.953108400059186,21.854828513580678,12.46146413061352,1.770498013130784,-14.066485602120428,-32.00282703589311,-45.59709383713977,-55.38229813966621,-68.66066544679751,-81.85104693209374,-74.35295731929544,-36.984762291431814,9.191056057618948,38.77164702725177,74.0,122.0,82.0
33.643758086333044,46.646602844819455,58.97681759864249,71.29616358841439,72.26844708614773,62.62998132060146,53.59785224973184,47.85812423783224,44.47308808691168,43.501405760170776,40.80798996079958,32.041724131568344,18.578690685050642,5.259256972604837,-8.165536233015132,-22.57663375617066,-35.61682376935951,-46.798968884276874,-58.670525750791995,-75.7986707680526,-95.59105606413871,-103.27523699171158,-82.42172922616338,-36.57523915568102,9.539359180972706,37.46460140086703,49.70802042451705,55.79062665448864,56.71783916997016,51.80775029674827,45.75230789917846,41.114358110595106,37.39926440497927,35.11820767891972,32.417234728855476,25.301754365492535,15.461313888905776,8.135540807330203,2.0737822624416995,-8.444452021816328,-23.213128699235952,-36.29988212390355,-45.712797492208324,-56.98504635129551,-73.55012220281598,-83.65384269426077,-68.4895744376155,-27.714754996977323,14.527213698282276,35.81565305463938,40.432008824305676,45.00421646422718,49.50844364392981,45.89756582848962,37.31626909114656,30.385243865353065,24.888213699992832,19.733508515149985,18.45038965702664,19.14747368388516,12.97387219061379,-2.326866290678771,-20.43879845010964,-36.14644783818417,-50.20291376620136,-65.39242097711205,-81.67220116036528,-94.89832536912041,-92.3112623527272,-62.13440122417172,-15.879153020358558,23.371919559114545,46.530952302327734,57.50709170375994,61.48793678909439,60.57023909157363,55.03473399271332,47.987810130020236,44.88775904034937,45.45279686842296,44.514819948579124,38.88404356998324,29.200907431785,18.876882142789157,8.000259430680721,-7.430525137312374,-26.111016047816467,-42.290600021629274,-53.53546019781982,-65.55634719357028,-83.17461835754413,-94.05485720330063,-76.91223605065862,-32.025055874492544,13.90479430703152,38.69130924586996,47.105643161860925,52.89476189193423,57.444939535227036,54.741415709788846,46.10431261267368,38.44195672499891,32.14933155265901,24.319552671792803,18.114389342792744,14.945575254318921,9.554179426414622,-1.2217472126806934,-16.264149888615805,-31.508640564860894,-43.84391585973085,-56.442186494102074,-73.25323900273492,-88.45417103719308,-86.73206606436743,-58.67151972324235,-14.078803875844335,24.13960139588181,43.93497112592081,50.70545390094462,51.70335483751516,48.16097937426788,42.40562744152802,39.06578195559671,38.29740242906163,37.3076193554388,32.93538796386713,24.053353010304416,13.790123404440546,4.010077775738779,-7.252816377688941,-19.999704290795115,-32.61528163959429,-45.38695711314788,-62.22437709958244,-85.18084875015359,-103.28381443480326,-94.90259454210343,-54.32042826478091,-3.2234334107909457,32.635694468808246,48.593517459232416,57.22376316596129,64.42059099515002,63.32716162566928,53.14309107270742,45.17056690702514,46.68762569137564,51.33429823290874,48.70290343848745,36.219644548128734,20.40479850143136,7.96023897449515,-1.5072146831715119,-12.626132218193945,-27.884204903584514,-43.41326298801644,-54.90411989731901,-66.18095233745446,-85.22583505039725,-104.79553019259116,-98.45691132749941,-56.896667316503915,-6.2885403065499395,27.54632844128341,44.593278760694304,54.34034470617465,59.2375760096669,58.04569011855207,51.446680090995116,42.76519536328402,38.0951315444312,38.761014976010664,37.17688117066013,29.14835814330653,19.018660017707592,9.74069054942931,-2.251986385283089,-19.34548733233926,-36.55966569666484,-48.51697847098004,-58.62898503714136,-73.20008147174165,-82.76528774941616,-66.19234167778819,-23.14664921638909,20.028817962817953,43.355734971313495,50.324990465271476,50.81510727890419,47.48962723416507,39.97734146192678,33.000562615051365,29.659689100950292,27.603440668925142,25.271408198158714,21.411130987305878,12.137392949806145,-2.538362017094011,-16.582634420407878,-26.958669895431623,-37.34736533561242,-52.497492328056374,-74.61996944621407,-95.69793631320617,-96.29118723394905,-66.73112549980709,-20.701317032900217,18.874347685044487,40.540142206111526,49.697574699896904,55.35277979091394,58.51067227698739,54.6165289591169,44.36826063632346,35.4715896347049,32.38771086204758,30.041911086664328,23.22270773661124,12.20556197059809,-1.188090119775385,-14.237219460876204,-25.938456328116796,-39.87365620359497,-57.90087347597352,-76.34929350133774,-86.99366294926922,-75.89512524461827,-39.36851341035602,4.267790324173543,34.168477278219584,48.651016611843254,57.18422324096632,61.12752553956438,55.40130778929688,43.60269327545869,35.30092647933934,31.9354515348472,27.749186358126842,20.081678833717096,12.917514842537578,6.766739074130509,-3.8211357368769736,-17.77001471922019,-29.54410018180835,-42.021925627032005,-61.28378664094817,-79.62525862663485,-77.51829421392955,-46.71294839978463,74.0,122.0,82.0
-25.29579368514939,-40.23410366015783,-54.40766910077282,-70.06991474499976,-86.16883891509976,-96.54862042440088,-86.4391826547927,-49.333848880825926,-3.048599971867006,31.66924648715598,50.68010023023955,59.21985359087334,61.7107985049085,59.40482781438605,52.890705435040154,46.537650645390535,44.88231607242309,45.54857324537527,43.41470597672458,36.3760988159976,26.147546847581328,15.968580059985795,4.107108612545097,-12.731814767660097,-31.278091005659153,-45.948396186946475,-56.53132845210362,-70.21447885029856,-88.03456174398758,-92.59761360363841,-65.93675775261009,-17.457811382122483,23.521213248540803,42.08934319353337,48.69978661369356,54.60602714384366,57.571407317981304,52.53417609553922,43.589043091230096,36.674963761635105,30.01913018995032,22.14253117478187,17.05600223793996,13.859887855901393,7.001737737579128,-5.254781813805669,-20.87477043308059,-35.35231849896076,-47.1975335133904,-60.870173218052834,-78.40211226254324,-90.38161859263371,-81.31216150680488,-46.5366759337727,-1.4529388892208905,31.7402899753367,46.79854756286896,51.44852528098133,51.14047273158715,46.4964548223881,41.07466681174744,38.69122784947553,38.1701986544864,36.51919346252454,30.75948795280204,21.04959572064646,10.97783245158131,0.9742858000106739,-10.852538529103837,-23.716456599879322,-36.16888258622722,-49.623086095488546,-68.37623472403801,-91.83208411243675,-104.39534939828548,-85.93857864557947,-39.290987900330265,9.414157310229559,38.869831623491876,51.26152476994628,59.6339112939214,65.27794319266651,60.95350498910403,50.04973081254319,44.68283102086071,48.22440667869938,51.64293735529067,45.94389097652782,31.598480634227446,16.337822775527485,5.098035032972673,-4.342497483582768,-16.662476203252435,-32.62316505015518,-47.16891456358715,-57.78505673437072,-70.72544069504694,-91.82202792238797,-106.75623010311477,-89.41889286254569,-41.64611083736335,5.669486919756516,33.72709647595751,47.89013534043749,56.31453182925573,59.53919592009715,56.6029426426368,48.91597852892017,40.749775089537444,37.969561461142646,38.912676252132854,35.42811712822691,26.18400003962163,16.30968817980071,6.784435062685501,-6.763268879664383,-24.63902427711119,-40.60708822644091,-51.246356309084646,-62.37128156947759,-77.43488749746935,-81.33197032973167,-55.607584882438516,-9.3577351418506,29.01817407559292,46.54586283591846,50.846828992941376,50.31731694539906,45.63095705644393,37.645479121159,31.705730170510503,29.064938225396347,26.959942318887048,24.462431016149772,19.436126813020344,8.24240763866376,-6.935990095906934,-19.88842358083915,-29.719507170142585,-41.06491459983965,-58.230717944602205,-81.58133320652509,-98.80877181943676,-90.65717703844177,-54.07570397749567,-7.751660541809392,26.99171893947985,43.98942157090419,51.460702169675905,56.705458883482734,58.26003728386634,52.03690039059053,41.29142183785291,34.05798758164699,31.976564252818328,28.590838956686902,20.398423025169475,8.479093325776617,-5.121207511429717,-17.665527251095035,-29.539641792221193,-44.74761005137038,-63.43093881463,-80.78921407916243,-86.58383235081395,-67.50912350901847,-26.342062404529234,14.807883275162075,39.532061739607705,51.41327711431518,59.043529757161515,60.550908991351655,52.17005907556458,40.55212608993554,34.03273180651753,31.06390493942647,25.80114571055731,17.75383014082967,11.265835539537603,4.319577293282739,-7.794603240258951,-21.48773762694594,-32.70694244880423,-46.86991324497566,-67.47491302575358,-81.91419391490774,-71.28796505631988,-34.22556877073378,9.556776479731596,40.394328315001886,53.18461342902288,53.54886006789657,48.51619680608018,41.61960258533269,33.78533936301021,26.040341059432414,21.386746127461972,21.16136653547203,19.757496950481997,9.503494436661178,-8.786168321843508,-26.356428253035723,-37.18423140797547,-44.06360609157956,-57.159182880054026,-79.88303282083798,-94.34228843868357,-76.6999709391418,-31.857955239591842,11.099767341715488,36.21627838916711,49.640947191452135,57.65427826391801,56.45463857601873,45.282631050948915,33.552527700908676,28.209934379685645,24.89488435928535,18.67095042587279,10.477273415207094,2.352205040081905,-6.476177206987951,-16.276756703604622,-26.27273597848341,-40.15379654857933,-61.75266762446722,-81.53647347847699,-80.66182460630952,-49.79106160466302,-1.1198492529936588,37.77737991260193,53.64102563757936,58.67453122094584,63.67918246807039,64.03277331004729,55.382831404502966,42.594325304118826,33.31541692676485,28.16632627687816,22.014463651730974,11.632897813118827,-3.2053307940147033,-19.5281371100691,-32.00579149334108,-41.946418093524386,-58.98637621742305,-83.67026442977415,-95.09752118038719,-72.78249274044578,-26.015201256436168,74.0,122.0,82.0
37.95414218491205,35.36573384842652,28.2208325570904,18.04582152383994,8.192319187410236,-2.242025814361926,-14.542348833784406,-27.377981193480387,-39.78116533928287,-54.32462706630883,-75.0382631379604,-97.62806762041494,-102.73660618294383,-74.44487980405559,-24.12931747092571,20.260117173308355,43.59915485684978,53.69944295288826,61.88943652149164,65.20803941193809,57.958529233459146,47.49104575446167,45.03541987715703,49.74490921079653,51.11947318132337,42.407851411862126,26.92588531296783,12.662033728454341,2.4006497104982603,-7.44380922393736,-21.054507832077217,-37.22399259347229,-50.52681556703644,-60.846372976821904,-76.10587102562253,-98.02401104186882,-105.79858199019851,-77.6027856821513,-26.551707348638704,15.829692389221309,38.74873541296204,50.77459215745255,57.857244662071345,59.30746135663423,54.74937519557411,46.320016951696466,39.24444897407584,38.213298678731945,38.632090218600396,33.1474472009337,23.203941990019246,13.6770538560607,3.4575539597931453,-11.690385011784025,-29.753866463846173,-44.13102910080847,-54.021484226488894,-66.59570378038671,-80.78281414531236,-77.20177880560165,-43.156194618691316,3.637114258774404,36.11051400762595,48.643713478193675,51.03058467278461,49.4684495398701,43.448925512737915,35.52415284221572,30.71913989656195,28.4891972101811,26.296551500853774,23.462357021809517,16.89765719934338,3.9796800866187767,-11.1025160822713,-22.890455732558976,-32.618618821427795,-45.279413571708,-64.57742997798627,-88.09814017945244,-99.67731743696181,-82.48388809580354,-40.59568818478986,4.1187089037779,33.517295468207166,46.66142148058858,53.10615556280011,57.77291633782508,57.29740549627415,49.04195975319463,38.55557274277629,33.14516398050395,31.421704889761003,26.705440092959247,17.263434923433934,4.60137654607469,-8.943689879944612,-21.002569076352675,-33.45462933285773,-49.94341770494057,-68.88005853571414,-84.31121958543139,-83.97732263216811,-57.12077490398421,-13.368124168205473,23.816690301845284,43.792207152096864,53.9156321679203,60.4081482372647,59.05589331138842,48.654320242756285,38.014140384652,33.087662900687,29.960444980299286,23.571319384846948,15.618030503971392,9.60319444050534,1.3631719211208393,-11.906299168825823,-24.911563760426322,-36.124779468152695,-52.38479300661783,-73.20767714348939,-81.97676317052374,-62.68821594334019,-21.187634330732912,20.314671839054498,45.817649947686526,54.206686464350184,52.425254867199754,46.64204159948921,39.438352278585,31.438714700091996,24.224876640577524,20.97404586420175,21.27344926329171,17.895975383687162,4.719881777478145,-14.337872425058766,-30.23853662723459,-39.208597286990205,-46.74421034662634,-63.09877174303558,-86.16886805297442,-93.07885837517783,-65.38629742794949,-18.03912429675698,20.19806560358751,40.8078650971828,52.55903927482531,58.4810376223739,53.988763863869494,41.42949897904123,31.379728799610696,27.369421123956087,23.44465620970149,16.37940991310017,8.106279465270038,-0.0577772645116216,-9.270782457181532,-19.098311572639712,-29.593254988754165,-45.69403445685638,-68.47095104649354,-84.14496843232473,-74.74145472299567,-36.436776679127,12.26401619065133,44.521909211926754,55.42387227673315,60.117895101698196,64.61431625741075,62.403038918660265,51.72749305852016,39.343346712884156,31.597775415571355,26.710122702841613,19.500627327111182,7.752289131529462,-8.009224348362794,-23.68964185863705,-34.77970509215257,-45.74202086611903,-65.89132208971517,-89.58544162860176,-92.37248239091332,-60.58362204574577,-12.125525691483332,25.220966468035574,42.40008030506733,48.2061936148162,49.42813254466906,45.90082307899981,38.538625647080515,31.334053654273575,26.236100534226466,21.128240915489982,13.50633237155982,1.7883005098423077,-13.03660689156712,-27.47778165801058,-40.94329924638112,-57.212235571108884,-75.69964906561967,-85.8252163716069,-71.68569642228906,-30.083023335465445,16.221625336994197,43.59530917022266,54.150943964110255,60.717844356476334,63.2901112045228,56.827061547248135,45.74904641389856,36.01460262759056,27.097505025166733,18.902130988584688,11.253507188217394,1.1432597703178944,-12.277073021215045,-26.28611333676018,-39.888690735403614,-55.81678970146427,-69.65678909430846,-63.54405164967441,-29.92531997059595,12.497578015055977,41.07578333095946,50.950368001807334,49.94413599879897,43.35966439310658,32.04519706239061,19.974756999233133,12.194851537637287,8.41501400344699,4.857732498116355,-0.5835659091315112,-9.051788088460423,-21.37777317680595,-36.84644719218724,-53.7500169846199,-71.09530577354076,-78.63550115626481,-60.11674904673795,-18.0714389685595,24.128005417594892,47.908682060420276,53.757472819003674,51.47413686659974,45.38073611317878,74.0,122.0,82.0
41.43332149016011,49.93400475697483,50.944117200471254,48.212173233811605,41.08342730494553,33.71539545327524,29.959551917509515,27.890692007695314,25.607328302900342,22.153046058390093,13.769307145966694,-0.47348826132648486,-14.938145005583138,-25.695229072801833,-35.775801603829926,-50.073889056614945,-71.39222746883948,-93.63210399049669,-97.98205339276652,-72.11711637553543,-26.913622085395573,14.581253097870189,38.60961469024825,48.81700286632366,54.66870348437824,58.405923822475486,55.61631340646662,45.84576471223277,36.31445668950269,32.58295303488151,30.566454157897738,24.409025473605674,13.856543503385833,0.6424807143437312,-12.606421333051294,-24.353643376709783,-37.754904837728176,-55.3605818876026,-74.08751134898621,-86.52553818865167,-78.99713110175469,-45.20868984024413,-1.0511202609591022,31.24762586107978,47.24914852113547,56.20940304725035,61.08916060428676,56.717784264138395,45.144540393358575,36.035184107775855,32.296435511823454,28.530391457549275,21.188519799069184,13.720721725379285,7.741479089626798,-2.088313283961595,-15.963358719941981,-28.107054751713978,-40.01872969020509,-58.41159164842668,-77.93656009607683,-79.52729359486261,-52.1118943776295,-8.207081466146619,29.627360341659852,49.760207467034604,54.39250238532052,50.99248747140808,44.663811899784655,37.182794150627686,29.141172169892325,22.762620318226862,20.914828602936364,21.074331444183077,15.134536036412973,-0.5908957503442337,-19.58468026022381,-33.47968333199808,-41.0652673407879,-50.24656581560902,-69.76725727626001,-91.0902836930616,-88.65193639990437,-52.331139180436665,-5.153488182236505,27.693605004894014,44.72399824472249,55.05601836902267,58.37998994565581,50.77399463136224,37.84917479295191,29.788325086168513,26.50384586136616,21.692960295026058,13.993854295600883,5.769649506402402,-2.575303057918124,-12.11694003007935,-21.9298369909661,-33.40001592856557,-51.91429260235511,-74.62714764014886,-84.56059723149481,-66.24785660707644,-22.13450908081203,24.094963175644693,49.32379176529311,56.78155747541058,61.646898065094916,64.93852787091984,60.00326234861885,47.931223966316544,36.54739004315387,30.14122556189729,25.030916488217304,16.595763967057604,3.510126183625511,-12.820448110357322,-27.39482720102657,-37.493876145549955,-50.413352218981466,-73.25305565363423,-93.67802283441256,-86.50922087287458,-46.92752450339697,0.686862114717728,32.04186298363924,44.76406126756296,48.973519222343306,48.934526753121034,44.01842893578535,36.265105791438046,29.68873264591606,24.887933601113637,19.27727002115233,10.566228128491497,-2.311240166749204,-17.3896208601591,-31.332034933250235,-45.211668381674365,-62.604641525881696,-80.17817733143605,-84.83680435138979,-61.91123460878722,-15.800600058979118,26.503603596379534,47.71810111449642,56.15244825558557,62.19335578699157,62.35112588287744,53.72204158096109,42.734966024402986,33.42277116091759,24.600188796266558,16.74452234997214,8.709664569367998,-2.477145453122281,-16.39606947065539,-30.1701613398668,-44.16247916252368,-60.65789019545618,-70.76378880962172,-56.247404503978196,-17.362813560936946,22.782573307573898,45.59791082729961,51.401450394167185,48.56524844238204,40.49591974781825,28.362736382874267,17.169108677054393,10.858015862854318,7.4984675602155315,3.5334519396589186,-2.6748916638013416,-12.197948067044852,-25.623740836993097,-41.594650579914486,-58.89624962627395,-75.07071334660641,-76.40216644868893,-49.55527227476771,-4.760166483042784,33.22347174737946,51.02269956933984,53.570118006489444,50.11748236151468,42.828074316277835,31.989757368881452,21.17743109182386,12.450080457721244,5.675104927120121,-0.3413319429116035,-8.358647351645953,-18.805570349313435,-30.590480223370456,-45.60716761435139,-64.58607298708874,-77.16251960177128,-67.78367586480897,-35.52563499582878,3.612047305479152,34.90205256302271,53.62340786386322,60.043975717852994,58.786230120691236,52.998644148795975,41.41464525499291,28.996763500042253,23.494229704025365,24.582559869740326,24.0794961696575,13.006913659929948,-5.535569887238535,-19.73489263907251,-28.317093119482244,-42.58992153744036,-66.60357888196546,-85.17780459813599,-76.9665977775558,-40.41711363625502,2.99863650447112,33.79824081518684,49.90832901946499,56.55586663595708,54.65304456688512,44.7882957603743,32.24417338207698,23.44637674347296,20.887565338862707,21.056936087819953,17.82249232543003,8.05201048035223,-5.792761290426525,-19.947261050087988,-33.18978887859491,-44.44184428630624,-55.514205430425896,-70.88134109514245,-80.46915912784031,-63.84121363720334,-22.23290877154292,18.595345172501123,40.713646213026934,48.86387885065285,54.01958615761506,56.242311152177805,49.57442932745272,37.727413337554275,29.53707353039231,74.0,122.0,82.0
-40.089113324447425,4.174850978469516,37.36616239788709,52.3747347724145,53.932663089310765,49.33656531721082,42.59884126511946,34.86637639360873,26.97200929125164,21.719089071951338,21.069563794818496,20.33570136756007,11.472290002513317,-6.183465956418754,-24.3530997324999,-36.13038311375197,-43.03363461901268,-54.74013874748943,-76.7324967571286,-93.91850646464079,-81.12300021722086,-38.36837740661692,6.341748774491518,33.79429761878088,48.174728332731185,56.994652924901466,57.28825922136767,47.06957988811623,34.76794263927397,28.64061867907953,25.46244635163848,19.67463441123064,11.583053737638949,3.4381908484212644,-5.218121707453989,-14.968693263838077,-24.855837846474227,-37.85317402524766,-58.60275376227075,-79.70167924529083,-82.49647212968303,-55.43908538734942,-7.646002094309502,33.952982241874714,52.55319868636419,58.05665371186778,63.09753880665464,64.50724478883012,56.95692751125113,44.220560189471186,34.232029446719345,28.79353658096163,23.04682173703199,13.29107426676822,-1.03374581454543,-17.477199516683058,-30.641055442152282,-40.43260421321222,-56.06323912614667,-80.52872713518414,-95.30983929863446,-77.70912646768616,-32.6156572221789,11.971008312769092,37.21651421808472,46.48194832966177,49.420260932549546,48.007727545587294,41.88146807069131,34.11814119411469,28.21657532294671,23.464723800829223,17.163087966213617,7.254932692066868,-6.609504116403695,-21.610676730563515,-35.15594021657516,-49.825921396311195,-68.08164198371912,-83.6052823815044,-81.41113107079117,-50.00982813221736,-1.9190463671062328,34.814860809939724,50.7731547585606,58.080094987201335,63.163330889536475,60.5930668417343,50.4497212182102,39.90770173274361,30.84210775851394,22.201609604785062,14.590061659824874,5.873565859185926,-6.347154939558706,-20.476041228270077,-34.04412377206814,-48.729318274855274,-65.06269862421084,-69.66700761140848,-46.73397679778921,-4.7429625613456405,31.473916330837433,48.647852418456644,51.18183636150757,46.767403554839355,37.25261925944611,24.767354263686936,14.820034526245088,9.775223586472105,6.512859211688398,2.0213796850722314,-5.044217674949307,-15.686541771097755,-30.082293843187173,-46.44151906339341,-64.04830356071811,-77.82438348248898,-71.62189997956779,-37.38970521472889,7.88910154714868,40.495678962898495,52.83920544699124,52.947864703399986,48.450421245458024,39.943963107851715,28.697889930277505,18.438369437213307,10.306406966954373,3.97296001345476,-2.354927546802559,-11.201252143924389,-22.056220465129513,-34.44874848630143,-50.882062149114134,-69.63551299161792,-77.1663323727386,-60.30096628630452,-24.085460373957357,13.82321611690867,41.653534547495795,56.623037016863904,60.202297540107466,57.6312667223106,50.21514831680037,37.49016949614413,26.52636367484683,23.376096350673112,25.089521930986788,22.14303485175665,7.896136443413076,-10.477208430020168,-22.400224180324333,-31.35056171946684,-48.84252302846418,-73.58820027945222,-86.17804140741084,-68.64596718013887,-27.43440500249533,13.602331641069053,39.712751895826635,52.661569447838296,56.93055897438234,52.471870612415195,41.124723662734695,29.097837148739927,22.11759427021581,20.922695258685685,20.718888011087152,15.648780745439284,4.277300848486772,-9.954504576316124,-23.889086284137985,-36.693579275622355,-47.398875477016254,-59.5381993725903,-75.21057786256101,-78.95059253604494,-53.47919318495675,-9.13290488809019,27.061899191195376,43.931371750482114,50.388162858516445,55.275585061631325,55.31624698541772,46.23747682760618,34.75952192589054,28.15474946019282,24.454508925675007,19.247717277849134,12.072348009446994,4.037447161374609,-6.304823016559469,-19.67741507071842,-32.10705513832661,-43.85387970407686,-60.90154743680702,-79.55532510647612,-82.84405681541209,-59.786961055958294,-20.973830120916,14.967920333794106,39.705629852539865,54.30525351640045,58.8987456815851,53.08739844928697,40.85545989924988,29.055581948306138,23.093656649565652,22.771686191165433,20.61212877455375,11.073352970466729,-1.038779117729525,-11.087319732431157,-20.997267344748934,-31.852094200764473,-43.63823396779204,-59.82948410060627,-80.57240408744714,-91.91069225033051,-74.18841416439213,-29.407766375928507,18.07796950939065,48.03444495102453,59.56106097567175,62.55852162953498,61.46681028121854,54.597722607157955,44.99060658497123,38.020196834640316,34.38182926126748,31.709193527211703,26.33139257206426,16.03128899647093,3.8549320194932624,-8.204242547185197,-20.89785879266657,-31.858740057994208,-39.942532645572854,-51.33390052414269,-68.46557343423781,-78.88854502554612,-65.21414892173873,-27.115432392958745,14.430377980958154,40.55163401852149,49.600527050829115,48.520116341167004,43.55810892409357,37.52300725724256,74.0,122.0,82.0
-18.429352552651817,21.46851776780336,41.02064735091601,47.74493413468463,49.51495020158741,46.65612064093727,39.603425231254896,32.162833757865045,26.8511258805938,21.90685379704176,14.73912206963564,3.5876882500983984,-11.006003732467898,-25.66324563214848,-39.07183224279476,-54.80554360590168,-73.39276313040106,-85.54914387120762,-75.36124366922331,-36.582572783685215,10.856888156997849,41.21885744900934,53.170668103538944,59.92619537066483,63.43634102568993,58.1397001628798,47.201511403420284,37.22272798654023,28.271572922307104,19.91908607805039,12.345464853395278,2.7112896911073845,-10.384643350212725,-24.473424190025938,-38.00394113770644,-53.55045004441112,-68.5283375428842,-66.07117757915255,-35.50558884202704,7.294365055895781,38.44244315223861,50.46123743202918,50.438512258627206,44.53647927731521,33.72801149921152,21.408561027176013,12.927238395675111,8.831926479147498,5.4127094633704464,0.29338066081504954,-7.71381067462354,-19.51028337060757,-34.687544217623035,-51.412654425677054,-68.98345635740206,-78.86182212758446,-64.29512596557795,-24.260073846830124,19.352785259982742,45.96109898689145,53.64745374898933,52.00407763472178,46.43451146137264,36.80573368841289,25.517331156413057,15.880386179531325,8.323258973255248,2.282417600008992,-4.608565059014434,-14.209992805997114,-25.407235488151134,-38.66587543160758,-56.44988545758246,-73.75399723597343,-74.98926171732649,-51.10841534037175,-12.562152968583693,23.127484299120127,47.31704732853804,58.6305950446139,59.88649777000269,56.095750593154776,46.912559133590875,33.72577009396767,24.775544936972825,23.70892252648364,25.198637979154547,19.147291676505716,2.411164029389628,-14.764185277560477,-24.749027036532617,-35.197198052778475,-55.84059629450627,-79.5553090711059,-84.47481609075633,-58.21494797257458,-14.548752449216492,22.83253669642528,44.52058465082307,54.735810380890655,56.55749852667808,49.67934775832506,37.41045115473523,26.40624703748167,21.31360547985065,21.047889804474774,19.941224994858437,12.91222477088693,0.2671339951440571,-14.065515629014858,-27.754109964816465,-39.980712607482594,-50.464051551546255,-64.01015688203861,-78.57400039446395,-74.76815920916371,-41.41217781359263,3.150910333993769,33.7629964161679,46.28985916636165,51.884463350336326,56.13527965928517,53.529790326709275,42.6990772946563,32.27867312082988,27.026991328356996,23.20803459276835,17.308303685985944,9.843430626510454,1.4037803400377113,-9.974433709983163,-23.54111706764805,-35.306422690072814,-48.083942592193644,-66.72048947962362,-82.91090414524763,-78.82149651080182,-49.30396653560736,-9.656566717745516,23.295358809184602,44.88870721191855,56.728026146300174,58.20794514534985,49.92663657211461,37.09933404965798,26.60148581521689,22.63483821389017,22.757810969524694,18.566692869204868,7.49677067451747,-4.149136110149133,-13.837127539872698,-24.08128605815489,-35.06767571972103,-47.68092536371201,-65.65534964412598,-85.8040220727877,-90.28363289745923,-63.17676662715156,-14.761679257999262,28.938986686690047,52.876391963809816,60.8965107681348,62.731495808457645,60.08031636137699,51.82007470299857,42.57155038347099,36.71001278136132,33.641372139129096,30.621781790497117,23.803537274087812,12.526757512585924,0.3954138236833689,-11.830493787003029,-24.413109447652115,-34.333391599573645,-42.55439553969769,-55.95953133633159,-73.02671883410564,-77.9179801445717,-56.05707489327711,-14.34890193284324,23.945563382376125,44.6540758865958,50.00923123292618,47.278140259860805,41.90421030250222,35.624333853456136,29.30646542646776,25.005012327362312,22.514019764524672,20.186246845132086,16.04625203363659,6.933622921274818,-6.733293553081684,-19.624567738517335,-28.623888257086982,-35.416686317582865,-46.28239849197267,-65.0451493611692,-79.54705412268326,-69.4012457116967,-30.8844557034774,13.673262937864138,40.39860792955461,48.58463284788077,48.88708384170104,45.24511715655649,37.4338539662509,29.72620238365282,27.286525992463456,28.559347153681866,25.44051487180548,14.64052199730573,2.3329144942577917,-7.017540220111445,-16.28813289787185,-27.894781344313746,-42.01007379406872,-59.885722120505584,-77.81317286153714,-81.24906279503405,-55.53071446978455,-8.223569278658402,32.46041215295711,50.98322961177371,56.19102474203236,57.17148906048834,51.00691308445966,38.50873336351256,28.76516478093112,23.88163410615703,18.672528745487277,11.665422960012307,4.3554755924029305,-3.060211876561601,-12.453784228360947,-26.69557755565964,-43.81112361789339,-59.83342246513074,-75.93543712951185,-89.92742542505137,-86.7641659208139,-52.19970010002266,1.5896548896072613,43.86469527469877,61.48825579927726,66.03494828406915,67.25557319525959,62.850693065189965,74.0,122.0,82.0
44.049310101426954,33.52096480368328,22.503749660694037,13.494005104105616,6.483966803091277,0.5193382572313535,-7.118972931019399,-17.334886505756,-28.906846392428502,-43.313079110609834,-62.06990739377342,-76.48564803623741,-70.56087489247085,-40.6437089430932,-1.3574220991292096,31.428072587530306,51.88439982521904,59.76867051819693,59.207420360908316,54.09679867391482,43.20675332837152,30.360293311755758,23.743948041363808,24.29371933544721,24.633281623288383,15.144727823957892,-3.0892414899145955,-18.323928079587606,-27.11820960685647,-40.02318265262224,-63.2136520509153,-83.88671282809148,-79.96463531382359,-46.25950418853646,-2.3083140757700615,30.651215102476367,48.39510633221683,56.140420952798756,55.42513858347271,46.41074866002403,33.81686748160593,24.24937535503163,20.944724292405475,21.10131936072259,18.62560487608078,9.681774365333975,-3.86956975699412,-18.10722736076676,-31.509356641606878,-43.06681514519516,-53.82308315189197,-68.72609666192055,-80.34724750422649,-67.87679108405041,-28.364399534054158,14.096817240046756,38.84502759070264,48.119701988630354,53.36564734262036,56.38354463754785,50.967974549905925,39.23419151180321,30.297641226492132,26.009835338004585,21.754445574420625,15.238828881617659,7.559526324172902,-1.4960231468920642,-13.865397567082798,-27.190897708812074,-38.564253438947674,-52.90843377616719,-72.41723998912865,-84.47798265337552,-72.51233882542597,-37.97732371277983,1.0045179229496695,30.632265449992016,49.28773529685439,58.27589490181524,56.6655987644655,46.376280157214886,33.554515171047285,24.73623816689182,22.57171507245346,22.33637343061529,15.86912838087485,3.913733893838912,-7.0536157542793,-16.664900839462753,-27.220473226595132,-38.38708897471228,-52.21511610269205,-71.78089058031975,-89.73214268922608,-85.8067247150908,-50.27347918006191,-0.5997170835789225,38.010025203099495,56.34771252082356,61.792840131010145,62.5498351234838,58.16874062315804,48.96665565589782,40.476606177408144,35.639948938759275,32.91874410543346,29.194818349573584,20.862802026385086,8.98195033037375,-3.060582138135752,-15.524708730127568,-27.676108579277614,-36.60513265336867,-45.664805693317746,-61.00333270652728,-76.57092506804119,-74.55055230142739,-45.11348134741346,-1.9499445113550036,31.868766375503043,47.45310029450721,49.75614291473514,45.84529219892411,40.18016857527734,33.70470081771399,27.808709727195268,24.16897292607641,21.89473706272262,19.303739464970427,14.037558050296898,3.2539748550305667,-10.768491022695455,-22.636365290116824,-30.619156041457074,-37.78470400353431,-51.07216978661218,-70.61894367413622,-79.8334831358047,-60.60458040165023,-17.276613053032637,23.729923131505785,44.18670461828489,49.1257157709217,48.27167974312762,43.33811503264229,34.90080717733083,28.38237841497598,27.566816854805726,28.46811007760974,22.95041128450321,10.89586056897374,-0.6452352873703847,-9.513059718555555,-19.402933315230744,-31.66621741964895,-46.772289719554635,-65.50455950325667,-81.13261654154991,-77.05682044562958,-42.993838907901214,5.435161237198961,40.01669907769938,53.215910263975005,56.88500157934941,56.323656152871514,47.686955690529516,35.07307569434462,27.06341806792665,22.591107404531158,16.76796718574163,9.539753154728192,2.2604524174589455,-5.424799426783369,-16.021252369746385,-31.584493556228885,-48.58981965037734,-64.37649270494792,-80.61784546762112,-91.6700438730966,-80.10477192365705,-37.314233916481484,16.153653757124797,51.274169300514274,63.432497487068034,66.7078421257831,66.71371806301157,60.299458936680324,48.73773398036921,36.74934774153828,28.661811042297,24.34932072143675,20.605324722573734,15.604944832858077,7.381484544188525,-6.811510642492409,-24.780789850126922,-41.480117483351044,-57.758185181075675,-75.53322964885042,-85.56306235785513,-70.54802511919283,-27.993570250459463,18.051761290003004,43.44758078842882,50.69854464148528,52.66372592455141,50.32422591586893,39.66822244047453,26.223707978690097,19.895597914193466,21.69825173066573,23.36216662592781,16.912472657727026,2.134058492867344,-15.607519191388606,-30.475170197181164,-41.813640874326516,-54.009677893695496,-70.13910810566745,-82.61758295597778,-73.13804499044741,-35.768100159388865,10.995606461589436,45.929939255697555,61.53203415307253,62.080156216981926,54.28921756537799,42.47363663242375,32.205479733218596,26.46130912522661,22.56332124657335,18.8084186691827,14.91275771903092,7.2031001319093075,-7.161604121029596,-22.550517421115266,-34.39247254702287,-48.97418247556663,-72.13504902290502,-91.284452264265,-82.85993518218157,-42.65104740209842,7.984499967875592,44.05408221609288,58.02730212676659,58.275972965201596,52.83784005461188,44.123547954323016,33.496475764415926,74.0,122.0,82.0
28.75187067789899,24.970839267641935,20.084939834334968,13.08465777487881,5.1821432908433716,-4.712213108666305,-17.84963584372491,-30.60107269985781,-42.08679494989731,-58.28291588858506,-77.53253390172371,-83.89707696863042,-64.18996487561876,-26.324747878885542,10.787731409156061,37.04199635929913,52.906550341720255,58.91399073228377,54.366886604528425,42.61293140531337,30.3688285495941,23.47780198517434,22.707870619789297,21.315938511722266,12.665877575764636,0.4742063000812062,-9.826818340817029,-19.60469334228863,-30.385509620970378,-41.911093696738476,-57.300828667580184,-77.88544059227918,-91.76192201811268,-78.47336988606912,-36.140417986303525,12.510554389231253,45.27048240041429,58.739356415307476,62.37966085355798,61.92509799000736,55.805088583184514,46.19965035770441,38.72085862606758,34.74911249255876,32.1266134075821,27.341950994240044,17.60621957480034,5.46212023241432,-6.562757744753137,-19.220358303055082,-30.61685559102431,-38.85331215180358,-49.39626844240252,-66.16036806863923,-78.59466768447992,-68.7106347071546,-32.95315069380614,9.547779989826335,38.17201668134042,49.142218559571184,48.99889931234433,44.29801844663438,38.37890334719927,31.827577676076274,26.52295766787382,23.449249288942504,21.250211974463753,18.212392478393514,11.523986268247873,-0.720999520454858,-14.591398598979293,-25.295910292461034,-32.510560867337574,-40.702036563826674,-56.522678772232254,-75.34818747127112,-77.57864575544966,-49.62011442075231,-3.9319020081386604,31.881300458738412,46.66251196924368,49.255172586478594,47.321732646383325,41.090695726139515,32.54256285423553,27.57036606784973,28.031860028401695,27.771653424018627,19.857241320963553,7.238013732116002,-3.3495322606241187,-12.125194503558479,-22.719976189885816,-35.66143306365696,-51.889325330538604,-70.94722609347649,-82.77615538187156,-70.15942085483191,-29.149570322484614,17.76129964660666,45.63901192824415,54.72255325426949,57.3096589693057,54.722068731907996,43.992768570064634,32.11261589382646,25.680772367583586,21.14114917297131,14.740927386151965,7.423279367910143,0.14602213937418046,-8.02682891577837,-20.05764582597153,-36.58419155265044,-53.21973040186528,-69.01110880309197,-84.9705000398632,-91.47353111910321,-70.60354358395934,-21.469724084800873,28.986247238998782,56.62133161721869,64.72661209492053,67.17646513338472,65.58583680986675,57.29979128129358,45.09164714051301,33.90265120332996,27.16769441183663,23.32484446592462,19.341160228330104,13.702563152885176,3.9363618772785407,-11.877698787078458,-29.840449619422856,-46.044069279182764,-62.865432167980046,-79.98846563864238,-84.4155817633754,-60.43987081678518,-13.617705802215587,27.926813551355288,46.74323247914213,51.49333489550976,52.67897589095072,48.08826932393097,35.56999626399092,23.391565838476154,19.829514579733747,22.655097476669308,22.49539148434328,13.327761948486165,-2.990740838635086,-20.358627048569915,-33.97432111065052,-45.017738223637636,-58.31459849953051,-74.84722311696358,-82.88626966929671,-64.74675539216366,-22.097950317983045,22.923485746088986,52.39168780926312,62.89550721243675,60.476722986893485,51.0793642620927,39.09472696483241,30.130507839194802,25.296909785201805,21.449850275522568,17.778366235141508,13.317595495538251,3.6452423753727112,-11.878438724105495,-26.248008799400065,-37.874540001206675,-54.90073733521408,-79.16759873847205,-92.45112248203559,-73.91434423751986,-27.820481008589788,20.661893116589187,50.15348330075995,59.030190761484725,57.11021578940698,50.61376941481223,41.15288643229923,30.48612788301289,22.516422040385258,19.190540733748303,15.782130712722994,7.70597170851801,-3.1547194306668573,-15.539941541348774,-29.614759632572767,-43.61673683339449,-59.999278534245065,-80.67126200527268,-94.98948973718832,-83.09165618024004,-41.39480944147239,8.045563611668705,42.47167561885811,58.90826234350719,65.59157460412666,65.8967665283094,58.027991760001825,45.53522727603283,36.74213484320494,34.679669760063156,34.5603593134967,30.23111994208506,19.197421699277708,4.33026308091997,-8.851087513800946,-17.10113485305271,-23.483820839294474,-36.14017495055226,-58.79154323811025,-81.02100533903015,-80.41120628028344,-46.36882928050578,3.1673642666781525,40.342802590373246,55.36052289924894,56.7800242347798,52.63719768028427,43.2834346654241,31.216523253578114,25.18470410071382,26.431202670482392,23.6769801192249,12.977407176424673,2.989489305894598,-5.037575972031327,-17.983316740591793,-33.742934700396596,-45.824320935210324,-57.7690431279541,-76.28050614869326,-93.28256929551681,-87.50676756079056,-51.907910208977206,-4.354716018768025,31.73058877943483,48.00737167228883,52.08578846198017,51.49320947208852,46.314770953642075,38.202171762240035,74.0,122.0,82.0
36.5054180712709,30.06401155880745,25.441745660896466,22.80084399768212,20.544319235521,16.818402147937224,8.493435989127345,-4.834564657518623,-18.115188957932226,-27.636305538428324,-34.45236287959805,-44.33792615673011,-62.34737540098508,-78.65403243083678,-72.60556348074175,-37.03143593791772,8.44769362527253,38.12261001791386,48.15002169345305,49.069644395210794,45.99274079470013,38.6127001442202,30.514996858484313,27.272019990706426,28.45085800802469,26.349755295291736,16.34344407990789,3.8115241566158597,-5.877124849187346,-14.924928161457304,-26.22066283223787,-39.93288761376566,-57.31330428631714,-75.85192456955828,-82.2924418849418,-60.67935802575055,-14.78968221813547,28.2861311552389,49.60821409871055,55.793197425511764,57.33820496882813,52.343986849625004,40.20683567075216,29.699578010535202,24.445941609892504,19.49563803084756,12.643494564013356,5.3211724666760425,-2.024985288087742,-10.962998314810305,-24.52084350209915,-41.55637551274599,-57.75308384335173,-73.74202016988608,-88.61444292267649,-88.87228232337915,-58.512646066491996,-5.543556363840506,39.69328485664002,60.26283156711028,65.6696449141703,67.32897703348134,63.848855905617086,53.964582057149386,41.53394572228544,31.472074346463867,25.92178836212665,22.272063562146766,17.94878355731766,11.46074172749929,-0.0663145650979387,-17.125233403174263,-34.69381675706126,-50.675182098655704,-68.0999349038396,-83.41816511453409,-80.74055347504805,-48.23716384521489,0.2288766593223941,35.68838403121871,48.87121006219276,52.10127703985569,52.20790443430149,45.09771968493501,31.503821250311365,21.359760573691343,20.349319837283577,23.334653974351866,20.81770651221838,9.119238038616334,-8.196125770662167,-24.749919727968308,-37.2327391923572,-48.42994723548972,-62.98399157907679,-78.91158132230477,-80.81703439561645,-54.14747858993037,-8.280742410159698,33.45008247973061,57.20450181263,63.189489899197454,58.308347402033604,47.6303504003192,36.00573460501214,28.437888587457643,24.184575303328796,20.352717937785435,16.716810543150256,11.263014948588836,-0.47521747968962247,-16.45214108452434,-29.633098679571187,-41.84598855585177,-61.594536599447515,-85.31516999030393,-90.76081321951054,-62.51875371916697,-12.822136979425034,31.600636597783787,54.453058195315826,59.17323094245919,55.59454927835137,48.138767976926275,38.062470733312125,27.709563598100353,21.17400272321126,18.522266880385892,13.946082159763197,4.705000433349295,-6.519878154299738,-19.52222516980249,-33.666265042316326,-47.900576011383855,-65.68484954074646,-86.33418943747459,-94.94957612266002,-73.49154371525344,-26.62774896165877,20.065168357189044,48.74803939058783,61.51294916001896,66.4120241686227,64.4702212075694,54.534523135241514,42.303596303945525,35.56177297862335,34.75219146549632,33.94600703731375,27.705071431288523,15.055753346255054,0.12422742314504628,-11.750724868931199,-18.81696755013711,-26.144149866075942,-41.795387914426236,-66.14780783746764,-84.14962065306638,-73.72890072931693,-32.308075542929096,16.089435862541354,46.77995175286617,56.64880677485019,56.04334125575519,50.50754987296123,39.74405209182635,28.499048192280316,25.172990119463396,26.552075692205893,21.118573581552223,9.662269776427365,0.7874792231302037,-8.112474154509327,-22.62138579241893,-37.684471101269224,-48.89051429935193,-62.39659110512403,-82.23067173508899,-94.77326625822538,-79.87811696948994,-38.23171798835097,7.999400124892238,38.33220937629859,49.94670501415537,52.308113513255776,50.49489967887353,44.08200441908232,35.950969207799,30.0957969476517,26.87664905313621,22.788374518797,15.375200683480157,5.231980827829308,-6.612797715360302,-18.344650922567016,-28.6329970893624,-41.202844304003264,-61.09775549046674,-81.94649584493973,-83.27177281911133,-52.85129220194234,-5.909257224228678,32.330615025502645,52.29915231814923,58.53659456007993,58.25115651165053,55.483045074738385,49.819010244446986,40.94119188445933,33.17847117094894,29.9172840682846,28.003982496387497,25.169746632184136,19.52501636332571,7.943327884850813,-8.571547871109695,-25.366313094415077,-39.07502501743749,-51.01976198472342,-64.87718164100129,-82.0585077179174,-97.52743201616092,-96.20160249551327,-65.0706412066364,-15.31521381163886,25.42121987267025,45.50535385395987,53.98063891813049,60.899309613628596,64.41172282850347,57.33186034592696,43.22046034437209,35.514055545163636,38.26787532219967,41.670797799294355,38.758925283356476,32.002116206296115,23.037387962481393,10.597392128951698,-3.088794160489752,-13.91295925724571,-21.85702600794477,-31.09309630000933,-44.71262162287397,-59.20503239201115,-70.97743981752544,-82.44773276601082,-92.26495294616095,-86.11866474375526,-52.580047225044446,74.0,122.0,82.0
61.5376885192103,50.41378468966447,38.18875072456306,29.459873175574398,24.827498356506048,21.151909110370323,16.392299193369546,8.78483346448111,-4.5829369453632145,-22.38820348291354,-39.36603555426782,-55.47350746735177,-73.26170668552001,-85.3283103233785,-74.37817011874472,-34.5729050192629,12.82301390904851,41.41860261050832,50.23423421655634,52.53969984671941,51.09033380608565,41.48424292323386,27.765480303853234,20.170217845718287,21.236057281519997,23.50550994720311,18.324625972622442,4.421668811097903,-13.316184335269083,-28.754104623838767,-40.370613871102634,-52.16082963196828,-67.87663520180152,-81.81685088902208,-76.16612136194485,-41.84520668613411,5.105584999245823,42.37952790700831,60.487665103750665,62.60262508086192,55.65436164146023,44.090770625680484,33.30565479194485,27.038020134468216,23.076683241707897,19.288025408062783,15.533374684032188,8.630499520386845,-4.999053841597234,-20.715255557525975,-32.87853168471008,-46.5320951706811,-68.7785296157104,-89.88707091680138,-86.0431936108972,-49.231631004228625,1.6552080054361973,40.586526459550015,57.20241195571958,58.67537175114446,53.77315778558299,45.43697030947755,34.92881601369618,25.281619833519844,20.20633118445532,17.667304735430832,11.669220740167198,1.574137977789548,-10.042791206152826,-23.612165229144924,-37.67689978542769,-52.50496829370732,-71.7217092470841,-91.03451511099877,-92.22134044250751,-61.607541370134584,-11.944863283774275,30.425582383077394,53.661385818680216,63.52590583327413,66.67941456553952,62.31575015038354,50.831251890840676,39.590330679692,34.92206516824297,34.8170895143214,32.84876648058197,24.60532087126842,10.71720726886633,-3.8049441641312627,-14.197691340074964,-20.527827204876907,-29.552378234523168,-48.285869856837614,-73.04567105943376,-84.75825657372509,-64.25369533544361,-17.664380622912027,27.361630367169454,51.382603349063956,57.11473597826074,54.94494032853261,47.89597035797721,36.121374360321,26.538346283861927,25.63242104975059,25.992746616904522,17.986586926040353,6.6741822283562815,-1.3936224637155727,-11.756588396100625,-27.29794191988253,-41.20992131062699,-52.15909429747458,-67.69215375017384,-87.63640438848827,-93.80672196937618,-69.85572603622573,-24.194225813197498,18.89466093098811,43.27805796217769,51.16178034255825,52.22930847185917,49.07322213169725,41.70023537059595,33.916266182737296,29.00512143015337,25.962131302247485,20.99809448258051,12.673063275533426,1.9358046336796482,-10.128022243746257,-21.415622549834016,-31.73827413719286,-46.151612194838314,-67.76202795996348,-85.30812432319411,-77.58792006154006,-39.76073426905528,6.8430187948140695,39.93092097609554,55.16966566966024,58.85787822727075,57.656923860073334,54.21946444305413,47.48707572677585,38.30909577563905,31.832713208149634,29.399080558714903,27.31009835249208,23.989410763369346,16.852225753528415,3.5011948301645277,-13.608691365061098,-29.686163883546346,-42.53573417250484,-54.7001949658382,-69.54500394152443,-87.19375867419609,-99.69705939212685,-90.35126782868885,-51.41408478433158,-1.5839854602025432,33.180685028229014,48.55643406184951,55.960740317642845,62.63821601332829,63.59626711887504,53.429541565969224,39.82155658426358,35.513553620048114,39.7016526899665,41.48240016287291,37.02384997765178,29.702571218104765,19.79897255900816,6.562835926187571,-6.616994184366462,-16.37179138968596,-24.16493275330064,-34.60908913164705,-49.07317458740504,-62.8673417780925,-74.17150054692846,-85.85710519524324,-92.95672110323461,-79.15479945238236,-39.241594792634245,5.77746968243264,34.561814503308995,48.41410797757062,55.63160374149727,55.519781427788324,47.92571272622196,41.10589316412202,39.2584532439679,38.79546089076169,38.45238773292151,39.313231879163745,37.48445271741174,29.421776223598975,17.858745548383656,6.605952171625894,-3.33473149899675,-12.203911110804697,-21.688328087350193,-32.41736475749317,-43.521744877674365,-55.764709950267715,-71.10280355497288,-86.49399058414495,-89.21992272005735,-67.04491269780898,-24.745995792046187,16.407589318603822,40.11115706061427,50.69332960976378,56.39981857976772,57.438119223402296,56.65063046014344,56.38690907113905,50.911444587127704,36.03528752212332,18.300137861781312,5.59242812962479,0.3591576143530875,1.1962787638153478,2.2510891809564915,-2.8391625161508642,-15.594636600906961,-30.669469337045662,-40.41575136769211,-44.170091209283996,-51.41056494090439,-68.40661928064762,-83.81475969830673,-76.57532707605732,-43.112064662226736,-2.0227688157022405,27.34414290563854,41.556035956937286,48.216465018317166,52.597416339043015,52.98401093600783,47.68965449547322,40.81640164326173,37.01105585698405,34.90995320412919,30.346104990061882,24.449843578264883,74.0,122.0,82.0
31.852503196155556,23.28342272444633,19.48539922196919,16.474494448243046,9.022537473961131,-1.6425494491435215,-13.759847711877333,-27.727739126400092,-41.71563382602722,-57.528041155373714,-77.88327269670515,-94.2011453346781,-86.62763516510162,-48.03117035601425,2.0062628937227256,39.05728168595912,57.46200368000707,65.04734169346638,66.30600182990464,59.50658409704727,47.15587723072052,37.493038382476634,34.69196597621878,34.70927940991076,31.19387912628762,21.000834432550334,6.329736145290074,-7.358713964707522,-16.2537190469974,-22.45669877645456,-33.84482501238025,-55.39572619615175,-78.87239730638467,-82.48152509504543,-52.43586764582808,-3.2232672922980345,36.71012850563765,54.40974640462876,56.99082717065116,53.46300387706209,44.82782446232301,32.672575944935794,25.422855187281634,26.220086709268994,24.60267471610837,14.566756849392203,4.074106553115816,-3.7957979086374065,-15.924359211068301,-31.786202038265746,-44.41072055307903,-55.863036573431984,-73.50720385425967,-91.88407901543007,-90.1309934594476,-57.90554482216699,-10.440112616842628,28.091755056552415,46.79186209805849,51.8795856709876,51.813381722819074,47.26132745278089,39.290611998169055,32.152799303671685,28.09414145941176,24.864589809448443,18.909475218997247,9.775094534871283,-1.4837645525742542,-13.567880033968857,-24.361052371105654,-35.18989128757888,-51.808756435257045,-74.17804523196202,-86.43852048043448,-69.1827247716021,-25.941140577411346,18.321533307987877,45.97535199691314,57.08091699254322,58.79796581506302,56.907017783880136,52.66618865051432,44.909406383987914,35.93530825061161,30.870086465242423,28.876852392880448,26.52999305570251,22.49248874143154,13.620880055966822,-1.2709659659580148,-18.541844915998606,-33.69751408781881,-45.93753405459032,-58.62177084523549,-74.49988906117373,-91.97578591052562,-99.99203769209619,-81.81756693837157,-36.78909878163114,10.705085772629339,39.2151662377269,50.9774062372838,57.98214260968114,63.90218835082777,61.748043060534535,49.19146683108517,37.31259930496801,36.30334139507615,40.866647123542364,40.715226078338596,35.088186854167176,27.195377012585897,16.244110902631196,2.5334633603955687,-9.820644084942776,-18.644173241105634,-26.71412398566403,-38.5169048985991,-53.35038664112927,-66.27437126700512,-77.45530125820638,-88.98686246499312,-91.83037376314394,-69.79086940990041,-25.47948372180158,16.123485198332762,39.62266123762604,51.04498633380239,56.52019343283198,53.834208034412,45.48289784600976,40.15398495542155,39.154215897861356,38.59785963530266,38.64013881838011,39.324204130306434,35.77825827203929,26.22406871002667,14.490573569864337,3.5893822364599433,-5.956112382124798,-14.80121944146771,-24.699412395035722,-35.602559472109334,-46.846036884014616,-59.844659484514644,-75.93677477983263,-89.30061925010156,-85.57044769318021,-56.144437556018964,-11.679241552012614,25.21759693764327,43.99075398396,52.75148640090757,57.17602917166849,57.16164396871081,56.641617987398156,55.69680397300149,47.47395010218586,30.757371684855364,13.9190278871971,3.2982780439520085,0.1584902411006058,1.8079806715731837,1.6035397042038741,-5.85173379882746,-20.079578681306696,-34.27709261123491,-41.834177821908874,-45.39711493673281,-55.432356355483,-73.99089646699319,-84.73589364760869,-69.05868519166619,-30.965966021284697,8.157840362860442,32.755503207771405,43.88551965716183,49.688284614860024,53.28246827895547,51.959940452101435,45.59045263128654,39.32879998735296,36.44254773673547,33.928629178937335,28.58965364865078,23.035783101022645,18.647839785857723,10.625808366348899,-3.1882112851360964,-17.06514438235645,-27.866950501396563,-37.91941542388926,-49.08927125464556,-62.45931954110883,-72.72196866980006,-64.37362374242235,-30.004246473067322,11.459634754054676,35.47136412289045,40.66630126536835,41.07055798388942,42.41302575702166,39.467566873881786,32.51611978172559,27.59752762564645,25.91680114837628,24.743987524167153,21.003690315397083,12.898437853889174,1.8470079274623499,-9.268826357072482,-19.259181120958594,-29.455525260817762,-43.67204079090688,-61.280120897005,-74.40687779417811,-71.36672835753609,-44.67398662715714,-4.153412747249696,28.991061368928236,44.68887158839619,48.17963443277325,45.64952408395497,39.544405879093574,32.860712102218855,27.50007307170535,24.073600607898793,22.22840707391903,19.46917269016874,11.88454720078205,-0.2750251005068564,-12.742379921447196,-24.793194338094466,-40.70336195405237,-61.97241987231775,-81.95660141450112,-86.62747490472579,-64.93054657257717,-23.391642217503566,16.477145590093862,40.0254744387383,49.65093739934037,53.159627098573004,52.469407828226,46.637203434407354,37.95438827524403,31.22255997049015,25.931596713680115,74.0,122.0,82.0
36.966453063621,30.6802872238298,27.263530951866937,23.51095012747762,16.547255787765913,6.702620993095289,-4.985864199313446,-16.874552985347687,-27.26908527639149,-39.159070310243564,-58.069884726476914,-79.79381767022558,-84.92583491102889,-58.43891502098496,-12.110401007323151,28.281637622156428,50.59842019067274,58.2216172098409,58.47004137981098,55.98087457797075,50.79241384932907,42.19660827916003,33.94671571558441,30.179548952330883,28.296923923423186,25.63601141371036,20.575049354953663,9.84899937961724,-6.245993692468634,-23.273459606094843,-37.429883067230364,-49.387021359339286,-62.83130882106364,-79.65541797801092,-96.027300255592,-97.9886077865144,-70.83583861940774,-21.98647628120586,21.214642642861985,43.79420721255189,53.06479701271176,60.00408098596326,64.45358012717998,58.92037749431811,45.01507361939458,35.839234682130524,37.59462753668227,41.55140085172263,39.46431723414371,33.007588432305376,24.420422190564455,12.423898120836782,-1.3654454870219674,-12.692538726172504,-20.837838567578746,-29.616122172858052,-42.71695904623721,-57.42000266690633,-69.51106332320313,-80.85597819745392,-91.46596474752594,-88.48385078937818,-58.37976311547683,-12.030514244114423,24.780980778781085,43.69526583925206,53.25685894512733,56.684054965104615,51.61295745142477,43.36486875409385,39.60277475015256,39.04367136550779,38.449179444980444,38.93237973660206,38.952119760518286,33.52522135550185,22.856866712491875,11.210883654821117,0.6888768937249518,-8.504650741197933,-17.505364440794693,-27.799321934466896,-38.79858389936054,-50.31103128257419,-64.2322661332625,-80.61643969434682,-90.64289584417054,-79.63244105615657,-43.89213884627372,0.662248934617433,32.35705970909424,47.07869801558084,54.5011077145249,57.52586916465805,56.87797836129913,56.65922093481639,54.354446559597605,43.243589122600135,25.49966220282722,10.090679825793202,1.6496101319519696,0.3917348179776934,2.2531724562855064,0.3120028945443236,-9.47811797232548,-24.563329624342895,-37.26303194119582,-42.85073837474882,-47.22494935025929,-60.30836904303205,-78.9535690089287,-83.26747525626509,-59.545877083909104,-18.783476376921136,16.99750339655886,36.997445689508375,45.81314767921881,51.02303622713559,53.534397802266,50.468972427012915,43.51600686897742,38.17404491152699,35.90887285598141,32.655571144911875,26.826388544217668,21.775730249681597,16.96049661653233,7.075247645267431,-7.485737741309466,-20.435022997391666,-30.74245042643931,-40.96162912334889,-52.751810615458865,-66.29040848079248,-72.96613693206037,-56.761764516222314,-17.437379375951117,20.786249244438952,38.340894656945316,40.72459313593398,41.50809661237085,42.215777883669766,37.59027151699034,30.705471213345785,26.870765707756146,25.670376972713576,24.045854966241183,19.119028687782187,9.868886507524133,-1.45247968125403,-12.271488465724762,-22.030062738408326,-33.02376739406186,-48.64642776904971,-66.01145902011753,-75.72025601350244,-66.04883629771919,-33.471295078641916,6.992688702739515,35.27240520515245,46.57715100051795,47.93565287591355,44.138749725860066,37.545100822187706,31.138921317078996,26.30058310893099,23.434979842915002,21.707436969879943,17.88920621833973,8.667690894892475,-4.002043814683876,-16.127405795968325,-28.796898314886118,-46.42481934907011,-68.39726126838599,-85.56768776338221,-83.19612892537138,-54.144438558679504,-10.7293039168575,25.128930057720982,43.84469410975275,51.07673003560347,53.445229679331916,51.30661419759994,44.19543372571519,35.680493510543386,29.73917158238452,24.043372280888104,15.12902263125153,3.0207293650666456,-10.194877550848013,-22.057041547458986,-31.640305681097068,-42.06498982186667,-57.587151493036416,-77.49592346437416,-91.78577402833555,-83.49624857449406,-47.282091548834195,-0.5844449891464182,34.38073712129652,53.74905583007717,65.72560527555665,71.7994769934632,66.89281004922934,53.68765507856262,44.025330796963125,43.071452248172456,44.40496287205985,40.9833428091834,31.28459115402851,16.224832457151443,-0.09022644935225597,-14.084983201318886,-26.550906874885634,-40.350617570183516,-60.18541908401173,-85.91817333473043,-100.76210644537974,-84.98884416978096,-43.240731352249234,1.1890936952945108,33.01327279810163,53.07448110475484,65.08343286360933,66.21741032618263,55.88593020403513,42.510602858277586,35.14812143326671,33.65315916007781,31.367067582004154,24.257611959664732,15.549014826211172,7.654603959033727,-2.9830276620240324,-18.468241844015303,-34.98668591923899,-48.63086729379097,-59.67910603923767,-73.72590109792507,-94.01158592842143,-109.12008061642592,-97.8233594155756,-53.752270954967514,-1.2485871665870034,33.82740493915092,51.129049672264976,60.75110532741909,65.11558589132595,61.90894910550283,74.0,122.0,82.0
-45.48968161236519,0.4691995141180606,31.81271174098828,47.05096740529055,55.006953630341776,56.06504868945699,49.103484314850675,41.70414103539112,39.32878941009789,38.884105776402706,38.41647318214168,39.22151123845366,38.07712284808086,30.803782419627822,19.432557126949487,8.034230837766456,-2.0919096606810252,-11.030658233446458,-20.338551610700744,-30.953405752474595,-42.01958157061713,-53.983865446335386,-68.89090745789265,-84.82073318349596,-90.14869152062573,-71.48476060918964,-30.851681179421174,11.786586936778557,37.967705059798035,49.64003789962079,55.89449405604101,57.52335544725973,56.69164659801695,56.54240006522813,52.20108622503992,38.4043741774008,20.483506465075514,6.866742850717123,0.629706127076817,0.9098325095101142,2.358738032581148,-1.6805649255466253,-13.586073964289913,-28.83058456264254,-39.57212771786828,-43.72818611038034,-49.87514906607946,-65.78618243301399,-82.6770241361623,-79.26284423900171,-48.53446908734024,-7.1083328551615494,24.40507558722273,40.29131686824455,47.49533253420461,52.16256899476277,53.28065760943829,48.62162481940838,41.60862963062943,37.322594886741356,35.27177423133403,31.12030530670048,25.16278141046302,20.579938278897526,14.802184936822531,3.0791177966462397,-11.593362368317294,-23.562014237203858,-33.62435186854181,-44.13207242526157,-56.62346767065633,-69.62381400705631,-71.1868731606116,-47.01740042212563,-5.0021907052016426,28.181667688283767,39.89460758776803,40.75144263690018,41.99892418658592,41.48617984963682,35.51440946738071,29.199781265699457,26.376187866740587,25.38662753985146,23.06291173541182,16.844225138166223,6.667177570540156,-4.694391772870788,-15.170270997338797,-24.883788439422794,-37.03180949964472,-53.80836938414299,-70.12339101419823,-75.3708413243055,-58.67073731810278,-21.56884032200995,16.994666247945606,40.050069550933244,47.669888537226356,47.27808446806178,42.38035301073822,35.580009547404806,29.550166994815857,25.273593158935807,22.9088182839167,21.019153969473567,15.812987120454121,5.146044343608131,-7.6421111532439845,-19.52759068318658,-33.25578357452775,-52.564225378265284,-74.47035353065257,-87.49956610053191,-77.39021353727804,-42.0823257448329,1.1993950044455166,32.23612799848375,46.70728871648543,52.151135384830354,53.35679116716668,49.695888425008576,41.62562513638264,33.681188236374254,28.278430086105427,21.857568745448848,11.891343417046706,-0.8018172191040536,-13.851101861790914,-25.012647769011192,-34.33220223059162,-45.931164236344245,-63.113191353204336,-82.9298390062635,-92.36016960427366,-75.51995059196227,-33.707168141203304,11.323014322906008,41.24909786723365,57.679359185900964,68.29908913104958,71.65131111666979,63.46644029640882,50.04531251285064,42.98306737105182,43.635814080220065,44.05050070632318,38.8235452080516,27.36823618711225,11.405895425723573,-4.407859562509369,-17.74012699176389,-30.231130881667394,-45.24177718537408,-67.41514596795646,-92.42086155772326,-99.737475612487,-74.67315668362379,-29.67275267524138,11.884352654154014,39.75254306074974,57.39465063895293,66.71215584284718,64.19109383387456,51.820560824158164,39.575655961267714,34.35337073910658,33.38734882922197,29.775338841147605,21.682694586970257,13.259745720630196,5.071078514411647,-7.042602502629229,-23.36864681835286,-39.3033000249419,-51.93900187724981,-63.105519411285734,-79.12420959038606,-99.81167851529679,-109.40141884951396,-87.88801746523384,-37.92954721968514,11.16769685911398,40.16997786727209,54.39550107538535,62.66687721943048,64.9947430158543,59.75447687302681,51.30301971091465,46.133290912533305,45.673692964828874,45.211299018174984,39.22127908420626,27.968878217319716,16.533461093379,6.866801460227771,-4.238048719046663,-18.531437758791874,-34.84034416146186,-51.402812169021395,-65.98389821080667,-78.54907223930194,-92.12293053769518,-103.81312832101307,-98.40040781303051,-65.40497106431054,-16.993543428747063,23.061806931328036,45.230106073180096,57.81675332604188,68.17158187172085,73.22653950238384,67.84958617594792,56.86773736793102,50.88013718584503,52.70354307605869,55.06524840260084,50.64109260155658,40.79828911594077,31.043217225496228,22.102810733991486,12.109915915590323,1.774203006819528,-9.690726330170108,-24.619704722827745,-40.16848093124857,-52.46616358576156,-62.68617674636533,-76.09760411686786,-95.28697998623542,-106.89921754681417,-89.4945130249168,-44.774802317939475,1.642966126414721,29.855412770573395,42.34002080341318,50.985226784872395,57.407937988284935,55.802039624340715,48.37126912936717,42.70200769751543,41.999299295435094,43.56820012323782,41.458920528031136,34.51568588042396,28.309602736017265,20.99069500394176,7.539802437942635,-5.966849572548663,-13.980683241085785,74.0,122.0,82.0
23.665539648970462,19.30693612236764,12.078954923867801,-1.1868648688217591,-15.411596269714558,-26.5295350468093,-36.54863316615232,-47.47686800326179,-60.6199419194532,-72.04306088897658,-67.08424517681833,-35.629299281232285,6.578193859457167,33.60027235126997,40.551494534256165,40.92390892942569,42.35287661674229,40.21430192059745,33.43158502098052,28.02867242353551,26.04002686031056,24.98741233084001,21.739949950240817,14.213934018266238,3.3749680107256093,-7.8486662453034635,-17.981804931550347,-27.94214260407338,-41.484223750749614,-58.96583951312908,-73.3234235678266,-73.10551136592846,-49.448305761165216,-9.56244879154736,25.564465119110967,43.491944944166,48.13895155289557,46.24333667153975,40.45955276987837,33.69486694489557,28.110020390989394,24.415575826133445,22.442933099793784,20.04536262852594,13.232662623452583,1.4511019492770107,-11.159290242669288,-23.071671633915997,-38.23178677911711,-58.97777093551113,-79.83245466235175,-87.41634040857157,-69.33087227070246,-29.331793629774175,11.976670147808377,37.875290063313265,48.84948316200129,52.91379891374053,52.85175038767055,47.68056409125836,39.08025865593626,31.949054754031824,26.715922667687277,19.351732565457006,8.416388844436787,-4.6521268751151,-17.33871819131192,-27.777797495601373,-37.22299628811947,-50.30104210868908,-68.93327430513052,-87.53300055195747,-90.61450133970791,-65.29687972597021,-19.893317161227326,21.80503167083387,46.95458664176304,61.20690842874336,70.29228193361716,70.4501948407829,59.5560874171476,47.02117189350664,42.65506485908823,44.15064685616845,43.18942869248424,36.137838233942865,23.044721934024246,6.62113011167738,-8.487896997677815,-21.32121900099358,-34.10033204416171,-50.78550608410351,-75.02088168171447,-97.41223751956852,-95.78876434626301,-62.62093336023143,-16.50070504693311,21.33235195430807,45.66200177443334,61.072854462649005,67.30553778542966,61.27618042872412,47.79162871701537,37.30120343005398,33.943608454526895,32.861371499679265,27.75671330607126,19.114518730803912,11.031476995182976,2.125220342033364,-11.494082102446482,-28.21704920225529,-43.31764506528212,-55.0798162582825,-66.98068305333939,-85.03187635731854,-104.73010906622915,-106.92464843136838,-75.3509087370929,-22.276763307177077,21.710702692176817,45.27229411903777,57.24161377100735,64.0947941966657,64.19220617452707,57.31443716641931,49.282074425820525,45.626437871596025,45.84374587824062,44.17616404121718,36.32077171105972,24.468747198089055,13.650776618395618,3.962855598708273,-8.066235035873389,-23.10648200762025,-39.696888591687504,-55.89703866293171,-69.71181669620009,-82.26315400461095,-96.18235357776118,-104.79472761674741,-91.62456630375928,-51.931649837876684,-3.7051300935133384,31.146139537143103,49.33782250522694,60.99877351289781,70.49073718117619,72.77420542510164,64.75855264668515,54.27478113157179,50.78447800815341,53.77346183622261,54.59864128051911,48.096815273100646,37.80729582614407,28.488688482900525,19.332725859468372,9.113575899534228,-1.2831389245002787,-13.651522379740396,-29.290380780713036,-44.10244978540083,-55.45891306274921,-65.9537305470235,-81.2493000070147,-100.48043620269362,-105.42173498279799,-78.47880606230699,-30.289418625387583,11.967518359111665,34.51848496186015,44.87347307164371,53.34309639521996,57.89187144988477,53.90757933976741,46.28782114753445,42.009233569375304,42.45878236304931,43.57841478253782,39.72681514535975,32.48928130186507,26.658253122104938,17.677929487219917,3.204056081930852,-8.776088364461074,-15.945325685103219,-25.983813297402122,-41.521059415148486,-55.333865063118665,-64.41290008684157,-75.44909354952878,-90.51528689367555,-94.1124460507179,-69.90294342858697,-26.783433044902424,11.069762908026503,33.570172880247405,45.18931983216362,51.91435786220544,56.402549554119055,57.49907714674166,53.43939984130577,46.00651454178332,40.36383599894511,37.99116854314499,35.80423091683273,30.790581244658245,23.35978637699185,15.76911190609942,6.372899632440112,-8.875831315102372,-28.011057388922083,-43.345869700416884,-51.714962097103815,-59.392772593203816,-73.56582174801348,-90.39277040226484,-92.80212481550734,-69.13985462843516,-28.9126943823509,8.105991925321556,31.360461801077157,43.15623246384251,51.33347284143482,57.77021969467387,57.60061165740854,50.743784975179636,44.36232326488529,42.79298619748641,43.43047311768381,41.82987114853977,33.81435505850708,20.520128426292107,8.275782350579066,-0.5646570251000245,-10.29669578721795,-24.692895293625625,-39.28429532972834,-48.08120355862387,-55.89247969872133,-71.23720723977353,-83.83052507716476,-70.38439329909903,-28.96651980510943,14.958560054238196,39.83456512559459,47.85976707396213,49.852082631593916,74.0,122.0,82.0
24.948345985485787,16.530272654365866,4.7550363241431475,-8.465561653481359,-20.61986373376577,-30.42741128861659,-40.44172189327315,-55.177766269862886,-74.83182447469461,-90.83340498959436,-86.33693281423572,-53.27333175004834,-6.480154633090905,30.75658905247612,51.763392205369726,64.38565231726264,71.5301483328571,68.22643409546473,55.505272977749854,44.77830615964997,42.860095560848194,44.412403143857716,41.80144678797631,32.932298742784766,18.421120406810566,1.9800983751665369,-12.358152835955453,-24.89063324305051,-38.28000598358907,-57.05485211438202,-82.58920924097099,-100.28802901019858,-88.99702857526323,-49.48219440012432,-4.147644873378649,29.58075447132426,50.87885980318853,64.01237682624784,66.80997280531378,57.69061242830135,44.06626508917018,35.6873319347694,33.73559431318398,31.943601629416232,25.411626325739636,16.64398260712076,8.756022253344971,-1.2631096369698145,-16.227839854063017,-32.903532596457104,-47.02197954151046,-58.19824169959327,-71.44777660924294,-91.19026880951779,-108.18380256055994,-101.40923930077139,-60.8630371871964,-7.556969617895986,30.399343641057786,49.443731150551955,59.72806031695669,64.94197662726152,62.756601381937585,54.78300274147809,47.66933783662955,45.48448928931594,45.84398183455538,42.57521469922538,33.062327684095244,21.097830002627802,10.89125728859052,0.8348967022878548,-12.158174636967136,-27.81099756732106,-44.5271542268642,-60.168181906584884,-73.31185534178954,-86.15847714763706,-99.89176897096584,-103.8691781426031,-82.45820844021331,-37.71553669296618,8.31551989672621,37.738837305020894,52.95924365246168,64.07097961125694,72.1964002312921,71.36871931787165,61.45191312347809,52.342583233670275,51.292706709934286,54.63265341750815,53.451980776777894,45.22726396840517,34.95024521179107,25.944894500819075,16.450269487362974,6.130396181222255,-4.5034355808034245,-17.939119976034295,-33.873741997121286,-47.7117675363808,-58.353104642775996,-69.65664986476334,-86.8726183474662,-104.49458218311705,-101.05142763880457,-65.56896524440884,-16.408418324783245,20.483064545438253,38.149342541460605,47.35740271458255,55.39298155073461,57.576010290278646,51.70140332660105,44.52636349254785,41.74697291736446,42.993364776259355,43.11350960021343,37.67541875962693,30.675342871591663,24.7258119244588,13.806350687696183,-0.868705675867173,-11.098564627071974,-18.193218340684066,-30.132110020994283,-46.03080786857808,-58.27361233955266,-67.0351209648973,-79.74754051981913,-93.72847752609455,-90.16093134687846,-58.31099532661649,-14.44628387812396,19.086888307909284,37.74126224189516,47.43591542626071,53.43801162278768,57.16915077005026,56.87883095030721,51.42161764609606,44.00467951865595,39.432816660208914,37.509656968273354,34.71163245356882,28.77427486988855,21.14647535292093,13.44550357440154,2.6500393679482386,-14.30566353453941,-33.15650623745446,-46.34686077978326,-53.595587931240026,-62.68961149150649,-78.7460665509559,-93.40893387914146,-88.63711811039688,-58.33211424016017,-17.151612205344097,16.34766739525408,35.6020388635003,45.61474976883385,53.5445192746502,58.58709217806665,56.06195477710483,48.51072212641595,43.43858799143884,42.94252396173365,43.407024053212155,40.28093406926952,30.259574142800066,16.62790690491327,5.465763029682613,-3.012702676224953,-14.004900422535194,-29.257257221768576,-42.46732991026542,-49.93125522961837,-59.511248423927896,-76.22012240075308,-83.36754533244826,-60.48713844820046,-15.19498534021992,24.43824903802712,43.33711465277737,48.7587488051977,49.88795656096904,47.676166982462334,41.95330687758451,35.18753920793248,30.031934542079444,27.345901360141482,25.551986385660015,20.60405214492133,11.680338673867027,2.8910303529530537,-5.9503882069172445,-19.055296727277067,-33.48350781833473,-45.09469160466829,-58.807378247342776,-77.54047451457656,-88.28765000237077,-72.04882503824504,-30.915588550532817,11.179068153492178,35.79563468655892,44.98532060936048,51.25435998228911,57.91151556907458,55.82448801156181,42.6101408267842,28.59655310216102,22.394123340693138,21.194055953645044,18.500774897961303,11.590572118611933,0.4312116941595568,-11.976743788009479,-24.619995897208298,-38.63077950706261,-54.491665384229904,-73.6738602026047,-89.94434683343661,-84.54365464411202,-47.823701025376835,2.23530522602236,37.76800038670038,51.43090880687766,54.67178606041023,57.450314684403466,58.6695877951288,52.42321031892391,39.727537509761845,28.72541119312962,24.4337193025076,21.772727891976967,12.981713143381931,-0.852207339062607,-13.604000768675693,-24.479759129070768,-37.80083910152984,-55.648279790021824,-75.19919571813857,-90.1907537097375,-90.09654274667565,-65.63381299847394,-22.512757400685267,19.059606330140262,74.0,122.0,82.0
60.79454615349416,52.3479355918502,46.51190918567241,45.58684429704979,45.51279339727104,40.40302631532007,29.59486639374352,17.92481271870502,8.153019027908629,-2.569642139168341,-16.475998708324653,-32.6083445541331,-49.26648038005543,-64.2011071649288,-76.88277953676786,-90.22159217456894,-102.84031325339306,-100.68758150083556,-71.18750680615229,-23.4276001881438,18.78824068949961,43.093121296877165,56.31745429181766,66.94891879719547,73.1102059120141,69.11778541989231,58.23878737822653,51.16493146589988,52.209529919012446,55.06013466375009,51.65956054810025,42.202087426926624,32.24643195755545,23.339191550059272,13.489083964768938,3.154776079946715,-7.980654598351366,-22.47690306991314,-38.24712058558075,-51.02388959365706,-61.2813818212194,-73.92281909814629,-92.67402422158669,-106.67496051049278,-93.77115476389821,-51.46794751389901,-3.7019760918931754,27.25996181366432,41.10969971410671,49.84830216789682,56.92606398703246,56.51027480973628,49.40452025562971,43.1744330498779,41.852491352707794,43.43994008423731,42.10427557812687,35.503695987998064,29.039587851717393,22.30728718488073,9.556951343253491,-4.48423300627288,-13.10163601201251,-20.9249313713663,-34.66756347413467,-50.16854967893001,-60.85758328699634,-70.06127591683034,-84.29104176112527,-95.42091439589223,-83.62914776750978,-45.6744418267514,-3.1264210850178324,25.79948518305849,41.176367178734296,49.400652177810976,54.795587403478606,57.59709398501044,55.79339585039772,49.22318505319751,42.28465744834824,38.74455882019811,36.94652718384183,33.32558981268069,26.614201144740402,18.967266623659008,10.868411665115744,-1.6479856339179677,-19.92199780759518,-37.772043306033936,-48.7884016319513,-55.64791639157364,-66.66495723884786,-83.89594510331388,-94.71086881538764,-82.18020582119179,-46.59457867059572,-6.126228157493924,23.320355931172305,39.0547714607505,47.9661092890753,55.54855906047145,58.709242540111305,54.06292250158904,46.53218824733511,42.93867443733219,43.17060664200997,43.08606822372135,38.100917532512234,26.38061352236121,12.989531356297817,2.9224265173687254,-5.694477346013826,-18.13985843658069,-33.63319726867562,-45.071359084974375,-51.966210570821254,-63.906806798962094,-80.44745738512053,-80.1713051645843,-48.561247547924225,-2.006944576296532,32.00959345086348,45.71999732783239,49.37036212149412,49.644592390428926,46.318282190770795,39.95831187840741,33.46285266883402,29.008890683831584,26.895334700285385,24.610173686331688,18.286812418180734,8.973877808679783,0.5560671539646078,-9.240965184683553,-23.406229231815125,-37.0619898822088,-48.50888701837526,-63.93281533962746,-82.43221375290778,-86.85454736965129,-61.87680085834202,-17.694452874884224,20.375085727575264,39.51260104489874,46.62547236715842,53.43770141940463,58.60451690679113,52.851296831497834,38.07606245169579,25.92239512542586,21.864748284040363,20.75810338026088,16.990437904567194,8.71238198761045,-3.1628992660321122,-15.541147341703022,-28.515857818393705,-42.960100971519424,-59.69248087405282,-79.35812777518291,-91.47486007523288,-76.88147296284622,-33.369100857485414,14.855225664753874,43.62480221482668,52.82739815155066,55.35492267953998,58.251590557396966,57.78154976358106,49.12385457192412,35.991626057073056,26.831415140344063,23.91948584987292,20.02403106728203,9.216119061089177,-4.832357611165245,-16.786759909757894,-27.884893630609195,-42.5413816039541,-61.333537593566305,-80.37827661243412,-92.26137217554717,-85.66138312063119,-54.34207779364564,-9.391723184002808,28.211800559016595,48.21271827683813,56.58688862953954,62.28333929585311,64.06045149981097,57.228353470597234,46.51345856806305,38.13353288648452,31.842569360270016,26.351110630843994,21.81056732482211,16.452016321673366,6.311253382722456,-9.58962592926505,-26.64514374133307,-40.20005338762404,-52.44492150282134,-68.30641738578272,-82.14697579819713,-76.675981585295,-43.04348388158463,3.321662193625809,37.193929403278936,50.421551593347814,54.79915209276777,56.82526819691001,51.02749528526203,39.340175986948964,29.4973141015753,22.7022605313487,19.11006713605294,18.190020195901234,12.501087758190751,-2.113300229798907,-18.946776269196153,-31.11045450068995,-40.27342391337619,-51.162608860714464,-65.89404141985636,-82.26881414219945,-88.35106268193974,-68.86182647959407,-26.641347922645195,16.11340095347317,41.655178432361055,50.737626754913904,53.04732679774765,51.378158521072145,44.986377180456245,38.22589610057693,34.94369363757037,31.74396013287435,24.494955014720222,15.109410360595112,5.542874115423363,-6.0539555379062975,-19.608270361795523,-32.054558932826986,-44.00911538627646,-60.05905428580255,-79.80104226488287,-89.45555401720809,-70.96851463045427,74.0,122.0,82.0
-15.01892350393924,-24.248998158474322,-39.36674368459715,-53.821607729673474,-63.28281550035362,-73.6217169433976,-88.68259812127737,-95.07197209871535,-74.70949474120624,-32.69704154448935,6.908800946781651,31.35282703893288,44.03047021931575,51.159729165602975,55.951451647064175,57.63009102937753,54.27041137630794,46.99874195924069,40.893780043943,38.21149640170203,36.216826737260405,31.650275364673067,24.388997021300767,16.791307415928223,7.903336417733311,-6.487945828669378,-25.508090248007672,-41.74351388272474,-50.84079151901328,-58.08768490040508,-71.27210086894402,-88.55303001969973,-93.93005822155862,-73.66072959102607,-34.47996636711202,3.884419625450845,29.079703807503236,41.94870696886331,50.28014746920649,57.18515170719135,58.108927399207005,51.80807125685317,44.94312618130807,42.77997370310866,43.37384026671988,42.34504358442314,35.29753379826968,22.365525178141368,9.682171628853185,0.5289873949640369,-8.742995236101562,-22.586347079198767,-37.61999246060077,-47.20220864947588,-54.493587340153596,-68.86826294486889,-83.22254152579164,-74.111311304931,-35.30705883581792,9.972333332342714,37.74718464126637,47.31357850888731,49.75213184141338,49.087222048948284,44.687571200915826,37.960950566188195,31.918953265129062,28.200940739385068,26.446277038698614,23.291061133971276,15.690762426367627,6.399897880522418,-1.8823053410684745,-12.975685338961789,-27.683772292159507,-40.38352241157931,-52.30521928536797,-69.44868726938645,-86.14695134061039,-82.76377365365836,-49.988287624494916,-5.087341002751691,27.844654335133427,42.18961160476971,48.34913973515201,55.552521626513986,58.287189655980995,49.04895098058385,33.813979936127296,24.00864651356302,21.574581380549066,20.07004360641414,15.092704246102112,5.506505671933194,-6.76307072590533,-19.156136155319125,-32.53879682912823,-47.4638047456449,-65.22203579430078,-84.49779083821505,-90.65019696767389,-66.59601430533023,-18.522631884293414,25.65280705767809,47.76539131934652,53.71590644586889,56.15342419893576,58.77858613039947,56.14033274649305,45.414344415877046,32.633361234767115,25.53599595062866,23.312870730654613,17.616577435228763,5.171400533006461,-8.583212634770309,-19.8737162465854,-31.620617798262664,-47.65627216576115,-67.0577637572911,-84.99549455783908,-92.76404169488859,-79.02925406130295,-41.833987980238646,3.0290875301303974,35.77328131978528,51.32992993879205,58.33003948793792,63.50555359273626,62.955105084081694,54.14771834115379,43.761639799995,36.19802102527765,30.170589791249295,24.95696129828252,20.5076210282756,14.169658375293016,2.188854845550381,-14.67788763415825,-30.982769157681595,-43.59557406282378,-56.6051301326735,-73.16475496101884,-83.32906603866284,-69.62983698613965,-29.76919451490116,15.247119655510481,42.82996393200281,51.975088898313274,55.799100142572875,56.13228900716135,47.86684287558997,36.11442097302891,27.280950648098028,21.255275173237674,18.785032317903784,17.428093596139156,9.060967008584258,-7.178098127540316,-23.03160700401677,-33.824236577808115,-43.102565684479664,-54.99245630648136,-70.7703024750182,-85.85902123910795,-85.7327622967426,-58.207090832981336,-13.266594623961009,25.584801855348736,45.53316800021437,51.787927371603935,53.05546096320051,49.92917906610433,42.79004330233646,36.938881710322235,34.28452158976572,30.081725548173633,21.838849607675154,12.400466832287679,2.493195192450872,-9.89997113916024,-23.410324568349782,-35.378581779890894,-48.04731746888247,-65.71914291537226,-84.54239955413779,-87.48073062676447,-59.91422800782099,-12.068479350238452,29.129500634919598,51.63899889011819,62.89838938878656,68.38819372308002,65.84194156790609,56.02119205231155,46.02915848817707,41.577356286471634,39.55905678306047,34.01339332644948,25.963090134914566,18.540175844902453,8.692049358669667,-6.362149892151477,-23.782352113325604,-39.814337866104,-53.33111814918652,-67.62677316726318,-85.87902918705863,-101.03529081086691,-95.65774150760379,-60.97797896369582,-12.79610070543937,24.175657876850096,42.791892649681536,52.05029480513516,56.994242426250096,54.84414869433564,46.354614207219704,38.461486948107904,36.28403648824629,36.54202386006847,33.53209310484339,27.76534161823375,20.765293762916297,11.962934431352322,0.932386528211187,-12.721425601650505,-28.251794417944353,-41.36970104473291,-49.9472074986541,-60.50358604427779,-77.3103573040907,-87.2005433647551,-69.05295906785956,-23.545458642351996,21.846880777108858,44.87383857125673,49.94049188585341,52.76484828967202,56.376419964373966,53.230897294446905,44.084173925849804,39.12720593678346,38.25482444898894,31.843431696302034,19.925634081035852,10.27094933865221,5.274340678796404,-0.4754821394657449,-13.285156609406586,74.0,122.0,82.0
49.903711898362516,48.19761960486159,42.84898616118049,36.03506691627105,30.577831389796057,27.581815892278613,25.88331910850255,21.548452388054816,12.952054217263276,3.973598518930072,-4.581057206936459,-17.07960868916905,-31.725666909735253,-43.596196986119686,-56.62381254549763,-75.04897007676973,-88.11185655984393,-76.00645470637484,-37.043539607327006,6.3821412517972975,33.63987249295158,44.190430820442174,50.28735239200881,57.30845695497948,56.85637487958029,44.70423051900162,30.085295267655766,22.77461979565862,21.33332993520763,19.074185132528193,12.789203804030032,2.0664401909638928,-10.336464581376726,-22.867799676916917,-36.680859293312935,-52.20609715840121,-70.98966237652385,-88.57606031434747,-87.12603409747211,-54.13216990160194,-4.083720126550484,34.417294732007264,50.5235235895901,54.38046308016724,57.039823853558225,58.842505594396485,53.75342468692187,41.51925025756139,29.815169459257934,24.709912941734622,22.373426712407404,14.572658498587696,1.0368552485716924,-12.075022440029764,-22.99314146320389,-35.753763849659514,-53.07395660798627,-72.68292877858882,-88.79465490511876,-91.41052773491312,-70.29960524994104,-28.65454361486422,14.320933979085767,41.79994536606626,53.74943338199248,60.01443796382906,64.23675907692484,61.07402151834671,50.96522350268713,41.29213523508408,34.37796888915231,28.55892416818736,23.648390252525502,19.06014879772041,11.379968489887615,-2.377880398020788,-19.704550295664337,-34.95081732540836,-47.0248737360295,-61.1637473463846,-77.55742502777802,-82.40745343228907,-60.217919626637126,-16.053782601945727,25.548617972243626,46.810806126730476,53.19698876299815,56.56749547064705,54.61779823606106,44.41209742078224,33.19850393729466,25.27082836014329,20.12774681010955,18.612723230875734,16.01801166087724,4.8891646507446636,-12.177714480284017,-26.62570491021671,-36.418134113084335,-46.16618923930531,-59.17996105023374,-75.66957970722765,-88.18017702518354,-80.64744199282947,-45.999373122680836,-0.4859875191935539,33.339932685196246,48.24829572559271,52.499023706847304,52.69219063636054,48.09701125311284,40.73036860506819,35.97544687613846,33.47496355725563,28.034287903848195,19.10562758162791,9.679771289493816,-0.7972027312758563,-13.852177362524463,-27.041056066575273,-38.74182342661225,-52.557250283221194,-71.58131273353793,-87.95450795687026,-82.7670606896233,-47.0301729929168,1.5522638461137732,37.4223656082683,55.60507124148382,65.1130824155612,68.583745746103,63.52424331908625,52.774557683463115,44.13480857371059,41.070007207861764,38.43262100433512,31.73474688513737,23.768750140665258,16.176035172061237,4.8292585450174785,-11.341267143704963,-28.681793244691217,-43.91234172179124,-57.15643216839421,-72.53396100296695,-91.24965720662605,-102.3655887025897,-88.41854086409816,-47.24064829030955,-0.18352652852035967,31.172925294974917,45.99317404032216,53.98283359177508,57.224314550559846,52.79991971810018,43.67161645994491,37.21611008701494,36.43644274288804,36.101396604184266,32.027230589641036,25.88143751170665,18.432555697412432,9.020063749399252,-2.7272391320410754,-17.13856859751571,-32.52463780599552,-44.17352675018883,-52.38895625218947,-64.91657792932293,-81.9023594461926,-85.45035644248901,-57.81410616946616,-9.010668473064179,31.10324964912003,47.44131572189035,50.50107155034107,54.0241081793846,56.41886912317262,50.78693101150361,41.879207283003474,38.89148183985632,37.24547744140259,28.639145387641413,16.620597439165127,8.478367012849581,4.035607521883179,-3.3178360221119845,-18.32853639604085,-36.516683493368454,-49.71790679802672,-58.53489399972885,-70.79442924514383,-85.45248388395292,-86.41028769601536,-61.637818830912806,-19.940849941650942,17.98180997956466,40.91391202838592,53.34920431204456,61.48997867196342,61.47491169617837,50.2806801398685,38.771861609232886,37.1114995784098,38.79973031510668,31.87371781110076,17.702648560973785,7.017294968375602,0.653530411945622,-10.454928391338656,-27.779254007874385,-41.672023024968354,-47.31303440573381,-53.85900123939595,-70.45936786025374,-89.8240978434923,-90.30331260387052,-58.93906044836854,-10.53610127257103,27.54202881160056,46.03064904201342,55.037085103845754,60.412010651291524,58.769978137196254,52.315643091739254,49.206342735110894,49.656545875454995,46.920988508942955,38.67608725111896,29.079022879671538,21.323341056482466,13.517026252046053,4.564615191137981,-3.7147991411038213,-13.571896144404809,-27.79153194596453,-43.76883941111476,-59.77253641456254,-77.32207369544456,-91.7128444514194,-88.26026467815869,-57.529487458310655,-10.649544828195111,28.574096642899395,46.667667285504784,48.704968539333805,46.70994709824892,45.33567869858403,40.37713347206055,32.699793039533255,74.0,122.0,82.0
24.188455029186336,46.45913192589721,55.74600864877695,61.60964538750149,64.29540632380598,58.55185875572004,47.87163268022238,39.080761440470646,32.63037653895683,27.026426507814595,22.38995597949429,17.356159007329836,8.03812796624091,-7.2673576709597665,-24.52447735752852,-38.59758634315501,-50.6599629927984,-66.02269269018875,-81.01074052902649,-79.07155092466152,-48.82002011713256,-2.6055496630415678,33.96777107297109,49.500253135896,54.30512753338187,56.88828860300441,52.31612369179177,40.911267757186565,30.599675106280458,23.460829135875525,19.352683177050572,18.383527716886107,13.80772798451159,0.17607998226981247,-16.903375169490293,-29.777536093332266,-39.030837936859264,-49.512900197342596,-63.70869451268565,-80.31280671800155,-88.77391363987059,-73.10814517827498,-32.84527514606527,11.200744084085896,39.396761635860166,50.09918963228581,52.93753314660094,51.89774307676022,45.999804114991164,38.93877132980917,35.242205039909564,32.375267802799534,25.667352305767334,16.365245517250933,6.88111954432646,-4.341562190867738,-17.80914455235718,-30.502541954708533,-42.28013623702417,-57.579643345674626,-77.31682518819962,-89.50257903665482,-75.29305128483816,-33.009253689798136,13.93564714081008,44.137358638922514,58.915134170771175,66.86439028793598,68.02033283249001,60.69063212838332,49.73640411278268,42.7767206384517,40.591893994453926,36.90141357367999,29.361719115032663,21.662023639179374,13.466120124329446,0.5278553338813906,-16.41143527203922,-33.383544923658505,-47.81139152042244,-61.17333454736041,-77.81240522888,-96.04655396967657,-101.4936341769223,-78.71867643827977,-33.01500273479501,10.950838815344246,36.71466767719594,48.69850438624254,55.55915449708863,56.76051049221517,50.33013758117045,41.24127654957162,36.515356911640616,36.612687110478326,35.29530451941829,30.367676312977522,23.89733586903212,15.932165337552785,5.883843106766496,-6.619826050323245,-21.67009268191909,-36.448133514985884,-46.622054445787846,-55.24215317691272,-69.84782761026392,-85.38626235839985,-80.87953851126208,-44.65121562483169,4.675941474344168,38.17610762029134,48.885017355727754,51.2309086393081,55.229476550591734,55.69063543406325,48.0233039511395,40.295688868176114,38.79528595301786,35.54951708043491,25.126368628061392,13.700976528015861,7.040293019785673,2.5435922381874447,-6.872935515410938,-23.66871700341138,-41.05480461324029,-52.39245684224604,-61.45070031142134,-75.2923827494581,-87.97893870218438,-81.91965220584258,-50.45809496005895,-7.760871969255642,26.17196031757136,45.18132202467552,56.11687648574246,62.665800797487336,59.15557112433708,46.30078836375931,37.242200326709344,37.885884091958964,37.959288238606966,28.056140665550178,13.907050190804444,5.093596781904889,-1.7309087430159367,-15.129788771917147,-32.61889421329604,-43.96464439981191,-48.51776706592056,-57.56202273863747,-76.58600327376091,-92.89837305721066,-84.40330177379343,-45.439972708828556,2.465945672637737,34.62139262396822,49.09419915519189,57.04921187960093,60.78054947878868,57.025407337032085,50.833261517641446,49.242393930456785,49.452460326676366,44.9976869199571,35.807055096053915,26.655757693724293,19.21056798628211,10.966723171254067,2.087229659411566,-6.187817630443349,-17.268929654068,-32.391262720542514,-48.337151697355154,-64.67106706224514,-82.32735666159894,-93.2590824047301,-82.1184268667378,-44.641264223400775,2.4368000927783324,36.043911483821745,48.365663229272656,48.104498471172846,46.35991496538483,44.44956188682211,38.120570564707606,31.102807440532967,29.838871836547643,31.562725809478216,29.779438288079895,23.48961236193086,14.64882937859933,3.4510633660419407,-7.971312613734093,-16.078893160783036,-23.2075432537434,-33.612910365124876,-46.85944189973828,-62.1510621682338,-80.02906108399264,-90.19852523710973,-72.67342273483347,-27.442952504589083,18.662430055659765,43.95322107603321,51.94560197803424,54.92418128117117,55.91830507998233,51.948973473603715,42.43695128678419,33.39778897520545,30.185507188336597,30.12442129389565,27.72354951292642,20.2959354620665,9.425140792119596,-3.0772104241072884,-18.298272466781228,-34.733164090564486,-47.874468846341976,-57.60804501444904,-69.9926815344213,-85.25758032474684,-85.90957179594017,-57.55827104005081,-13.527357340138337,21.78593911753335,40.568858151767344,50.77263116588664,57.71944092291784,58.78400047549893,51.58768328703216,41.41600066537678,36.04546119510583,33.93722229444486,28.671122164514767,20.760831173368448,12.179386213835292,1.4762790341882572,-8.816676087022511,-17.297984704956587,-29.64998403292249,-47.699918437436935,-67.77328073092963,-86.27506401678541,-93.52452241932825,-75.2100781090578,-32.058533384147076,13.838370679555766,74.0,122.0,82.0
-65.27490234679699,-18.618599772171954,24.73139594529514,49.522919141563655,61.73774283567148,68.05627057922624,66.69555608840427,57.52940725060749,47.08556839956502,41.8765913283442,39.95204298098422,34.995029830611024,27.013979615307846,19.551266461583598,10.310628779185246,-4.126380064646607,-21.47482698631136,-37.843807271377685,-51.59498317340278,-65.50201837948943,-83.32441714580908,-99.79696462376097,-98.10905575291808,-66.94927898703077,-19.00546785471826,20.399163518534124,41.08577781639537,51.05920822611714,56.67096769737586,55.59895357923601,47.62478048068264,39.22203806817804,36.27768423994301,36.628345285714204,34.153376657364234,28.605557487554982,21.78716499357744,13.25697950518451,2.5440613431697603,-10.745708589717237,-26.201539976032155,-39.926418074325966,-48.89498426445752,-58.68858177982015,-74.99034218092551,-87.13672195231058,-73.41914011507211,-30.3170819631754,16.864551871335458,43.18317261719689,49.67639494041619,52.22579080229789,56.13103536649663,54.17189739782003,45.26501552241922,39.365243866643446,38.52099628308331,33.156777483604024,21.54065592858319,11.244094984712639,5.81539543093242,0.609600983748179,-11.120431084189642,-29.05865873981942,-45.001237186187325,-54.846429717597445,-64.86595146836162,-79.79439118942265,-88.85425802746158,-75.15184141270197,-38.29551105350794,3.573652537285781,33.01985525663761,48.80247356139623,58.60677814496317,62.950466860039214,55.94296450904082,42.69918741854401,36.65458994792507,38.603122597557366,36.16099571010282,23.85195650744884,10.670163619033262,3.376680855496259,-4.756049423475685,-20.21151692902418,-36.867754556672615,-45.59138713773463,-50.142712949190006,-62.23229153928532,-82.56722838537705,-93.78288967597555,-75.7469598506765,-31.170854921203436,13.964942850623327,40.12966010638122,51.701309317193754,58.75630239248094,60.4443649053425,55.058789827146896,49.821297099992584,49.4541328215332,48.804966238580626,42.641637274214965,32.96885117345705,24.412528213650656,17.00280888447556,8.348483075371526,-0.2899246585890791,-8.916714858814364,-21.343576490796064,-37.03212524607192,-52.9157091286371,-69.7513591010417,-86.83795843432156,-92.88176248633386,-73.61933568663434,-30.90134858970363,14.276050451977238,41.61857944921646,48.99938354984495,47.458679644882146,46.04667448761259,43.117211431464334,35.78266949637987,30.06736819871277,30.365076850706338,31.576975603219182,28.329804956678988,21.156397756054556,11.650021625970925,-0.030049612087678916,-10.689666864616514,-17.99191509677766,-25.809298910548776,-37.24391741287796,-51.00643065065526,-67.17248269526326,-84.65558923926638,-88.62555671854471,-61.57443965527533,-12.834882639806754,28.401367924474215,47.42155697456582,52.974791668295154,55.520826974252806,55.407673979903834,49.62845630840525,39.40619340933218,31.853647796052577,30.09801953898744,29.87224233490625,26.094751638828704,17.37254199625773,5.998177053843227,-7.156200788133732,-23.1251581344544,-39.0122535281323,-50.84618962224489,-60.61967815885003,-74.5689651798885,-87.97453879432761,-80.65455277069717,-45.274590774134666,-1.6418005666020448,28.700881415389237,43.98061396149588,53.13160930555127,58.826340319672944,57.49150625034447,48.53377894238359,39.21015571059898,35.43215705039035,32.87478922831971,26.488743044208057,18.400184141800448,9.311665727004353,-1.7497271773948155,-11.279123720679397,-20.211428915992133,-34.42331409268585,-53.434094368138496,-73.52171354571631,-90.19483227351735,-91.30067473162231,-64.59808768390741,-17.904276441570115,24.363163836527484,48.6123886984187,59.56998261485511,63.15051861021412,60.00414979670011,51.11072499271831,39.669823546176026,30.61829229738197,27.413608159170764,28.10944098342644,25.156205217583242,13.873558017775347,0.391931385227272,-10.21391465993623,-20.89595445344858,-33.45420220149442,-46.80244363440721,-64.76765728376485,-85.73921863713494,-90.48462459346318,-64.12181813210314,-18.803479362424,22.205759734270956,47.33391504732731,58.01955006674814,58.964959164854314,53.47429099803355,44.15923310880235,35.36449676413471,31.996355483861535,32.63550154164956,29.292198021488932,18.871007118573882,6.841392193698262,-2.520081745793445,-12.271144349981029,-25.761451868679565,-40.59531938476742,-55.1526927740963,-72.05554753665308,-89.65002970480674,-92.697561490341,-64.90668253920076,-13.859935560520224,32.528487141986616,56.2511021362912,62.27258057589655,62.04608790982005,58.680528933378824,49.922435881906864,38.343902632621464,30.687548127267085,26.908132881360107,20.501220821723543,10.813179448876387,3.433448004531279,-2.298544434351974,-13.365067405201886,-31.16476761509047,-49.29531727374308,-67.0383365288437,-88.8122865483635,-103.62605450304152,74.0,122.0,82.0
-15.952471206977554,-34.25061386415714,-48.351249828281034,-57.32084314282022,-68.81661578178299,-83.8617542626993,-87.6979142963783,-66.31457459530573,-25.720022794393664,13.740907457552668,38.66238155787736,51.986646475840324,60.705117655141095,62.19235075493565,52.13346073760759,39.80516407708129,36.84125751978782,38.895129978976044,33.41870125652936,19.594907631500085,8.04249007903924,1.5834735553786656,-8.496927461726786,-25.420684301855314,-40.34737098966441,-46.804407897012524,-52.48130151005157,-67.72560045609154,-87.8199596946104,-92.05333095124993,-64.6930502258295,-16.907679055012093,23.683417616589118,44.38905689719011,54.03308707613589,60.01968444511074,59.43217218039776,53.12794894821611,49.29959404685865,49.63728264340438,47.63846757407029,39.97279402249616,30.263806882094034,22.287371000540915,14.651593971510502,5.7422030996581785,-2.6244799134536128,-12.007807249904372,-25.7098337482846,-41.65255126653005,-57.5759346170844,-74.93848671386738,-90.46103875728727,-90.27049194120926,-63.01647983482878,-16.962539258798564,24.484538319581727,45.43631138682409,48.904651941401134,46.912421740723204,45.618435510742394,41.331117461971296,33.596119990509045,29.6162684698268,30.962412514837705,31.169467689589645,26.54782007607431,18.649517380792854,8.437182070638547,-3.423265674136847,-13.070526051788795,-19.959314023590483,-28.75247783784783,-41.052093455892035,-55.343964570782,-72.41784378083366,-88.20016934797006,-84.2447946107617,-48.51040180017968,1.0258654860483662,36.10051481901328,49.771769078284336,53.83678579719358,55.91239893217468,54.397376776410646,46.88026217395193,36.6356409224387,30.850425403007286,30.139327096806316,29.296939948585017,24.022704791922337,14.241699762561261,2.444872944754772,-11.507847416413538,-27.955217972211955,-42.90776406336184,-53.60267088210765,-64.05502572769909,-79.24341398028925,-88.8621211416322,-72.83662969466201,-32.29941596360024,8.97401938113406,34.28337881743323,46.94300796546362,55.247369577250744,59.32600483893596,55.49434609906153,45.458026328137336,37.5555815536298,34.92414794630475,31.422466060905542,24.18628522542411,15.979840965739042,6.223249036868128,-4.805578862242868,-13.642564398448117,-23.63020486920418,-39.613979910982806,-59.24847824987966,-79.05017449616702,-92.83493169188824,-86.60021156955152,-52.18217480780579,-4.21365285434668,33.23848636530357,52.759324847629955,61.27957063569576,62.93180445533676,57.92653406174093,47.865563045510854,36.59101139600254,29.049167536137634,27.471811442610747,28.016597778862945,22.65361772372819,9.811914172602446,-2.9416451560063264,-13.096665651278222,-24.408630179123666,-37.16725783290233,-51.29352390527195,-71.07548096722624,-89.84553998963698,-86.03646822373233,-51.894293543893546,-5.683677805386272,31.200993949077898,51.682010011309195,59.119540381768886,57.9272701871246,51.0390895930396,41.30591551359823,33.720781111225136,32.069271738363504,32.416452522570125,26.866751977549992,15.252150501586826,3.8692457628510373,-5.049645913958921,-15.8041119615714,-30.07573700698926,-44.75813541733017,-59.676362108971766,-77.46503375138916,-92.97651912882789,-88.08364942469782,-51.47457407731629,1.2649099855325723,41.854424641817474,59.22894848809551,62.51832300825732,61.48520924767921,56.75010573527519,46.553145379420194,35.53070761618589,29.45481406578862,25.563685555327602,17.8018904085026,8.274280727517077,1.8876020217709673,-4.6819677586301065,-18.03666614938188,-36.629115951127055,-54.20281469571271,-72.95784807371525,-94.84361730143812,-103.13973205013062,-78.6466368894597,-30.152827749007866,15.678020013453407,44.006742174943525,57.92120611688515,64.3149087705414,63.971583203556335,57.73496530197677,49.86114681988665,44.45476492538991,42.128937216191495,38.235711686952655,29.84387344987254,18.64785862964886,6.674003744839339,-6.469667891703146,-21.709747639113072,-36.45836695211119,-49.09146136941248,-65.44337459242145,-88.22684957566786,-104.10217358761795,-95.00686950836966,-58.89730440044524,-10.027942485470131,30.395772859695054,49.62508911176736,55.17509997322184,60.43514312385182,63.957726994628516,58.859174635382345,49.2993627536764,42.910399574972274,39.4138784548729,35.220555140298444,28.833567733912002,20.529048756790047,9.745782413346266,-2.5528998252447934,-13.137733284418763,-24.384543932605162,-39.907296655527794,-56.880619997660986,-74.77661541478233,-93.59923401254487,-97.9079355464256,-68.41597997853948,-14.42170266529592,31.537183557125687,51.480536147466424,55.35554101665394,57.78647487627362,58.804908982050215,52.00083255430312,40.28767585019374,31.550359256637073,26.851447890010252,24.17494883068238,20.10358903293959,10.967176318896136,-1.7185722717829237,-14.572850595092177,74.0,122.0,82.0
31.77431799780618,29.67739927263017,31.43388898633514,30.317050478177183,24.503800673943978,15.95807864168253,5.049836587340836,-6.603937583478173,-15.173022028566148,-22.11850823025868,-32.015043567341394,-44.99729637765481,-59.93519843190401,-77.68505702183556,-90.06469743177867,-76.96437815722098,-34.2189820797411,13.5039497263676,41.871449827533326,51.372461066511,54.60295247370254,56.00352943121509,52.84710125516839,43.8624964077502,34.29839322516976,30.310669971811116,30.160406815245167,28.321434193120453,21.55106164457409,10.970037799166013,-1.2836576093700311,-16.11014655786149,-32.65002294408974,-46.39613178486116,-56.31616224460964,-68.00454443745717,-83.55230220466181,-87.43517927021175,-62.7940275974305,-19.329544410475673,18.098849321686057,38.78241895312818,49.61498081324549,57.03564907351094,59.12690467758569,52.91809857891798,42.60223629348538,36.42309341181835,34.3077760922201,29.607524094606614,21.84366682265973,13.423867809616803,2.985790086384396,-7.611113510955294,-16.08789067837288,-27.620151727095237,-45.101066731697586,-65.08894919177547,-84.14791172063087,-93.77472105247121,-79.36577011409923,-38.55863186006649,8.456276729549836,40.51056559501574,56.02898819527525,62.444551453905895,62.14140017503158,55.4135487767746,44.508059344938765,33.841225276059575,28.021797617699484,27.74309603188115,27.385652683006242,19.441135857420395,5.811091019318741,-6.005831208188015,-16.116179489604566,-28.04945875538467,-40.937275807648334,-56.33696239163543,-77.43835472755003,-91.95622776150677,-78.84992918032611,-38.65071716828556,6.544200146024092,38.755938683608456,54.944658487147585,59.50924673554401,56.41721135804613,48.34628307268186,38.63548471269113,32.63165865299623,32.34697870644621,31.637705712201935,23.885822677402242,11.685619489895574,1.160430978108397,-7.759369590099515,-19.673201035828253,-34.39523861449521,-48.91280614650785,-64.4896376654575,-82.79911946885609,-94.55687262679578,-80.61350173596294,-36.595365208727,15.232436538821696,49.09051852831801,61.041047805070576,62.4771800029362,60.6339663654628,54.30581656141664,43.10230450804214,33.20214588992279,28.435296785568642,23.821586617338376,14.931124863311878,6.069813270601038,0.35439786241724164,-7.699858130223867,-23.19156377079527,-41.926283039680655,-59.19522295265507,-79.29966337442787,-99.7766780013446,-99.68587446157187,-65.96360043748405,-15.587673516049195,25.782262720691108,49.122593416655086,60.39819231902023,64.9557985231805,62.6178016888225,55.42296600989034,47.91171728777391,43.6012269021022,41.40408995215083,36.25196427516746,26.77876723440073,15.230695873777298,3.075804229377496,-10.699488945002926,-26.20051354899327,-40.198980720078275,-53.087858662010575,-71.6285381636269,-94.46025332455162,-104.51850248143926,-86.95369714467763,-45.18614158579152,3.4105093822699937,38.17532778924243,51.90403160912456,56.454889401799704,62.044574700846994,63.427241941460544,56.126103695700984,46.98036938553135,41.77793721681671,38.3894684720178,33.60219679059268,26.62415221533493,17.71102417900879,6.182756647329371,-5.830778774880091,-16.061709675570373,-28.45972240341182,-44.82555994422155,-61.8166432992155,-80.42988707790136,-97.42498299689234,-93.16759548865863,-54.03187090955095,1.052955270333239,39.947700650842634,53.42413151774329,55.90288413965233,58.555272809042236,57.76216817499667,48.71221799004988,37.269472010752295,29.86440998930512,25.970239431751654,23.3566351562498,18.030038167155904,7.485765906854385,-5.504359088887973,-18.134415757116766,-30.37260656255335,-43.854567283789166,-59.5898705809484,-76.32190572218629,-89.15864110373131,-87.84910352549551,-60.2311451856171,-10.537335504806927,34.847234771134886,54.767255940181784,55.88645505862772,55.1152795691248,54.16391033380193,48.27750609755634,39.68861164413823,32.563386472239614,27.5376659426639,22.291845040030324,14.283561944573467,3.5664112117160123,-7.53956547369971,-18.475630317123386,-29.695191443069817,-41.05600714041135,-55.28591142822837,-76.55259962298786,-96.93458966163799,-92.72221009251237,-53.81588119309542,-2.219035387527049,34.73184048834947,52.7040417060718,62.13834249424881,66.1269261784246,60.940914304457976,50.33963357680601,42.0950065211677,38.62313645957597,36.630838378049575,32.80994545254726,27.429605857306413,19.99125461892929,8.258582447535742,-7.306142588725102,-24.130671030997508,-40.81986291893242,-57.50235018138499,-74.99061154613392,-92.75204380477241,-99.49367809649846,-77.76970816601104,-31.634358363594462,13.221000509013328,40.67177597689447,53.871836358923844,58.60437427319687,55.96046488228096,47.55785340463277,38.29964844896361,34.24153484935386,36.957881435704046,40.676914098165945,74.0,122.0,82.0
19.712830662880805,46.34473829196207,58.59326119765703,63.057988386233795,60.79911442931298,52.536262294083066,41.16746561647727,31.521399681064686,27.503025300536702,28.031905680612024,26.04260638449553,15.70559084634498,2.033424790624416,-8.900528408138408,-19.338428871577435,-31.745647249441873,-44.881296262705185,-61.98198744015697,-83.3419187726597,-91.58175762381028,-69.23801103774028,-25.03771562324888,17.57610040043835,44.926737365474246,57.248682530484565,59.26848276048772,54.488872561310174,45.49414353626978,36.295920519727915,32.085921980275536,32.59710351959104,30.191547702121184,20.50955767148829,8.309161306428729,-1.3738895916105618,-10.76578303037495,-23.800397013185645,-38.65648204965156,-53.14666389389021,-69.60810329655583,-87.68236947299434,-93.88148655854978,-70.42487195477167,-21.038571309532557,27.52283060616563,54.38870131171555,62.02104396330239,62.227581581987515,59.401328576424845,51.39314132294088,39.77933997875808,31.375811755856216,27.42638622623641,21.64189423302561,12.075622825090944,4.201520443917011,-1.3759452236779277,-11.41827985299112,-28.6257039612782,-47.010186776914686,-64.46830226913835,-85.83938502481887,-102.93890114368823,-93.17827498370879,-51.83712047759437,-1.9092813928269654,34.27243669495982,53.24773386271534,62.36652281733113,64.99220904537434,60.842745172893146,53.089684805566975,46.26108990359097,42.96256418536642,40.39499002643279,33.883054849720416,23.54747121477554,11.783814912397746,-0.6631115130648951,-15.105572979032326,-30.54259533064761,-43.781327746164635,-57.61574999289192,-78.3031656643777,-99.60941772932685,-102.48646376226722,-76.79318150103711,-30.873303727590347,15.600141413618836,44.045090002580125,53.43350539393024,57.959199578047496,63.28746446739058,62.071223118737905,53.25619196542339,45.05739753974337,40.79487334360292,37.23124480577778,31.79049632952995,24.269903965920065,14.647709025568313,2.5703739240327583,-8.8977494890715,-19.186581708232673,-32.92076558783995,-49.74161489138756,-66.90677000820527,-86.09560197090526,-99.44702975901255,-85.25239667888678,-38.214637744458834,14.987885447456456,46.05702859908884,54.49052763407593,56.58507429073366,59.042957913982136,55.93271594631015,45.22659590633632,34.65095230293478,28.46915792528945,25.2140935639873,22.304946140453318,15.473158251558232,3.8074921399986428,-9.241701412812974,-21.650216337359982,-34.06721545120588,-48.169194772079166,-64.45825949150971,-80.76360487353044,-90.84105843583275,-82.88224492923902,-47.25960063207175,4.373746575381447,43.45752049664382,56.15671517997282,55.432027783106015,55.146718705987105,53.004577766274416,45.8518132148539,37.370826247076515,30.96545103844803,26.176397691175445,20.33135780938618,11.368333676264013,0.3200132577440042,-10.68425868575179,-21.6990013226766,-32.93139486049386,-44.6404033116669,-60.67892720046402,-83.42330653056648,-99.28473006687427,-84.59496385259807,-38.746008203471376,10.663587869144289,41.469863767231686,55.90817688069155,64.03532324281883,65.60388216567029,58.053738332642126,47.47335797243788,40.671342836724094,38.10397584479596,35.75658233403246,31.37056075731715,25.60198285313124,17.093549051834025,4.050173258425187,-12.14193409749971,-28.974294646353762,-45.62301132193505,-62.412901240780954,-80.3019367093388,-96.69695975429488,-96.57940940281294,-65.97479052384908,-17.406116338098318,23.057697616832108,45.59385218345393,56.00737451383271,58.58107288004955,53.97104592311619,44.68247151373265,36.387574185029486,34.4582282859915,38.32428005825496,40.67574725602571,34.57185813866681,21.031002350520367,5.978066999569915,-7.231943599394992,-19.59440992773668,-31.168408631826473,-41.248088121504345,-54.5819311653033,-74.12659713696698,-85.91700891979477,-70.54558163910852,-28.475875254640364,17.292689051903047,45.339567535817494,54.88625133067365,54.96812634646967,50.177942350884024,41.23752568557226,30.611593340647,24.45423076874753,24.819990903206893,24.57909203516866,15.664710748767142,0.8555486004423507,-10.754716317709125,-17.418301576099346,-25.16632245066122,-38.07193596126855,-54.15580150622768,-70.71629035127431,-88.08349102832756,-97.0656304024458,-77.56548493461099,-28.287139899592667,22.756925174767883,51.751462506633494,59.59618526349925,58.78268646148002,57.85630434456118,55.29374668695991,48.92775386060325,42.061022229119494,35.91649382064531,27.688360078358507,18.730182247479462,11.662781590274074,4.030270068602304,-7.1713354534340885,-22.177678054916043,-39.10545607222466,-55.8895483399984,-74.50930757583257,-94.49520677678989,-100.86608248162699,-75.25328450558318,-24.164648638317846,23.990696069026683,50.405244973460654,60.08349732224939,64.11422250747974,65.46046579225717,62.57199958536908,74.0,122.0,82.0
