-4.115484839153728,-73.72613704707695,-84.5303715916345,-53.16818667591085,-22.358550934878902,-4.4354355032006305,8.584371923647913,19.073509381038402,22.221407523708,17.254855362648538,10.983405015719951,8.846764899338988,8.401077526093943,6.497565873857855,6.484213932575242,10.064617444584897,11.411046022093856,6.078564124287535,-1.933422720234567,-6.4281201645502035,-8.795796369314619,-13.903861142388902,-19.38544163476656,-21.697951030255492,-24.340002556647544,-30.151710191757005,-34.71878107496164,-34.377419252912865,-34.81673509511879,-41.496307645033326,-46.56052217204592,-37.90368435644414,-15.710806759042306,9.128734075239707,28.905694736772684,42.660472646479235,49.11869502681672,47.99944967396241,43.898552508785905,41.017823974176196,38.62714468128131,34.622570243896966,30.121435368603052,25.781822463673876,21.216996017892736,18.971089569131625,18.804215874964385,14.232020593992278,3.2595275880586323,-7.883305186961006,-14.961657855387516,-19.27046512269294,-23.302137504678978,-28.29260080945558,-34.106761539501,-39.68298196962631,-45.13537498366433,-49.96738015833638,-48.264306932504894,-33.97670629664497,-11.609698873336185,9.81671168591936,24.47248977816593,32.06131342650372,35.820558130949365,36.60283896725459,33.35443580998097,26.106084172249023,18.337970595713468,14.507981659391644,15.523877550336653,17.424164746188026,15.756852296410953,10.97159262338896,4.822639892988765,-2.305163441619634,-8.573205060659939,-12.812140666976232,-17.81032382641424,-24.131990146244227,-29.83719035308979,-35.257692731348804,-40.78573058364082,-45.02567806911594,-49.92933505866333,-56.05277849179752,-53.37775061253135,-33.94743340228338,-6.091373601822227,19.400353506065596,38.02649169674782,46.93658255348324,48.05790911104526,48.00650056047554,47.86355127700491,43.39596303127324,35.5231058917357,29.161988651744096,25.957181994844824,24.637484553897007,23.84274575712066,22.162745584370544,18.846105843058165,14.173622496985365,8.453444722491625,2.4443508802835296,-5.662789458790885,-15.816869865851556,-23.25709164010431,-27.45636589233628,-32.10429049916651,-37.9773430657986,-44.04295252835021,-52.407905010483496,-63.98723043853816,-71.52840180562376,-64.75495884880178,-42.38650264843918,-13.099912339470016,13.45711348584651,31.814554819819673,42.412376921286885,47.37848857634632,47.106557566104065,42.65940329333788,37.97083790871647,34.39148807858175,30.863787583574148,29.592433358860518,29.826452257714227,26.345475829496927,18.673008238320318,10.985457085324086,4.207133874026746,-2.818104319719281,-7.903250278227762,-9.014672942147365,-10.58502631722037,-17.14989002088858,-26.15356461501879,-31.62022814191371,-31.49247655598345,-31.30215631541213,-37.15299421924175,-44.820892781012326,-45.333240608178194,-37.62377448685797,-24.40363845369361,-6.411713878640802,12.97121383465361,27.6913573430218,34.74338593159672,34.959087922370934,30.624606886832744,25.535262289415435,21.901018289638785,20.511641819559966,21.33578761212864,21.20802040035626,19.057533104103104,18.982880420476377,20.982406647265353,20.534513294477257,16.80320960194187,11.015634887285373,3.299643641893612,-4.657865554978343,-10.647642316101392,-14.80632532502353,-19.936791866613987,-28.089319702457583,-36.9754008240947,-44.57067233389806,-51.87021547334223,-59.15788098743722,-64.8368691148337,-61.49895530159754,-42.280139120839976,-12.902907215877844,15.350489527803648,34.64471947144521,43.80086564548058,46.99089785732481,46.46670070920082,42.74599507333478,39.373878024028386,37.15075464421298,32.65594733549008,27.99034470869565,28.5182024141329,29.077201237083575,22.345555102695702,13.85796542979676,9.669689575611287,4.990932021267491,-1.9834880521561733,-5.688385304435197,-8.447737464190734,-15.863196538421118,-24.563648303820727,-30.42842382127903,-35.95920223914217,-41.67533903453913,-45.416710976072125,-48.951944521963796,-52.55426453713919,-48.260558931019624,-31.0943224303432,-8.744166611367305,10.240005753573122,24.625523171734034,34.84577981017251,38.928879060649294,36.458076773815506,31.058026719024323,26.61923276883295,23.363126784217286,19.609897234578984,15.503336599775352,15.104268801326981,18.537696950729384,18.689827692085185,12.420249386846738,4.167973138461633,-1.9496600205338532,-7.295699661757023,-13.283941774520192,-18.119427198838217,-20.32892981641169,-21.49903782628031,-25.678606102462624,-34.993842377360835,-45.66332486297456,-48.984439496696766,-39.54408892576681,-20.893573252679506,-0.9017829306456611,16.137870662019257,29.22135666817203,37.388589988288835,39.9881901727561,36.14356212732065,28.43354761439622,24.42962211968502,26.358360474824135,27.842489292061384,24.296121886268764,19.099077515498863,15.176680053173104,10.66919106633354,54.0,108.0,75.0
27.256624608745447,33.429652883512375,36.39657444364131,36.11658953924136,31.59581657270661,23.681124303741957,16.701111210907996,14.388748626427319,16.246488167841463,17.37856354161527,14.590160318402502,9.306506639896057,2.8347404847183952,-4.3356201954793026,-9.923218130885662,-14.060962661303087,-19.586922302274793,-25.893239224103763,-31.359111055845077,-36.91334448971141,-42.14644604579609,-46.206811611695,-51.813303891456364,-56.79389331782585,-49.39544732951374,-26.15562839079956,1.790163385518924,25.63239411963181,41.659359748652676,47.7820358760882,47.932219122314685,48.15696587735544,47.13388185607265,41.24532611031192,33.37003246309273,27.942392903343965,25.454962319941824,24.404656413558303,23.515824895136316,21.36080151038158,17.63158809289435,12.58646248791683,6.763951074640961,0.43569104708418926,-8.567240897383863,-18.418214545332372,-24.64659991511479,-28.629348794759768,-33.74367205166328,-39.68802151732248,-46.07412161297569,-55.57291292791504,-67.08926693057509,-71.3471726518193,-59.6225322062127,-34.16602666663544,-4.793910278059369,19.681369845853837,35.558620594974045,44.37510178834644,47.84846483233578,46.10615812083283,41.16598757478268,36.89362833822129,33.33026487674105,30.152185204757927,29.72996261426154,29.374013517979105,24.390855637976102,16.30591212964132,9.01267650212107,2.1810368481687483,-4.656753660168784,-8.564591892506021,-9.11469595782841,-11.947325122771352,-19.762156501818406,-28.322577240228895,-32.04517270499779,-31.071206161833246,-32.31521258283742,-39.6418576072086,-45.93064808601894,-43.80763408437675,-34.315453036161166,-19.644806405059114,-0.6840809397494612,17.929325398181156,30.52546277033687,35.43153634448973,34.02605136723899,29.071319680207274,24.30732684133424,21.223608985958204,20.610647426001638,21.562111791921467,20.661654134689133,18.65698172296003,19.553436363546517,21.23919858928011,19.724962035184888,15.327044833309492,8.961709614572571,0.8984273838640878,-6.635973297410504,-11.956941850852623,-16.031825113701867,-22.005883556425665,-30.74486284579941,-39.28081561064281,-46.6687386296542,-53.993768420192254,-61.146983080795785,-65.27049536876028,-57.570560799820164,-34.32700086235056,-4.179510062687372,22.045441125726924,38.191156029543556,45.146107796134565,47.23072849843652,45.6129362751844,41.568785351924404,38.759037374101865,36.16866353316286,31.01743986596188,27.579544340619933,29.16572319300364,27.880604855283558,19.61686311122255,12.258253771646125,8.672163338958352,2.9772516972393555,-3.5220138814136015,-6.23022005453455,-10.086222278644561,-18.549056355198704,-26.524683822274994,-31.91755048468621,-37.71433736865695,-42.96722637815446,-46.31455731875596,-50.2001282669033,-52.570385891894965,-44.48132137151112,-24.666480843653016,-2.7376576783858195,14.808838793135186,28.061184562259186,36.75317751120373,38.78963362323117,34.98263579500444,29.59025373186112,25.628520186652942,22.393455341767762,18.335414188972717,14.82032831007713,15.955322404740762,19.228571825803584,17.440205050143817,9.966451441664814,2.1515966738265426,-3.4424863211274563,-8.999567110744374,-14.905689477854633,-19.025955740735824,-20.614620448374087,-22.22174787533607,-27.878423021143167,-38.27590765205252,-47.76695845337674,-47.57790918490985,-34.75370252766053,-14.9602501185371,4.388735973272908,20.362950228073824,32.122760305439286,38.74350601212699,39.55715163900361,34.00815821798528,26.601801185326767,24.552623041346205,27.181354238811227,27.3077983691973,22.721672850810315,17.876108274760465,14.011719023947393,9.171489841935902,3.7662311471964416,-3.103048949184019,-12.088737771337179,-19.374246216486,-23.095001818718455,-27.281459668424436,-35.32378773460319,-45.43939551388469,-52.80949656071706,-53.50407956384233,-47.40179938942474,-35.598378125649575,-16.876792230989462,5.918970258649081,25.15569269840282,36.326841147225366,41.3586964023024,43.50956368541075,42.61406430686361,36.943490075052196,28.07244816071955,21.189806949613054,19.362895724819875,19.912211798088123,17.698272693206267,11.18561144087871,4.910097418232888,-0.11830450530893621,-6.487129147992597,-12.531056779655804,-17.546884700838724,-23.956159769767673,-31.334167576957288,-38.8807972191685,-48.19880791547953,-58.07832514340733,-62.55708512732152,-55.564364511675855,-37.10040967399035,-12.316720261101489,12.868499524223004,33.54015045990767,46.13345039570402,49.40083792511398,47.63470493728656,46.267554502145465,44.440046934431855,39.89351534088609,34.722224372326586,29.67856743142175,24.262054492080356,19.34947207433763,14.92130098142826,10.882455792460856,6.623332787886433,1.3079006075643904,-5.646686637902151,-13.316651231253417,-19.49201403335872,-24.4799060712668,-30.97249235016598,-38.82927809028279,54.0,108.0,75.0
39.76610952294809,35.879584761900446,32.26398706867686,29.72213054367763,29.890214376293766,28.48056581428351,22.15850149586352,14.047399053937927,7.076638575900906,0.12261941952049732,-6.235502526269695,-8.88737009551323,-9.434074540848325,-13.778615305278398,-22.4462888374147,-30.046735071572517,-32.022461005854204,-30.853366222495264,-33.931325465495455,-42.04132355325068,-46.264245223099955,-41.66744488564984,-30.59428650167031,-14.490966992641312,5.021788870179068,22.35281657177068,32.69694772376701,35.58881906924636,32.78179142196223,27.559751570811155,23.217554310326157,20.76235610771315,20.8681217584483,21.598578487708338,19.987689881716463,18.55986904200003,20.200462990208514,21.18907976105177,18.675481485667554,13.69733976317577,6.743746128598299,-1.4513590048753304,-8.413405482252436,-13.14147589300155,-17.43270917769341,-24.34172275800012,-33.360676838099536,-41.47497998373281,-48.77448421736705,-56.11124819366083,-62.94312444303177,-64.67920137453042,-52.24299104114294,-25.793832225153913,4.1855758886782795,27.847904963005377,40.943228007854444,46.11842835570607,47.16009817637229,44.52608380850791,40.53882076852937,38.18201951812943,34.90790341751823,29.519534825222248,27.696767622085584,29.539934072436978,25.99066660458952,17.01432738496042,11.056670502314617,7.424311636243534,0.8617667243794058,-4.647188128246304,-6.885660310560237,-12.187896428601109,-21.16193340084458,-28.220826630578532,-33.4864516385974,-39.42648653659989,-44.05870309472102,-47.2913805933409,-51.389759179227354,-51.649618234152356,-39.63158622929765,-18.09860435000452,2.8505881563193087,19.029332548140996,31.13489531266515,38.08048125814263,38.135746034487624,33.38404841534583,28.273542465409648,24.701603702302602,21.337371752964508,17.07165163849947,14.584145069517563,17.026054477926802,19.439178376322655,15.670384423827368,7.508738912923799,0.36296892302959005,-4.954193162528182,-10.751927269877786,-16.3665616560648,-19.69755177985388,-20.888430594296985,-23.306090164315354,-30.519130769135643,-41.51068628365744,-49.01711939474908,-45.05269269612164,-29.369865092824263,-9.104225201080387,9.38639349226841,24.240647022481824,34.588911467654086,39.62323659727016,38.55400595992478,31.68878847014496,25.282112510002186,25.1198116474996,27.752813238676655,26.321254823090534,21.160603633882694,16.76335124360834,12.732902745768996,7.645854129776973,2.0305491418051527,-5.578021729967045,-14.577390502787528,-20.71113631951426,-24.030194569369367,-29.18377654137265,-38.22904863845069,-48.07125552056932,-53.78435983064282,-52.354234838358394,-44.609205850257794,-30.920892861369797,-10.397136857662415,12.163863479964721,29.2299373250197,38.22866014779822,42.20815152475503,43.65659459143,41.48824738147468,34.51926632276337,25.636985575475357,20.169081707412012,19.494899061751468,19.76200383524526,16.119028702345023,9.14818449123813,3.4755006176172007,-1.8105194415272237,-8.39386847185036,-13.985442693300016,-19.19066383275363,-26.084638388217748,-33.4372234204305,-41.346783298677714,-51.18568142554635,-60.259302204721806,-61.85743229608419,-51.23425308022221,-30.314638726801636,-4.84227903176042,19.489124735967884,38.131710724673525,47.96728599709428,49.09310669505125,47.10725441957567,45.95375844846343,43.375866797800995,38.34691538292971,33.31059509226627,28.112008048057245,22.77521448723418,18.028113760544258,13.724800237468306,9.71577910298618,5.2288636554721055,-0.527945082540655,-7.890205672635605,-15.319380255772113,-20.93991777018537,-26.118528694300217,-33.208290899182465,-41.04613198455212,-48.594511232853684,-56.6970132296345,-63.723473584569376,-65.5848259706314,-58.15050790905272,-38.90557878223147,-10.365697717700668,17.13156607209781,34.729823553272745,44.382611165544546,49.894037502431736,49.69119592490422,44.780893031748725,39.45873573115932,36.61214831362777,36.05580703371836,34.155775013529556,27.915319642688843,21.595026610217076,18.980154639311785,15.700373327565742,9.391783991814094,2.0052741059310573,-5.822294073887656,-14.538911598067148,-22.06868619253186,-25.762835862946428,-27.313695929216994,-32.94037830749091,-43.66553767694128,-53.41575495585083,-58.6187451823534,-60.90369567961278,-59.12765394051642,-47.64313356930276,-23.533017978204327,7.748088708186436,33.871090694631874,45.442914222663546,45.84883638526523,46.144294595674204,49.19234835480996,47.01886310901121,38.10541622701865,31.333829676966484,29.69521610562616,28.08546640587029,24.119497534549904,19.973596935768526,16.479914739317792,10.984339159649737,2.570830973779538,-5.013595807448413,-10.250666792447428,-15.479166504644041,-21.83049750887978,-28.502329047491532,-34.161943872372184,-38.47669154408792,-43.471715740937874,-49.432028881217256,-54.24949861335768,54.0,108.0,75.0
33.40319022617675,28.36328744892727,28.210620433301557,29.38036826199831,23.57135103555947,14.751551670854456,10.09239450158627,5.835838125547401,-1.1470888195816755,-5.414843625099151,-7.855213134967509,-14.650484379178343,-23.55698688150424,-29.748224933112944,-35.159747864802576,-41.00851367073641,-45.00520866213078,-48.398617820562116,-52.30147190848804,-49.60593431524834,-33.93153098630737,-11.635976655395709,8.004398712206722,22.931484913559856,33.78563921094538,38.80035951596639,37.062621682097934,31.776227545458426,27.110303480886117,23.79066323607605,20.177318268090733,15.940570128757736,14.834699548100058,18.102031829674424,19.067446896175333,13.507254363251825,5.176269166136087,-1.2465398987345835,-6.536636268522608,-12.498435698673275,-17.619901687399928,-20.165989968361316,-21.261584936089694,-24.822620488253555,-33.521841852505084,-44.46439323159754,-49.249437690443536,-41.49410097173203,-23.613913699821293,-3.433972994182676,14.079673873388481,27.74196948565886,36.60920463748881,39.99688097516905,37.011750730027956,29.408959793561994,24.559050392613933,25.947811055973894,27.923538075509857,24.987922807108315,19.713848156417306,15.68485141593205,11.340980485633644,6.10348319870966,0.11171812497756944,-8.207239631342015,-16.786906163633375,-21.77634685988197,-25.14060367807694,-31.451731289337214,-41.209276662235894,-50.34790891639568,-54.129606849418565,-50.68204745831486,-41.34319346636947,-25.619562127157458,-3.728065819174955,17.912218984880017,32.58609155445674,39.71988562073183,42.87542349956791,43.5034226191828,39.92957611826812,31.913265842879948,23.51890426637491,19.585450715486072,19.71593442385981,19.24410951254222,14.22141665977725,7.276872454684676,2.0765464542140104,-3.654308584595994,-10.184785848739425,-15.39355038385495,-21.0128761679238,-28.233361619592014,-35.573446816249856,-44.00613761973847,-54.13984465966357,-61.803361380733676,-60.08470379538408,-46.021189759056284,-23.152419626285848,2.5303044960544545,25.62477031212936,41.97305038329611,49.023858716426844,48.54031915866784,46.70395857789501,45.50718613858723,42.07081743897867,36.83366524937654,31.875592404277484,26.529102796555097,21.347302353081517,16.739370488755583,12.560720817488566,8.506996665379999,3.72871946645994,-2.5138051028374715,-10.144691314932547,-17.143435400045497,-22.340167662317167,-27.95193068574764,-35.501680068777034,-43.21827587959509,-50.87819855049927,-58.99617896435021,-64.98923814467864,-64.54895891763687,-53.83337580000689,-31.28692917563004,-1.7550348009796608,23.341271331012056,38.06572035014985,46.40969995804601,50.496028198055576,48.57191695285397,43.11349244993219,38.32003531428045,36.321252412868866,35.85865940708815,32.76513108294719,25.77309961175646,20.55024810538277,18.335798150439285,14.128872146971082,7.283525602920974,-0.17159940419436606,-8.282539714317856,-16.987419609442263,-23.57505280649959,-26.186920780832516,-28.283902176218948,-35.72316593389241,-46.867230272919436,-55.361660164431136,-59.50752637628454,-61.020184715024264,-57.057229312749215,-41.91110110984886,-14.763056918030447,16.41123260095233,38.83490184955835,46.23062609805239,45.543883574682354,46.99350122705744,49.456979359243896,44.810484650225426,35.56894874840951,30.49656103981883,29.45831151594341,27.123980637405456,22.8317861558997,18.965852210350373,15.241379477537247,8.736912704557392,0.12073361435655883,-6.693653329587861,-11.657485828653307,-17.216070780390975,-23.77928587083768,-30.29970045277884,-35.48819725142833,-39.75612005567494,-45.18893826808508,-50.99675611193754,-55.34556956855846,-57.47456017683299,-53.07076291618406,-38.79592082161972,-15.908984563644951,10.22879150383643,31.5050579740454,44.498664410315214,50.34501204186685,49.83482614936136,45.08177884386635,40.08275208882948,35.75491103512295,29.671897941259267,23.336759571038332,21.243598145394376,21.833444946396046,21.028245591074654,17.7282953718894,12.417250612912525,6.522616230169148,1.3802152461158277,-3.1860203340840827,-7.744352617285636,-13.021515044766861,-19.057623216293504,-24.835345532584725,-28.309860930992237,-30.05461765425809,-35.831516924188236,-47.7217725582753,-58.83301825104083,-60.98873329258806,-51.44876396902258,-31.42664351486167,-4.115556820428646,21.99824396237773,37.510014838487365,42.28499114190069,44.01641962016537,45.41509002873555,42.77468133592483,36.71875155615605,30.733428096141896,26.749256815889915,24.77220268340098,21.419406535303658,13.463913470260351,5.252386630391635,1.419576255869226,-0.7314370881630385,-6.039181667387072,-15.784651389544097,-26.07249695745772,-32.207405094028644,-33.660761915713096,-34.53184181181157,-41.22027043881355,-53.493533725296665,-59.27417927799873,-48.862249237761844,-27.38058960653148,-4.198449649406666,54.0,108.0,75.0
9.867223753309382,4.522033578029811,-2.033965340732953,-10.879730819556109,-18.643106951340997,-22.688297881244353,-26.528239437998664,-34.04242772372997,-44.13985600195121,-52.15806007390546,-53.84217585268545,-48.539391231930395,-37.545768115835536,-19.746524713323698,2.9196987505590855,23.031443367950985,35.28174586182971,40.89861755124215,43.35763573921761,42.98806260665201,37.96726365944351,29.265239433840073,21.818079785633007,19.367125921889965,19.888395767505795,18.28932167825295,12.152438405987755,5.6134519455838765,0.6060266539038769,-5.588936084416543,-11.824278520275326,-16.84233971373379,-22.99873155602348,-30.36202192235775,-37.80414293733117,-46.844108110374606,-56.9107462673791,-62.53472724946146,-57.23176270122001,-40.05996912949214,-15.761878893234625,9.6795098020168,31.188963962073533,45.01129256917454,49.40823364065762,47.91248354846312,46.39683841732644,44.83843446062629,40.60091990463312,35.37778297556644,30.3857367796183,24.967029827768222,19.970313093081238,15.486046305440661,11.412634035445398,7.235554754762265,2.1039417819840676,-4.633702982350063,-12.341401262005185,-18.787116883587366,-23.77966305740916,-29.980887121844106,-37.78886844712946,-45.37778077718109,-53.22776974713261,-61.12781695910724,-65.71370810214987,-62.644036985963254,-48.487500699413964,-23.024825967116197,6.441112302289082,28.60062829087368,40.89453629648082,48.120688914157924,50.55028593511663,47.15059156939209,41.51556524525615,37.43772914281234,36.18175473054933,35.427666413025335,30.979138198380404,23.82146000550339,19.814110167722962,17.476229120323076,12.320415386683745,5.145828505797712,-2.403768185751039,-10.816993491002817,-19.25321555946257,-24.711598545973082,-26.53893004319081,-29.7672753412516,-38.85021953285289,-49.8072952602103,-56.91298220535026,-60.21896434634885,-60.7030725551592,-54.01797827346446,-35.11429946561084,-5.617868278000938,24.299238218203662,42.44108089222765,46.31707073987237,45.509424900905614,47.991943827694634,49.0296264855096,42.16756694073188,33.46172481852803,30.034649049476567,29.067926889235387,25.977267678363496,21.602269014355475,17.995177087594083,13.739840029645794,6.282665800999002,-2.1415409614166263,-8.200809145827346,-13.134703372686255,-19.044095703241908,-25.727686744339387,-31.974949205213278,-36.718164766427975,-41.161395124688674,-46.94571092033448,-52.419102065487095,-56.29553994675228,-57.12282841855383,-49.966074877803045,-32.93024371045501,-8.324770730151181,17.16692950409094,36.08678071966901,46.87002082545386,50.81703247111366,48.721598638426364,43.521519035645646,38.858557432230924,34.24461344585195,27.635351210635065,22.214672994063694,21.359822204725983,21.844793199838616,20.325528856879654,16.358201605034893,10.687473500402298,4.948852076550404,0.022391904527708693,-4.4691562974304935,-9.175948556668919,-14.707837286194852,-20.834902959071993,-26.154522257267452,-28.802540624495546,-31.03979148247532,-38.80937542721717,-51.43661868437875,-60.61906910410856,-59.40915757482763,-46.66193831451646,-24.026226230147614,4.049762808671489,27.807960754196582,39.70339334996524,42.779423840693816,44.599236321435875,45.17067088360424,41.21016189083212,34.862334983564885,29.333713556523662,26.04322896365277,24.17951635684799,19.54994158970336,10.7964973529353,3.687654425727957,0.8654732581559097,-1.7851870103596417,-8.488346572947627,-18.949789999927546,-28.39717840978967,-33.002060678030304,-33.69255044575818,-35.64252744669362,-44.552532384622644,-56.49084205361093,-57.972636962575926,-43.30078919314363,-20.594321685534698,2.168504349675643,21.681553806460663,35.684995614278606,44.929280566334086,48.58105154612664,45.11813345382419,39.256616870003526,35.26258608093776,29.322203639925842,20.601071453179717,16.78623253111813,18.598127823695737,17.29251281497949,10.39909326030559,4.93955650441482,2.7940867407447776,-1.4720494589592272,-9.273120988450408,-19.046667563079005,-29.152003064713224,-36.61039628490908,-40.28948490449497,-43.25895022475844,-48.73031828953837,-56.47687230619355,-60.958389036822545,-56.22098017247167,-42.487070380254764,-22.237074035604437,1.3064808901622025,22.40990652632041,39.420084694966164,53.52660753125038,62.094447767587155,60.78286507097859,51.76971644024815,43.30639323072484,37.71252105143022,31.192267422134666,26.461673205091774,29.16179787770424,33.421748103254345,30.02999994287799,20.08755306243441,10.706165158009528,3.497300312791246,-5.225942213578716,-14.263660458627916,-21.81488629541226,-30.467597201043503,-38.45617759890567,-41.002629536989836,-42.653225401080356,-50.6724011478971,-60.34736093854393,-63.57225195489444,-60.21542013315093,-50.19920871053132,-29.77956665366444,-1.5930389910392089,22.037727567389165,34.917090966415415,41.66725894971441,54.0,108.0,75.0
-40.03079629339591,-47.566072668614204,-55.607134181697205,-62.987671775830115,-65.79278892002804,-59.79680386383517,-42.143838364776215,-14.387545983133247,13.953271305660941,32.975172631562764,43.351762041630096,49.44104719757362,50.072904436792484,45.54862601108818,40.06259225737523,36.81628411437793,36.10251595354155,34.65165628786847,28.913515758489545,22.20630253157036,19.238887276816087,16.330260170063212,10.342083511278064,2.9989619332560324,-4.720681800114151,-13.373265805703717,-21.25402567117666,-25.499242914959122,-27.006014887976985,-31.814016632260724,-42.14349674751996,-52.37450099831505,-58.14010384679139,-60.74206843913605,-59.79297030954896,-49.91109955043193,-27.371797539461095,3.582507843429724,31.133707023811777,44.7606666583578,46.02443664368836,45.85521772794686,48.889195483703,47.82586992816694,39.36935957748141,31.881673827084015,29.78572542457597,28.451890558730067,24.71698353654929,20.464963695250802,16.984924329927384,11.926554601985792,3.738526552426296,-4.1642342056456245,-9.611075406370873,-14.713868637203118,-20.940338083690307,-27.641663174719348,-33.50593240387014,-37.91537824640601,-42.712009943491026,-48.66798873610478,-53.70171440739108,-57.03277435786889,-56.069758852265636,-46.01628251494007,-26.398619000858957,-0.6562292048446132,23.5050207798891,39.97249904968645,48.68200784216076,50.764818215258366,47.34052921199735,42.04011575020983,37.65573773882043,32.519125173019965,25.69253044171993,21.5375509596118,21.57809176587841,21.66727165852594,19.413223521680273,14.838255683528885,8.95843734901532,3.4521867501265935,-1.298839730265601,-5.768667322609707,-10.683128662093969,-16.451261654549903,-22.553115933716956,-27.221338927553774,-29.221417185299536,-32.542571367865726,-42.252002776734535,-54.84875310126729,-61.49181023897013,-56.853652427672586,-41.03691359988192,-16.124209269568166,11.841790136668521,32.54414580089043,41.12323653642173,43.23748752453761,45.104751239383376,44.49297418241632,39.44722723108066,33.08716434298863,28.131837507260123,25.486741541642413,23.33988041669629,17.268611868595205,8.297421858062165,2.535604622116397,0.32062326692597115,-3.20743316836092,-11.28766864169157,-22.021721385807865,-30.280794135934098,-33.44522369491602,-33.813878452873865,-37.405780092562345,-48.221041189665854,-58.552671611790466,-55.20811658346131,-37.08614492342425,-13.842629495446369,8.271052661858164,26.316743848542288,38.78967700715429,46.699346992735485,48.22734782435348,43.35399467299603,37.949451638547266,33.99285145945248,26.81425312778069,18.692675387820607,17.057984085243092,18.893982747595892,15.650781782041289,8.363021162874919,4.1926398219805465,1.9691124941963998,-3.435294366302064,-11.948951003676768,-22.044690447632117,-31.709937425826993,-37.986871601845905,-41.038738992170906,-44.50536416894396,-50.87897144248349,-58.451660074351025,-60.64538691661653,-53.051296707558635,-37.21959593915247,-15.531652380332355,7.860719691603471,27.66621205938221,43.81757667777394,56.79414191888267,62.822692532495445,58.63014363646118,48.95816117368006,41.558984470847285,36.00233261016414,29.293357740677763,26.472776966163774,30.759037133362895,33.398930251144655,27.528129270005127,17.063265576368767,8.566418074381636,1.208385055748571,-7.977037919266229,-16.521208973772296,-24.11546168260741,-33.12163712889293,-39.77914802051111,-41.12657733262188,-44.26413048126424,-53.76752603305863,-62.08146492856654,-63.184149513607494,-58.1511072599951,-45.487483681521056,-21.979039910727995,6.242946089069074,26.767226253380134,37.259316878970836,42.90049096911128,42.94028886747703,35.47037205424157,26.772960378252957,22.3247958501176,18.924233860913567,16.15285637135694,19.03698022508966,24.553183452155967,24.36045923237,17.508853966829303,9.730277729758585,5.227838247296038,2.4007161238801005,-2.0382857474867677,-8.486239464223992,-15.38817023835488,-20.341320544235344,-22.473450079052427,-24.648983761525713,-31.051883445270743,-41.7432377346064,-53.6210913017099,-59.639206396926625,-52.18855892784184,-31.991768495916254,-6.095065416827606,17.395362711702408,32.880438588786035,42.068296634941326,48.98769859908135,51.971835037413875,47.2906240353557,38.215442611352906,29.931025661660087,23.449517419280543,20.72468728932393,21.90276069544086,20.55130688571215,13.54414648025412,7.329333589604337,5.084291171501395,1.930828171436367,-5.43212908596274,-13.364715070335565,-19.75580420869671,-25.818064118131623,-30.87155270711988,-34.99152845601815,-40.59092315142437,-46.915656602642514,-50.52672203550384,-48.18236623379445,-37.665401338728074,-18.19820732434879,6.396869940945467,27.698845245268743,38.98866998706556,40.39159639710728,36.06098164919679,29.823318925884053,25.582086614573015,23.403176275690186,54.0,108.0,75.0
-54.85627390578936,-57.43973019442851,-54.21283953510727,-41.25369658650518,-19.316538337916892,6.8685064741726505,29.148540899273097,43.210656781995944,49.94576471153589,50.22774566608918,45.80810212420643,40.67418836658026,36.3864920172194,30.60055675827642,23.99786109682255,21.26224531657674,21.775914758453414,21.279723807306166,18.302763812113874,13.200490311231684,7.2750624134806765,2.0213917384004274,-2.5940444149515773,-7.107756894038329,-12.266715748944613,-18.23202190464968,-24.154065169734334,-28.022384245568478,-29.73435314256147,-34.650895973620756,-45.97388574071349,-57.734187315202135,-61.379773990135256,-53.36231894112345,-34.62597931761555,-7.926150739897157,18.987157265329934,36.18419616756976,41.99892765630971,43.75432166078854,45.39230825821332,43.40026187511136,37.58582936082918,31.4397740621295,27.138105354702123,25.001917897030335,22.127262923183082,14.698361884229106,6.1200904711384,1.717058241994622,-0.3482653239093179,-5.0468553457305845,-14.333315189827225,-24.86804071927638,-31.70286923329694,-33.630300228768284,-34.2075922507642,-39.864936318107524,-51.899586632806056,-59.37255736783296,-51.124786362506114,-30.488948274102565,-7.204381617700489,14.032694021103172,30.453940445358235,41.55041301599113,47.92404464900579,47.28299157062954,41.57671745244588,36.830242019568836,32.388916246332016,24.175562435866016,17.42013372517821,17.665959764597908,18.6832221873823,13.61565432026745,6.66857663186512,3.636998380509847,0.8252796128008496,-5.658129568506559,-14.758859993769502,-25.019659254812353,-33.96121986664008,-39.064751254985126,-41.8345051479005,-46.01980856841811,-53.16963404719928,-59.95990467119245,-59.464328723609356,-49.199610753989276,-31.450349742927123,-8.664531044095353,14.062897292343573,32.617685427619826,47.985871391312855,59.48403999782691,62.63118061227334,55.991610915342406,46.410317194603984,39.98865912456348,34.11905585391278,27.726854217193033,27.18908772105891,32.193748614812215,32.58116255222553,24.622400251455385,14.26885945401105,6.540155495720183,-1.2908227262397065,-10.650248105976342,-18.66784303029565,-26.59506664924381,-35.57869692552064,-40.565772855234854,-41.41887005181153,-46.51609622349623,-56.739979603250276,-63.14833497661727,-62.31594777760579,-55.47301535271015,-39.79548697090533,-13.72533493462967,13.346938548145063,30.596625900101134,39.26084515264406,43.678289826582954,41.43076257406691,32.67986238183618,25.073083904096613,21.43793139083312,17.82397549821564,16.308561749054157,20.76139910232903,25.32341138454019,22.86798765422721,15.0746994161539,8.059163605835783,4.416501143937178,1.3592327815950709,-3.738961455621288,-10.537270435543672,-17.110696891456044,-21.202309280165498,-22.87728526999408,-25.967706740700315,-33.79910569341204,-45.26302592200739,-56.38307753058548,-59.02988670287672,-47.40429185872376,-24.739645315428756,1.2884646924194847,22.762692122401344,35.95207879863617,44.242952815151895,50.474205776699804,51.42707522594116,44.812460572047854,35.65075037461126,27.83477621503246,22.15812282820868,20.845240829912004,22.11397574588062,18.93399450124334,11.341348223660166,6.390596386256903,4.546035025303004,0.16906932684102452,-7.874664113091332,-15.31622894012808,-21.52481463396734,-27.44570449652442,-32.05326596682699,-36.397027284554774,-42.48268014245196,-48.3950821299196,-50.58098577002923,-46.0559464174917,-32.91403283781786,-11.291470101216706,13.283114848466042,32.125270260385015,40.24089471974871,39.55355884457771,34.277255679242685,28.2632580909317,24.908153276793517,22.516768973543723,17.158700370646347,11.512517122017798,12.601459727702611,19.605082683751466,22.512925813719995,16.30752481333685,7.5514399273739805,1.5463176067623459,-4.980777650235346,-14.280255140312745,-24.195959610774032,-31.94154548584484,-36.496102612650645,-41.87751933131192,-50.989240152308646,-59.05568979944493,-59.604082755124445,-50.97214719490815,-33.37620706145187,-8.621114455949767,16.586719123919192,34.59251146029845,42.95412711923724,44.844418715937714,45.954802161732935,48.375893220531516,49.01198787687294,44.44530079051603,35.732663531038384,28.94808514810572,27.764135454683252,28.146947696589727,23.167387236070407,14.216678164798626,8.695492837129756,4.243603034737987,-5.406119149945609,-16.10823966490901,-23.734980071537574,-32.15289730088851,-41.371561547482045,-46.26724192359289,-48.67344832879137,-54.7612354216227,-63.9385836351033,-67.20762446797812,-59.17405821494206,-42.99458437375358,-22.249936482869963,-0.33930921811870957,18.094999860430672,32.41471483788132,45.4272468291803,55.17467372632396,57.64702953641547,54.59764411631301,48.32809943345736,39.454894233124165,31.3807000226398,26.172390490384494,21.739136135417805,17.036396384432592,54.0,108.0,75.0
-0.7383197781037816,19.37632602777264,34.129693316272764,43.955276776410464,48.52543681621575,45.87568897366407,39.93852846152934,35.774452413058945,30.379622729657246,21.653341605861005,16.83711828177715,18.340738423093708,17.870587959783023,11.408022111339772,5.392067619201691,3.090920287100853,-0.6690438636771134,-8.091333289960103,-17.675885527995906,-27.88911210415501,-35.85879694405033,-39.93181457598385,-42.76477496577073,-47.813923868493866,-55.465092824478546,-60.81981561643145,-57.43078302803324,-44.73595276865391,-25.232416619412444,-1.8057493298510812,19.866593899782572,37.32290261877309,51.863067422877904,61.45892398724738,61.55136419729746,53.11141320636346,44.206752913236315,38.449120800214054,32.11798426503093,26.704806526145074,28.458617007179612,33.179977423040135,30.9939717430486,21.52378192932295,11.765555181782025,4.487183656858717,-3.9610283381569813,-13.166143108377183,-20.803957434680036,-29.22797755253987,-37.66114481532121,-40.92614228055417,-42.13094940203333,-49.28321869396498,-59.333535289879855,-63.57390693367416,-60.98833855798407,-52.057669546830006,-33.140925606558675,-5.373184479272146,19.525398168486173,33.688317236698914,40.9768232454602,43.87784824942172,39.30615747937822,30.029929042054167,23.768793126220658,20.490537093553975,16.877496338921425,17.051409474679243,22.50306859851785,25.43357185801021,20.90118390124592,12.733207897593436,6.712657843792121,3.64867201987639,0.12341522633022368,-5.588733276743503,-12.575098146846628,-18.610682277050547,-21.830443929495033,-23.401945515157703,-27.720769004276704,-36.856497644602484,-48.79470351633584,-58.42294685458822,-57.15618092421445,-41.67508394171627,-17.203878166461347,8.2668858505602,27.378737318193934,38.621120079862706,46.29734602497108,51.517816219145935,50.17998472107005,42.141381347247695,33.22735524397828,25.89228430110876,21.260240760090365,21.235299753035342,21.893132460199695,16.884662164066224,9.421708114023463,5.759348708469982,3.7582866001578448,-1.9495590074352755,-10.224095120904142,-17.156417669578662,-23.292502127199636,-28.943513201520016,-33.20035159583078,-37.985437930530125,-44.366299552110206,-49.559547816027646,-50.066458816144575,-43.204482264939095,-27.411252695217513,-4.11481697309088,19.66508304376374,35.60191797293958,40.74727169036299,38.33965722191592,32.424772354408724,26.968240506489728,24.33624187350643,21.328441127378326,15.228188145389275,10.933203752889382,14.37318467939722,21.323684086399364,21.52776425431572,13.63286602669934,5.5676294221185945,-0.07487827637918351,-7.435751580488339,-17.20684936534814,-26.77471403941381,-33.49849024738386,-37.719475879683074,-44.196150483586706,-53.777353583755286,-60.148969543421195,-58.041032997538714,-46.79860876492095,-26.757801321879935,-0.9943369774949402,22.760831405027023,37.947303306007285,43.91949064444268,45.029912620070874,46.59278868331771,48.93462877343046,48.2989555276729,42.14125652978232,33.28648181047513,28.062706292796122,28.056717970851277,27.43816930631211,20.627463607638592,12.11089348345722,7.688155201910354,2.0142988994732423,-8.74540161894782,-18.541473976738374,-25.900597712844455,-34.974816241430965,-43.34221340429954,-46.920303792921835,-49.879440264170306,-57.400226872492574,-65.92139973066126,-66.00705057994625,-55.13357715656416,-37.35558076348128,-15.828200705000365,5.495153939940139,22.52720255850295,36.25496299059594,48.820705330961104,56.66922012031913,57.16545320314082,53.10778238034204,45.93859246636959,36.85738086732888,29.62420694571329,24.931149260906786,20.34836922469618,15.877341403808732,12.70335460840314,8.10446628182718,-1.1171961677730233,-9.898282168498747,-10.35418363865777,-7.154569604417664,-11.705941726024317,-23.032564097434545,-32.77200712819529,-39.26722514400708,-45.90720129070697,-56.330032552758205,-67.81900380879095,-69.16665058544679,-51.92051303833796,-20.745563800146005,12.61373652444373,36.61520174478669,45.81524180049776,45.80512777084968,44.35612527632457,44.19505045895218,43.533246586036405,38.89741128210581,31.71717191962475,27.081115876986996,25.04615827052679,22.432920703982397,19.316241331389058,17.334308511071807,14.2180844053242,7.201506768104067,0.25077191282406247,-3.6034878208961962,-8.626157940604765,-17.456300525325805,-26.040311776936836,-30.267636416867166,-32.51019214450274,-36.070571626320444,-41.49589947065526,-50.17076178185365,-59.84319353103449,-63.61053970354376,-59.041091372007145,-47.55316883568178,-28.28572522821278,-1.4676538967606525,24.57497047161781,40.7994178357813,47.87031763449086,48.202677705302584,42.39364017340095,36.75552905281014,36.29453688282734,35.38893073138244,30.067757086503875,25.126328435890272,23.49966602676517,22.340316054109355,18.46211824448907,13.039957071236865,54.0,108.0,75.0
42.38116057643594,43.40118020097094,36.73967989019854,27.70466185204263,22.74452890687858,19.43650672142926,16.2715783900903,18.31779445341249,24.005057742869695,24.85162013923969,18.61946703401612,10.610739434995688,5.6466135434934905,2.82332640882288,-1.3122593056271215,-7.553362191985143,-14.53186722120536,-19.856565670274822,-22.290966841750414,-24.17695973213688,-29.907133102250306,-40.15836500372139,-52.17278441619318,-59.51084114485518,-54.03009304819093,-35.18609669155366,-9.582112922076501,14.671443378979829,31.288961350709076,41.02215255845762,48.191726817002426,51.98256779888496,48.31664724238755,39.43900777421171,30.941532926188014,24.158172013467283,20.795138251708423,21.713096107671905,21.111858673801713,14.60715929758492,7.892971892586145,5.2918712149580065,2.603722470859512,-4.3060320903620815,-12.413648198179041,-18.94011357221691,-25.034738863236736,-30.294378744636983,-34.39911671651803,-39.74004850051763,-46.15104872526427,-50.32745959508756,-48.92913373876244,-39.593070181289285,-21.236669798192576,3.1118885214984306,25.352742652555545,38.1294449559031,40.626689575498496,36.83213365221298,30.613742867892167,25.95919501450542,23.731038660233853,19.817806541757186,13.435703891598703,11.081066597776397,16.49023939446234,22.405860311849697,19.788512922167985,10.995081029953173,3.843262019640282,-1.8780888717423503,-10.112464433098893,-20.115501765237184,-29.100134881055894,-34.80294155263882,-39.162999108695715,-46.833959080387544,-56.283590471558256,-60.495576397855004,-55.717890640817224,-41.87413890616368,-19.621501448661395,6.455149479606866,28.17557049329876,40.50057474846042,44.46704200900783,45.29553064722815,47.323915783536286,49.23616556901079,47.086624162913644,39.58021446171603,31.180932043450394,27.669462450641184,28.30305642517494,26.12539142242626,17.928457173135758,10.453200707341347,6.561421387833203,-0.736540103850272,-11.952263424453907,-20.71930397161311,-28.27475454785779,-37.755286344348114,-44.83628303197736,-47.51674146395956,-51.532145472034024,-60.17513619798441,-67.138153971248,-63.84131618477042,-50.53686467212651,-31.394296081699313,-9.41426417004127,10.927026074894508,26.669598289124444,40.05429544375386,51.81179621254225,57.4980246552588,56.326246007132085,51.36226078708944,43.358899464038934,34.443178884482926,28.105797795446414,23.67599262020225,18.953520938656055,14.860641426658121,11.735128917024188,5.892505830738814,-4.1484792419762675,-10.98958126532759,-9.238872213196156,-7.389686665368255,-14.693672512544412,-26.23878367349534,-34.88074468953216,-40.973367587281906,-48.46158608081415,-59.92533733949145,-69.81535035293807,-66.14439980357598,-43.86005159260792,-10.791088208658262,20.94627647649603,40.73086404092955,46.34309653030994,45.31482464243606,44.18091445787144,44.225844732845246,42.68232618410339,36.84448449011268,29.97505566784522,26.382633966123343,24.42760987390976,21.49107695149936,18.623579036434894,16.758432089629704,12.544686910758735,4.908163196251449,-1.0862239156643654,-4.692547159302222,-10.86058190799371,-20.23204060323109,-27.72920220019994,-30.901875075432763,-33.36796172809269,-37.399390222325025,-43.63470169593792,-53.14620567178629,-61.79616192022465,-63.07716683190005,-56.417239391109455,-42.86993800437039,-21.119700056177333,6.6739192045564275,30.416488374608747,43.599418860631964,48.66533885826287,47.01442596809531,40.35000527582898,36.16986584098156,36.4456122804671,34.19220557747597,28.345386681701793,24.35828306021742,23.320578442073923,21.526233246561674,16.919895889684906,11.644537649394433,8.445271874521445,6.388175606848713,1.7559488781542574,-7.165134543537693,-16.625592235914876,-22.67152363914941,-27.901896543996955,-34.28060537141472,-37.34891158914457,-33.946746770518494,-29.227650112947995,-31.503694741450246,-40.49225940561863,-44.77642274409975,-35.728793674525036,-17.599752722048574,2.2424088075816546,21.287216219944757,36.79708551883363,44.87830453360649,46.03127788324344,43.51950346379101,37.17838291718467,29.39740420847391,25.729994924041364,24.58093140786334,21.42341769062949,19.44829610645664,22.279601518943302,24.23931406821938,18.521467905058536,6.832531976114529,-3.4319380557051913,-10.55234930613301,-18.902238396575477,-27.407329482591873,-32.314543837770884,-34.42073427301893,-36.66228565773024,-40.70325401957865,-45.17944637412093,-49.08765023909407,-53.63349982138152,-56.15857321001595,-47.83986227290112,-27.842183211116613,-6.515964475716905,11.59301095428067,28.64595978592046,42.47919695329445,48.160142590802884,46.60912357316732,42.74505178588181,38.91138399689616,34.78442036540133,31.805886182077323,30.82564717669793,29.244701576623676,25.522603632895965,20.604681983658388,15.2287759842341,10.674920074863541,54.0,108.0,75.0
22.95921540408632,18.037783229826882,11.999113430356637,11.966368949515541,18.666617967935437,22.680130248629236,17.489271436047975,8.570012083469031,2.2644649309409814,-3.9376001903411137,-12.943328713631837,-22.94049710783179,-31.119790898777488,-35.96704672988936,-40.934354983486934,-49.6659135305503,-58.318951560582875,-60.06511498186216,-52.64277815172917,-36.21763935441308,-12.135245883537998,13.51500416327634,32.76324274797357,42.32786272065528,44.75508546766149,45.708952609334936,48.061794128897844,49.18080012473363,45.38258427410803,36.931923003405615,29.533850239475584,27.670916498451025,28.29216771886235,24.21827113452776,15.323732046363071,9.188519977629852,5.0869949590537935,-3.88003069342616,-14.875580361703262,-22.78036107320335,-30.884272771230748,-40.312592817686735,-45.895034922292304,-48.245723194709605,-53.646793672861996,-62.831375273498075,-67.4186605505157,-60.819548276195846,-45.47022600842292,-25.17809288655613,-3.1447022985918966,15.928702273870936,30.626338997871564,43.76959193329345,54.258949306511845,57.72146521736881,55.201514936554055,49.34750866471567,40.68616208148082,32.28256400818495,26.758219054911557,22.365124152198156,17.616894475100853,13.958918746684706,10.530825947495277,3.2511535168480514,-6.9034484905043865,-11.244306226197374,-8.105634211164306,-8.517861741533059,-18.039362515670508,-29.140384179856483,-36.7573788040719,-42.79882537906708,-51.40894567449137,-63.44381092516447,-70.62899620888287,-61.46476651248697,-34.883935236548695,-0.9512082072871885,28.224165713815044,43.58213028950244,46.336689566606175,44.851343086984826,44.1312545653992,44.130002381838445,41.42021895312233,34.69590559662825,28.56054014216155,25.824553351484454,23.695144360826426,20.55261155334388,18.0574359237681,15.969697910543559,10.525389441208379,2.7934972006258754,-2.1751245422211056,-6.033786949320612,-13.409368435119513,-22.830550986609396,-29.001548307324686,-31.499120699422413,-34.3696799189981,-38.89563489206027,-46.091333201696344,-56.07515415275049,-63.07583787873575,-61.874949692623936,-53.242440079101335,-37.483059777083916,-13.374456594250944,14.445822637259273,35.29751759096945,45.74671630973997,48.90526737476008,45.34422859389714,38.558947535959646,36.03943664194112,36.326322902120864,32.64076249775471,26.822168691222128,23.87154688678062,23.063484768343805,20.444499366510723,15.316216671379133,10.452945428009908,7.887274475970686,5.468121516852194,-0.4366811037114714,-10.114006011402584,-18.722720956648455,-24.06191991292226,-29.730011310509525,-35.768518946205326,-36.96903597164789,-32.30826895285224,-28.92853281953328,-33.772393915552456,-42.809735736888676,-43.567741070409085,-31.020147525506367,-11.861382343336667,7.892415434301611,26.324667099052416,39.99655406723477,45.75128063137493,45.62722525161229,42.108139402605524,34.79945929843861,27.795529970143175,25.419288391327907,23.893592235335756,20.442488463107594,19.848887605126336,23.34432612979603,23.48429530500237,15.456773514519249,3.4396687898775267,-5.623468735015458,-12.7288427897741,-21.55784267135747,-29.25226466020256,-33.08269804298476,-34.933551240228944,-37.651014827146334,-42.05525144306751,-46.32335385906519,-50.30962366344703,-54.905568484982304,-55.21685605666445,-42.87553104120842,-21.396305333137683,-1.0233608699591021,16.578145843903147,33.23385203160117,45.062849872633464,48.24535740136753,45.541408104984164,41.641501219150925,37.736106189765984,33.70146162148553,31.3875616277511,30.565853228778803,28.367380162578893,24.176203745590417,19.073986582362362,13.735657361536395,9.757753564677197,7.390182623425516,2.796747290626345,-6.087012931376257,-14.268062613482833,-17.754908538909106,-19.761403362451443,-25.247456566297817,-33.86456808424905,-42.49258990417507,-49.533830443725655,-54.954307358342525,-59.55972159274608,-59.48286068746657,-46.66312246169975,-21.941577893796083,2.939977513613351,21.025672643463768,34.8411460756904,45.305392262806706,47.33905397634675,41.048051891658154,36.14322012086741,35.968556252889506,32.94308619283838,25.565827602314698,23.214032613275155,26.770156203292217,27.469842336447535,22.459040400378786,15.89549093745844,9.399594825970771,2.6036156476855234,-1.7125771709834148,-3.1986570619558212,-8.549088971417106,-19.23666729062284,-28.566810255865793,-33.74113798192687,-37.80246268302482,-41.96085667624513,-46.17445739357129,-51.53208647228563,-56.4319658213865,-53.80495390136253,-37.95734474967933,-15.831990831867712,2.526000268753071,16.31903153334342,27.25953519144876,33.91540363825062,35.64783317142048,35.43248202390083,36.16763743416833,37.556560177090425,36.72943458831733,31.277734642540903,25.15492678956084,23.02949082473309,22.509194061901404,20.509983169418888,19.39422685982241,18.951504425445606,54.0,108.0,75.0
16.393835891613165,13.106428939400534,8.969428532453488,0.29703850135934823,-9.118347160842987,-10.763992126356566,-7.31503966254719,-10.523548553833699,-21.478173223389003,-31.70196583860242,-38.4896059279534,-44.8544781683827,-54.71452595719894,-66.58743724394718,-69.99675929367245,-55.247888606554106,-25.292249680560055,8.481364745495414,34.270648857108554,45.325329044679464,46.012197194370266,44.48306814485114,44.167420753466445,43.79594046139228,39.768662594577435,32.61396496813002,27.479608941057187,25.30090745303568,22.85134774953342,19.68084922145846,17.563813522702095,14.858361706949879,8.273804314518534,0.9750657319588705,-3.149440663683214,-7.72043665516407,-16.16016149029224,-25.11756123012118,-29.926760613842777,-32.1632157255451,-35.50438054587182,-40.61319067868558,-48.83363408281298,-58.751434548789724,-63.61438874656903,-60.0661228458349,-49.490096257673336,-31.357836500471056,-5.258559652327382,21.568748782782016,39.257584149674244,47.32375317408969,48.56090587026732,43.35661843839754,37.20401419891342,36.19163269839241,35.79194001694018,30.89144584930508,25.58734337144208,23.58940483178263,22.624392358163515,19.13037651297437,13.736457622961378,9.489564068009164,7.350044039219303,4.236760689015115,-2.9914882769611846,-12.951262582137327,-20.492742169354447,-25.513110147354954,-31.635433703285372,-36.81906291527814,-36.03428835449944,-30.775905234460218,-29.39824556869877,-36.46246557281514,-44.37483409656837,-41.1525153077508,-25.77833072198962,-6.10938502147026,13.452065025355145,30.967364479675368,42.48945303364045,46.13045929162602,44.97665316544995,40.3334565953553,32.438546189811156,26.655826543610452,25.169300049458425,22.975276717749,19.72951032991877,20.668439863309754,24.101359694805012,21.980447018929752,12.032160833704008,0.3660093561473816,-7.629291424102687,-15.1143288305628,-24.111491103548246,-30.735041369598743,-33.683683498262724,-35.53085034291503,-38.805971516030915,-43.377528370838434,-47.43141688284468,-51.62479023226464,-55.86588026709776,-53.11380710503289,-37.09344420736869,-15.125179935242397,4.2115868655498145,21.542374713392544,37.416622427194966,46.868686820873535,47.82842131100009,44.40379562889242,40.54863255056386,36.52583194207775,32.780871510513435,31.11831253983887,30.167585854282517,27.312542801437704,22.762328551560454,17.511062433410377,12.364437201648386,9.009762796670651,6.50959534357029,0.5569131438291955,-8.820348008554108,-15.741625165498519,-18.217698373884645,-20.881401518036643,-27.566549450610893,-36.45469930237359,-44.727303316259736,-51.21900013419011,-56.39088642491018,-60.38482109842518,-57.335872219086376,-40.320175824170676,-14.23804770576636,8.861215359133617,25.27906382386763,38.36981222546158,46.98630658547057,46.0314725120143,39.07611030931756,35.82594688954866,35.75142894171421,30.90570806097832,24.027367590699054,23.97811211713576,27.602686881423114,26.467620027864193,20.54927198152846,14.056033429284621,7.4083404767899,0.9378464376691866,-2.2111008115255624,-4.056993055156175,-11.326042186026301,-22.35884048131383,-30.39484461746019,-34.90099028062127,-39.0188340616595,-43.128680880484694,-47.581491444508174,-53.20756293232198,-56.85272982424283,-50.53941838881856,-31.642706074423828,-9.93323947377279,6.851526739631667,19.793183717677895,29.71070627930329,34.853340134871864,35.60165408560132,35.50737581909299,36.579419536829676,37.72655687131521,35.58566865217583,29.277105145322125,24.102142626900736,22.940788777544157,22.06124923952001,19.95152437541414,19.424621665778513,18.109655595022474,11.244015061905131,1.2276683977835654,-7.815018224826172,-15.47394907424234,-22.256527411753353,-28.91856739633861,-35.8055135435778,-41.99509194876552,-46.1067184587363,-50.740894509233165,-57.39149030171188,-57.26432613589356,-42.038633832507266,-19.472582241357852,0.9446493412811519,19.958188468407453,36.17457533738233,42.741725889347684,39.83939273206192,36.23172770669515,36.82340078028744,34.88057734724491,26.58005981757645,19.59570988378031,17.741819483971828,17.770727350940305,17.311965457363105,15.50772171694473,11.923985387889582,8.341356924579921,5.244358531853532,0.41539661438090064,-7.351891413273849,-13.756392611959342,-14.738330817943602,-17.45045665705266,-26.627034021980847,-34.38673622268854,-36.65224037940425,-39.94982295100293,-47.60626735787235,-53.56538069138652,-51.83457869816214,-41.73212305434422,-23.63702587308726,-0.19225458473293602,20.628172546494383,31.88906953612905,36.67045571139035,40.91000693386718,43.30883251412146,40.90417613330452,35.72669095745325,30.39098924625625,27.109660325360984,28.431454702785242,30.47518630360979,26.626567610669067,19.77754414737022,16.179649122797226,13.151880105230907,6.144856014570041,54.0,108.0,75.0
12.265483430246796,8.736394715868366,6.730099888603389,2.631648139112369,-5.812679682495671,-15.540649876625215,-22.01781865059685,-27.10875152554033,-33.487970793783695,-37.320343705101486,-34.669975034649944,-29.593596635704262,-30.666773832921375,-39.26243428375192,-44.91909735411589,-37.65335303284321,-20.220514938842456,-0.38306025038088254,18.86416108959611,35.09633850331288,44.277521414718386,46.13177037890361,44.05182063787901,38.23158365417307,30.279811435244838,25.943736975285113,24.813892075003945,21.917614670984076,19.42658822842328,21.751055510636487,24.34406406490336,19.760281157558317,8.464411110248953,-2.3200123105291492,-9.60849280207267,-17.681270476330205,-26.437989031134876,-31.88278735190633,-34.194661838331186,-36.26649815774098,-40.086882214559765,-44.629427260378435,-48.552645129342324,-53.00180285830958,-56.251655516548105,-49.77787164353182,-30.814593182563797,-9.154969326148304,9.283629584054761,26.439452444333906,41.03657332880511,47.914606221913935,47.051114628728754,43.262858977962075,39.43721105350562,35.32121690738083,32.06430241292487,30.919118650479646,29.58264939596134,26.11379251484574,21.29621454351155,15.942239977713424,11.163374578165742,8.365614741923073,5.305696827641836,-2.020677027321072,-11.313495368737541,-16.791806449877008,-18.703294533241028,-22.386057391496983,-30.06968736053327,-38.98282939650632,-46.80153622782316,-52.78836932465863,-57.780419028839034,-60.64004558988418,-53.92650371396157,-33.16111376533489,-6.858921449076559,14.169186862632808,29.29769256787406,41.56524393319775,47.79631257477957,44.16357197188913,37.50245118275824,35.84182320030061,35.038810579333095,28.641636907967396,23.169958228683047,25.088093447523445,27.961241631367972,25.036330069567708,18.63147565366131,12.20245210902788,5.399501982636166,-0.4095116026444007,-2.5506187919566448,-5.445924765707,-14.456804343961126,-25.174162870374968,-31.900052816582615,-36.05987918398712,-40.22994910043524,-44.31638069479775,-49.11503945355017,-54.75962560675462,-56.41053648912782,-46.11236115029493,-25.120157196403905,-4.520531752188662,10.869672923086274,23.03755691773953,31.746465684492808,35.39544571365264,35.50164119331803,35.69926198726108,37.01593067277746,37.6087767559239,34.0375019847534,27.391575816919605,23.444102873667525,22.852890501888474,21.466321562998523,19.575545663253397,19.41370713476788,16.737388700317588,8.427294738408134,-1.5556524478511058,-10.146384578968528,-17.495785743514013,-24.16360038516276,-30.889524663650377,-37.75826083021688,-43.37283476345585,-47.19600792064347,-52.63206770302913,-58.638515654050536,-54.375912688589146,-35.66187804472611,-13.24903516900688,6.47330182679121,25.226396343433827,39.27974775383254,42.57605198756015,38.44336910682265,36.089824069206735,36.94137014598402,32.92108142085415,24.054642261784412,18.623586679832307,17.71734415889807,17.728477113185214,16.97301606986611,14.61602220517435,10.79434062201444,7.471762440788079,4.136221587471962,-1.5826713978583304,-9.673454435076515,-14.483636782124881,-14.878932848505533,-19.62899683252106,-29.43785468960197,-35.43626659545408,-37.157993847553,-41.84987465886639,-49.87337621076693,-53.9544954868623,-49.75496196799442,-37.29462593263609,-17.157247630009582,6.530350924781558,24.930437539206643,33.59414024560494,37.85642535958104,41.99993682630354,43.09695922021623,39.54127509559397,34.13087964924126,29.082742800877647,27.016670331427164,29.317726348797063,30.066699832345662,24.587069633171314,18.335921938314204,15.538278397156033,11.5782922146669,3.5010981628414743,-5.521364965180502,-12.168870911106971,-16.289189784934976,-18.500606358453265,-19.975471634113916,-22.94681240295279,-28.44466873188845,-33.668150196846824,-35.39378163020197,-38.79605161086062,-48.66807871077873,-54.415075296928435,-44.65725854592483,-23.318800079998194,-2.402009565677037,13.21007576553284,23.520015179593205,27.585037201508715,29.907066225317422,34.13428216363676,35.03154273085406,28.36034868325742,21.010825788863155,20.52461239619157,22.224234982414785,20.7541171542766,19.29695372287353,19.046570081796116,15.81889826379054,9.362675656833442,3.903654331418005,0.4604049170070499,-2.3919576076263644,-6.050808267061911,-11.711773013830022,-18.320808581401906,-23.558275015464687,-26.57830307439604,-28.798157338063337,-32.83125305251372,-39.18235292462772,-44.16745111550094,-41.053506904035956,-28.952628924232723,-13.828830913279198,2.4233284913969584,18.42370847202457,27.74983757738142,28.287604449426627,25.474090883213538,24.59624639062249,24.733418721187558,22.500310018240494,19.21442154580333,18.166446566841504,19.83141478489992,21.64406126884856,20.58718990481394,16.412857592222466,10.634662849792099,4.559365876416079,-0.3151400307620625,54.0,108.0,75.0
10.157106466655193,7.7222194007486475,3.6898254610492325,-4.792440346492014,-13.436138570987522,-17.5048344300312,-19.36327639044269,-24.26751404516178,-32.66170384759857,-41.41343771680214,-48.70871048466743,-54.28146443892106,-59.05068761756829,-60.080278735652946,-49.234106286877775,-25.52440606256827,-0.00832057040040568,18.958348731048797,33.134484458745405,44.27119419895089,47.68656145912648,42.032661398439636,36.4483730306559,35.956543376049794,33.735011478768904,26.459102721996103,23.043933318028515,26.27303646250138,27.756512644746792,23.313150348891934,16.74974058529595,10.298970784096753,3.452066875788561,-1.3849972333633866,-2.9397477562551915,-7.435474940867278,-17.7347913258921,-27.592678381744594,-33.189223024456886,-37.246186742043704,-41.41979570341818,-45.56607422741681,-50.755029075201385,-56.01320927318444,-54.89993495028704,-40.70496660593304,-18.694844456585944,0.4047871008503937,14.647684275261483,26.002868191952924,33.335580978668766,35.62171138930267,35.43506171414884,35.99906478105465,37.41170792723946,37.107195045682765,32.18936681573516,25.77701241643419,23.108195101684316,22.65574467619735,20.806163595060212,19.41035027754335,19.180947195396904,14.830798931058615,5.48770410401106,-4.197915291487216,-12.376994311352151,-19.455837097289955,-26.08148828271768,-32.88332460752478,-39.60598846588854,-44.560011137644146,-48.44833921497833,-54.66265076119923,-58.97945833044654,-50.144767921442394,-29.03017540275918,-7.321927027503582,11.979021774458797,30.127127658788414,41.40728008022244,41.74366826763916,37.25444715128634,36.30418030049983,36.577954053711956,30.48250083148492,21.891145388838428,18.05886622955671,17.74703960260034,17.619319705748126,16.49837806020048,13.57909884543858,9.732252095672857,6.6128733881997634,2.817934667495193,-3.8328945120086595,-11.690867179071265,-14.744026996079654,-15.457963173927729,-22.315134991020194,-31.85165148928485,-36.06360362057011,-37.97399719887882,-44.08965758400024,-51.779601343253766,-53.61850627773088,-46.992434194723316,-32.19221391883619,-10.338174806792631,12.781703801816331,28.335112676501666,34.945978694828966,39.096934773275464,42.8178137215728,42.459128559837616,38.037420253345886,32.560007528919655,28.02075439103355,27.355467757230628,30.068603906644565,29.04623799842893,22.495941602282233,17.26505783899021,14.77560863089224,9.61299372295587,0.7801640491535189,-7.73270598143351,-13.593144894762732,-17.09134341731399,-18.919726184759885,-20.578038501556097,-24.320253648273056,-30.19681791423562,-34.497260615961366,-35.779849968012705,-41.168589240681214,-51.466052225470825,-53.32522277515611,-39.15238914028233,-16.804160127297582,2.6299427676708436,16.80294586780457,25.27003576203176,28.125237850015516,31.0166887274007,35.08730110349171,33.785429398411544,25.805618127578793,20.145757854212807,21.19110637932421,22.096701071216287,20.13237925559938,19.24935545485508,18.581571594698904,14.105823817729057,7.542422392515556,2.7617166615076627,-0.36773981334586187,-3.2933966193074506,-7.4733326362273145,-13.63242970772636,-20.05201506518968,-24.641960013893243,-27.181715559897558,-29.69121406027529,-34.49777299215363,-41.05176354698408,-44.34122225707676,-38.247390808479565,-24.681005727182225,-9.286188361218077,7.3014086456830185,22.07814697501781,28.656598141960202,27.509055442755145,24.92642629085387,24.722895312714435,24.37739319405666,21.492995126637947,18.589902860131488,18.439348715589695,20.496998022939415,21.71134953198245,19.636954288830477,14.84785102974424,8.849934929485265,2.953814415107874,-1.2783515501243954,-3.276028423112215,-6.400212883193405,-13.439753721160365,-20.685034602610084,-25.213223030241135,-29.253995703931228,-35.60823544331476,-42.738195311021364,-42.240054765497504,-27.76539464641319,-6.148542797530192,12.021497900081155,23.403849071781213,28.432467453414063,28.04752796432061,26.044576112162677,26.13127332747367,25.450548512204293,20.120569569082594,13.035662407903935,9.118349735184143,8.607429557445384,8.62868033625319,8.344580132582083,9.305430315587929,8.7355596334285,2.2923538871197198,-7.7513421890654355,-15.319857287646169,-18.249319858295323,-20.503367307754406,-25.497841227772785,-31.448216203665798,-36.411902126310295,-42.78758935832231,-49.799503308241434,-50.2492373101041,-41.36678736781727,-24.751300055880968,-2.742471560997248,17.69416975208844,29.37708655556301,33.3608391424162,35.60727789711024,36.228390314000116,34.19510886683563,31.541849998452275,28.1943425456121,23.290043176146277,19.232333694873613,19.07725930272912,21.352330521726692,23.496492994589342,23.815299911835307,19.70560328147044,11.935768468975327,5.301378993851292,1.1444777239014983,-4.322662173698453,-12.664614692599992,-20.109006036859917,-22.802001758033896,54.0,108.0,75.0
18.56046882524726,12.460133799137235,2.553133113102896,-6.702538080940472,-14.516247115974945,-21.376999384955877,-28.018143536870536,-34.886812644777635,-41.287931943261206,-45.626673460927904,-49.95258358851351,-56.6075130494355,-58.11969975235569,-44.79347430116999,-22.440191360552593,-1.6287427027216044,17.460150128218675,34.44119297979785,42.53833665320857,40.48750567915419,36.44874313421532,36.6731599958604,35.573544217420384,27.812712825244198,20.203917556838704,17.79420021020459,17.771644426534518,17.430434707546496,15.860943376299078,12.453392832726458,8.760853936279833,5.701024765308775,1.2395884588402535,-6.235700198304371,-13.233182456956314,-14.746825970233186,-16.663203262328388,-25.261096497553154,-33.721283731891866,-36.47259423988007,-39.21939961162862,-46.49765414534503,-53.149576809393885,-52.56045163268501,-43.5492225688734,-26.466405138232446,-3.380995057661766,18.34244446207204,30.926068938006846,36.13541571214694,40.3520851962644,43.25461337451039,41.46128409373585,36.462543212165635,31.05098482024295,27.302507453256354,28.040849424445543,30.463175434543896,27.48554517195201,20.566840138003197,16.483133417820003,13.745223350024169,7.3026031099712165,-1.8947480496867948,-9.704031036408015,-14.820961345748561,-17.749010490690406,-19.31503833923899,-21.37100439671434,-25.90166646737853,-31.81054837069791,-34.98956464236021,-36.555104494584526,-44.079705438822714,-53.504720550166304,-50.77787855112437,-32.941577037032864,-10.616812529404648,7.222557156974403,19.92767829776118,26.489525505615227,28.70960669815325,32.29260138730723,35.549712855894896,31.891855026701194,23.48152556107997,19.9441914630072,21.799325737822237,21.669597831820475,19.65103766281418,19.248251723729204,17.743969169657557,12.20334733879466,5.909815288470515,1.760321988839364,-1.1785405693841637,-4.301761421159342,-9.081994967554632,-15.576698379254385,-21.616835733998283,-25.53834843551672,-27.778763714056286,-30.796619703725312,-36.340792236618476,-42.667245624037264,-43.662932286403226,-34.785289088882294,-20.314381944640942,-4.618695016667147,12.066685013842344,24.985987328203144,28.87755135666663,26.62883105591225,24.63082849023209,24.83430857049918,23.76616746239064,20.48580414412222,18.22022934116173,18.913953546476517,21.08961522543416,21.477677972833483,18.457389699315254,13.18436122978999,7.071420270675022,1.4885485943360082,-2.0209107775450534,-3.837078382431803,-8.090689805619366,-15.748474531997704,-22.243843642027116,-26.271877929213897,-30.797922544794563,-37.8417811078758,-43.846718580882644,-39.442881242863365,-21.702517905488072,-0.24757581035136247,15.995773238457648,25.494420248663896,28.77731314887771,27.396834288935825,25.842421592753023,26.27315440211884,24.394823033115568,17.988718202031023,11.46408720874275,8.730076080501009,8.678904432931207,8.500914619940845,8.493792748011922,9.554141088874093,7.528133071016706,-0.5103611234521196,-10.415036271994177,-16.555256872941364,-18.72736251405765,-21.66182192957161,-27.26925576790718,-32.949997595532714,-37.971410709657256,-45.028006842086334,-50.8830654442991,-48.579349648906906,-37.30288748159124,-18.73760023646579,3.7226422162704167,22.124788377215605,31.027646604618013,34.045182307249966,36.07321035256108,35.84189540696777,33.42678684637603,30.717165197754564,26.90727616086466,21.84303628547342,18.760619550471475,19.633848923247875,22.04617799476741,23.89089586987253,23.157175525426883,17.656419924548608,9.705944565295404,3.9715670050792347,-0.1302901945506105,-6.515730111252368,-15.15835940321897,-21.38842960716961,-22.979516535556343,-24.799554909294226,-31.79362961197136,-43.59740858100989,-54.517204960287856,-54.22645715010462,-36.84292105242007,-11.678776955926065,6.522258461703354,13.11365878940344,15.492079982079366,20.08286762643845,25.306733354962486,26.51607201175555,22.80021675589406,19.234388878004886,19.857409686816037,21.043039804018353,18.03393052042458,13.681330734395738,13.232694854782817,14.791647669865373,11.989072648467815,4.006495224129213,-3.579615099710619,-7.573988894771014,-10.060376635949684,-13.145265128354591,-17.355844629270003,-22.534615077113738,-27.715714385367203,-32.40578144832913,-37.873382254659326,-44.17042678131508,-47.622686965435406,-40.82483419227203,-20.639086440761652,3.3147311150732595,18.38018987820148,25.304797223368148,31.75875745683084,38.0680305073253,39.13576152290033,34.457582604039416,28.344224948845287,22.96191488062012,19.751967553033708,19.903777394261283,21.243460398142755,20.530600920423133,17.50619551083854,12.995072476282076,7.9945175422991195,3.3524630685595405,-2.948284285222859,-12.24004229831774,-20.330661178323925,-24.787231932831894,-30.47615838358344,-39.933220424876886,-48.427572593831364,-50.686524604038624,-43.499094807209325,54.0,108.0,75.0
4.737359268897154,-4.42366126919748,-11.442082482116723,-15.865575724608826,-18.2856567179877,-19.74624856022043,-22.393418454309337,-27.626736296788685,-33.16068387724386,-35.274671055323566,-37.92944558252605,-47.23646963922864,-54.43265670388765,-46.86620124071564,-26.374089271598148,-4.88176193809962,11.41205450549269,22.518661037398594,27.30061133739058,29.47423529860426,33.58630347123126,35.36193177836581,29.53370566196571,21.644183250730215,20.262895921856003,22.166137174075114,21.05803591061186,19.364928514000596,19.157680668867197,16.510548313756225,10.247255802522808,4.4896347438638,0.8555616146343367,-2.000252424139885,-5.458539212541476,-10.852757237721642,-17.476770017692065,-22.99162808197185,-26.277504286434922,-28.44653962501916,-32.135408794072454,-38.283531005684,-43.83445088085986,-42.08006623433239,-30.862944868983973,-15.89065100870219,0.17906828645707495,16.52699493643697,27.06904681747856,28.564189754821474,25.802375283546233,24.56697039905827,24.813204945164188,22.936615344194237,19.576861401272065,18.122119541755076,19.525123159940854,21.520991886875326,20.9359496523616,17.092957396677207,11.450156951776425,5.3351965397762235,0.20535330251778222,-2.585222142732907,-4.626264088907317,-10.117803640958178,-17.925632719588044,-23.5654295260192,-27.379623819887318,-32.588357176091336,-40.04220524819707,-44.0405117026803,-35.425817225659266,-15.345756272046959,5.157237667367758,19.401902806398468,27.062803973818546,28.705466654980892,26.744789998820224,25.866020504508015,26.202205911966075,22.905136122788,15.854694716309986,10.249208065331231,8.578161533262874,8.712322720572686,8.376830026823082,8.781944456389875,9.535602113189624,5.759317484841806,-3.4769068898783857,-12.724270300162996,-17.418167182700103,-19.294890690643076,-23.080191863212516,-29.032276794789322,-34.35668916059512,-39.75607751633602,-47.202157133116955,-51.22456825938738,-46.15224683269191,-32.62634266241067,-12.354716322494376,9.832284185096942,25.687808548940225,32.17713832242439,34.70969667765214,36.328398904492026,35.254988362944125,32.663981179003486,29.794170702309874,25.48494726414847,20.570476317735732,18.659531496780335,20.307004592377215,22.69208825350958,24.08054857684586,22.06403833605614,15.378464633985933,7.708069592939642,2.8042878808308074,-1.6281498411680038,-8.934972780173869,-17.43458644084489,-22.21869441685461,-23.18128214063976,-26.200643326583695,-34.8603363086192,-47.235134105650104,-56.0705689329056,-50.838586425960784,-29.659182391092617,-5.218671786185522,9.441436326046372,13.804627908343788,16.52755984949009,21.738095153108638,26.2300403355414,25.81247938798289,21.461633262221213,19.00173280569284,20.43975787560524,20.64181324349958,16.617667300742678,13.06451405168825,13.761006077307124,14.640386198465135,10.024023144042378,1.5130773474003723,-5.072226189179686,-8.316215416443242,-10.846798284375774,-14.243399099731207,-18.77665307615207,-24.08991638329287,-29.08384414169013,-33.84965008253951,-39.68429739914938,-45.74454261222623,-47.041607908983636,-36.193738917669,-13.41596480548312,8.852701018361468,20.8464429443663,27.00771434984393,33.81511771867034,39.08395024058207,38.20872724027825,32.670777501726086,26.68246731539341,21.712226477400357,19.481501883414595,20.334710724666408,21.328162601575368,19.843326873813655,16.332516231159282,11.529540015886012,6.648385945607579,1.8410325053495156,-5.412230606624733,-14.956244157290074,-21.86865063392436,-26.04321321380878,-32.93174975443097,-42.76761638293248,-49.895086796033915,-49.662271683817615,-39.594709827607474,-22.069520565364503,-3.4637220845779737,12.875049782367107,25.867311849940396,33.48940528721924,35.43150786832684,33.25695978602867,28.404493767410802,21.987463994808007,16.510335812013594,14.219810280577429,13.917105208334826,12.587890852197914,10.601794259376891,10.005315806201745,8.13367765048559,3.0130283584779076,-2.733348471218224,-8.196582283752091,-14.726632177222115,-21.416095683452117,-26.095544761499347,-30.110721896311535,-38.74307632135062,-53.2004793665004,-64.16356585995116,-59.79780276948252,-39.55881763195311,-13.86336661719232,6.7951393080169655,20.242668563894544,30.766799495512004,40.65227515675923,46.57430036452293,44.205888446947085,36.26397600276905,30.04415502486588,28.67478187273662,28.5973750273143,26.83865497348978,23.82640249608133,21.17922088722533,19.649446959785507,16.758099744828506,9.77097109532059,1.8226383133181985,-3.2391475008842336,-7.750739028227245,-14.27182497284318,-21.178127672733545,-26.92889351945874,-33.857912129626136,-43.52284695613459,-53.393092025213946,-60.877474914505534,-63.08273483652601,-56.567881027470726,-39.24860486321626,-14.31669342773058,11.289276054531905,31.130894381622834,40.072938523387045,54.0,108.0,75.0
-0.8626926799561966,-3.0569546793553237,-5.751331771195405,-12.36780899558626,-19.875880662292328,-24.716547484686892,-28.619126831415954,-34.61210514086105,-41.99387776403324,-43.0972470245393,-30.371552164134176,-8.999298946211697,9.99178020913728,22.263369703339396,28.115594824656476,28.308002608891986,26.2185827533869,26.037556949836894,25.78496914688397,21.05849972701032,13.867892879513398,9.396893653483414,8.579395092378274,8.672147108161248,8.326245763031373,9.144375389354932,9.104498336367515,3.483191066420634,-6.435396844837319,-14.604817990328684,-18.020739031478183,-20.06258184281898,-24.70288807686961,-30.713458785149683,-35.74697320649449,-41.78517307469031,-49.08836847033704,-50.748345238114894,-43.02820019339534,-27.362758629987066,-5.7799680880775846,15.376974861415444,28.393937079516636,33.0242902380443,35.342649102843595,36.322579745773425,34.54392578632216,31.90160246206986,28.734971249016134,23.984366789705117,19.575812903525573,18.884539941717208,21.02271501475944,23.265895819401834,23.981165320212867,20.540654845900864,13.013742178234411,5.995338995182488,1.681518228517958,-3.4046648199841685,-11.482375470858502,-19.363291622068985,-22.67834549655137,-23.579249692880964,-28.109193756441066,-38.26977403681416,-50.61161378939806,-56.39124148172138,-45.99959737212399,-22.20706849109838,0.3310357359334455,11.427999859765741,14.403850937250192,17.824605225780523,23.338902494952656,26.705426796728084,24.739312887128158,20.31032511287636,19.155686352071985,20.901400403279332,19.82066164886608,15.24997759564821,12.866880418420427,14.31855888011118,13.968806155672478,7.70158921404245,-0.7810476424545101,-6.254553423728004,-9.01314661650302,-11.71377894917823,-15.438696230928523,-20.27085922929173,-25.608391851045745,-30.42062542449448,-35.40005120641887,-41.540692308884395,-46.94787901224555,-45.39421977031419,-30.465216302852497,-6.254054361709843,13.411376352215914,22.818166094349753,28.838519993507827,35.759648550622515,39.53462976307489,36.87109621501919,30.879881868807406,25.09209982928577,20.702318170432555,19.49465405106621,20.77732613663623,21.17489491711107,18.994254651691538,15.043420935956537,10.062801190129354,5.3342644865379,0.10734418030257845,-8.115765790314116,-17.40962482337174,-23.128648240812122,-27.572018674386037,-35.68117507200952,-45.356257793618965,-50.74155221693341,-47.78261825708193,-35.03207024217023,-16.555614828513352,1.522255816808156,17.060668870526012,28.687472496995827,34.58090208145137,35.149871414315534,32.08380845418563,26.64138562874458,20.160493532254144,15.504453024667916,14.065013339654527,13.72703286054699,11.942977928653335,10.310538558669796,9.784186477575032,6.9201062551384815,1.2912982114076366,-4.2759457110759795,-9.951494429401865,-16.755877690604205,-23.016979644278873,-27.125186082844913,-31.906352860198897,-42.53579385974129,-57.34555508496018,-64.78288078730068,-55.24674368025505,-32.13330723166538,-7.090710621507749,11.2804500556875,23.38462072275898,33.732555901310924,43.02660591520018,46.78881171073036,42.170144722127375,34.00668947509032,29.22218457654882,28.730404766897873,28.28454010974975,26.036928443728776,22.947114963296244,20.663436957061375,19.1371913757331,15.148522362810436,7.312103109837537,0.0608652667392417,-4.410595112907497,-9.435529053799645,-16.353407848871598,-22.924359507445793,-28.653702444333238,-36.43571904552095,-46.48702751583386,-55.90687659611489,-62.208279382536546,-62.24236591408383,-52.6624645380604,-32.53075117942847,-6.693595829992058,17.894503458172142,34.943702372091686,40.608062785396214,38.617438953081184,36.19200862742841,35.69010615575148,35.7353142096906,36.09981395976509,35.963541467952616,33.61307277524796,29.491378353493175,25.116522461096455,21.77781004132038,18.363798575686626,12.927681556850606,7.4857603467905935,3.0168913507501514,-3.7957846441307654,-13.391514015862464,-22.819895479733663,-30.62801225328275,-36.09268305046099,-42.150735418242306,-54.0553197946806,-69.41625240482726,-78.33578385924288,-72.89155523015052,-53.90516932858564,-29.067619616857318,-4.97256272514927,15.17916525825209,30.499475846481765,40.91869453915201,44.81558986655689,41.94852998109596,36.01033271923505,33.553473881317395,36.446457838933775,39.43996018114276,40.405939206178665,41.50225863565917,40.568734995851464,33.92667727555736,24.250778316724226,16.647718270622722,10.374192758140854,1.9569784864536548,-9.773461094156353,-22.666685402738228,-32.13668129909632,-39.175765429845136,-47.49680560839425,-57.41230569179569,-67.90174448459977,-75.85483546713121,-74.4775586760905,-59.68780491595823,-32.0695960109874,1.928810352223999,29.101877653008074,42.19176112622862,45.872623495387664,45.5591578926138,44.509284128598,45.51048070432218,54.0,108.0,75.0
-22.9056484592226,-24.31610768840299,-30.521537034329754,-41.89614381422272,-53.46124577959236,-55.26605372143364,-39.94849730428593,-14.897082995318241,4.82171007213683,12.69813158083476,15.10151632934523,19.33697116652369,24.75280536114721,26.688989613155048,23.43415269283553,19.482586196966242,19.597345480023986,21.084818697502055,18.652919288014537,14.100304479609484,13.048600687753247,14.714270525345803,12.737769353473407,5.184449270237548,-2.7754992898064264,-7.197017367489187,-9.720000116866972,-12.671627695533164,-16.729604290894557,-21.814924423420102,-27.066058799281755,-31.768085338277068,-37.0675827089683,-43.36732919584281,-47.58156674423314,-42.55245556738155,-23.876501102412146,0.4597188396592904,17.009962813868533,24.537826092791548,30.81399409827123,37.43136457817923,39.39291979019297,35.25736161665932,29.131214150332916,23.601917878928234,19.98048975004564,19.736285716041614,21.133045542579993,20.78401051915311,18.005646946389597,13.657912130040025,8.634008684438413,3.997276011142856,-1.912386492039041,-10.939973478838196,-19.499492610072252,-24.260469120454758,-29.468519164998895,-38.58666037586188,-47.566521003066605,-50.88155836504141,-45.04228709659259,-29.973153237034232,-11.114922790948295,6.2969929974560825,20.926339459040772,31.010051444194,35.219171251318045,34.569296652918496,30.71524063865355,24.773373097233844,18.49884211555221,14.792768228136508,14.010039463722094,13.376139324404782,11.315617458516765,10.157147205358937,9.337046536298406,5.4463610319930424,-0.39314492978794807,-5.822628822942457,-11.824366589428283,-18.74093341463628,-24.404252251511732,-28.186548847606996,-34.23993112052827,-46.75772123798125,-60.86227265252614,-63.88392279627603,-49.50484990331175,-24.57071992595886,-0.9439430652185717,15.213648691166467,26.411178314312554,36.65143616651289,44.930133101975436,46.239076076663935,39.824898451498356,32.07706783779951,28.802053993620426,28.762207004801635,27.804044136013985,25.15919635734581,22.146529351594467,20.237961435028982,18.409635997063848,13.163069140280358,4.923035023959498,-1.4189388851149949,-5.650561989447166,-11.307961385540432,-18.3919613558693,-24.567555754318434,-30.57554478601259,-39.22794608355167,-49.386750337173964,-58.169512100783386,-63.01713299719601,-60.588244241707386,-47.82774419413769,-25.327528659069174,0.8190846513084794,23.863406939194547,37.74475292504105,40.477451667123894,37.72605070690305,35.90051749478431,35.68772202586819,35.801295789631375,36.203001619048095,35.54109756546528,32.537571117721136,28.184500357688176,24.024005723375478,20.93087015919197,16.98652931939573,11.213780329495913,6.202012800210893,1.4270398695044557,-6.411320646628779,-16.22758742929033,-25.28987716648554,-32.426258442926155,-37.51597691242525,-44.87905010471716,-58.51388414968165,-73.11984661383931,-78.39667128799718,-68.51706623994464,-46.96378198222963,-21.839082765933192,1.3363217545135881,20.08957339780942,34.05825992165833,42.7926016173894,44.596719414592684,40.278506357689864,34.68531059422796,34.00305443107527,37.542529879323865,39.83221394616415,40.679740084846294,41.669056812972705,39.25938122702841,31.17036374222441,21.737523646583966,14.873569909465962,8.262271427794866,-1.101819555576862,-13.598243989668182,-25.859507168576698,-34.22144833756783,-41.36498556297344,-50.24824556719236,-60.43661402830272,-70.72628088596849,-76.70469992163353,-71.62398288461425,-52.89989960518489,-22.3855465727916,11.056521054747934,34.281657334659414,43.89808706108698,46.05889055832062,45.16029170564861,44.57036460847713,45.984366452154106,45.736537341346505,41.516148103065355,37.266070288291964,35.837445812108214,35.20507443825526,32.729370619814766,27.524454442207794,20.314198200513943,11.64769534739522,1.8167344797066343,-7.744846662612551,-16.98511943917974,-26.053802537440593,-34.258050042599805,-42.379236159255356,-51.970888018290516,-61.798716587273056,-70.25179614485728,-79.56560159848438,-89.1436249193094,-87.72850242151559,-66.97132676442592,-33.02942137861181,2.0651475135531157,28.63664338530642,44.97185688567795,55.977231749378966,62.946683348084925,65.38623034229231,64.26798337174398,58.6458276893701,50.062235931350244,42.692578111770636,37.945463419320355,35.37204179531061,34.605903038926634,33.993280080114864,31.506326827105106,25.03579630660344,13.736460928084737,0.8933726305705548,-9.447465826132667,-15.874980892195094,-20.45315661012876,-28.932703470510248,-42.187514619665315,-52.03322068536902,-58.03030592483807,-67.60361292045478,-81.97927726890178,-94.25544938694921,-93.48459516465348,-72.57542003670547,-35.97878414272567,2.757249329970318,30.637414183296226,45.201050572164014,53.11790833573625,59.417489556555516,62.78187884881335,59.01481404790628,49.515277735129736,54.0,108.0,75.0
-41.48499739927476,-24.60125550350001,-5.832892185613848,10.853797442844966,24.408019763037892,32.8231633096566,35.449535399053964,33.72567969767719,29.17060815231193,22.861629243193043,17.073916268017616,14.34834331833951,13.961925570051633,12.86518482093073,10.791918787350527,10.061338922426616,8.58857451789048,3.801516393534697,-2.0096978410623643,-7.42606069016083,-13.795969302730608,-20.610281419586535,-25.596321937146687,-29.430863995056487,-37.18104486103839,-51.17818380448668,-63.403634079727766,-61.43290407335328,-42.84927132236781,-17.159978140576204,4.511953221682612,18.726369386674886,29.395131352785288,39.44175943326887,46.21881184962062,44.98671247284165,37.37419248238583,30.577527899300552,28.673119988002657,28.684484350314357,27.173097553862583,24.246256124204287,21.456270008043834,19.84393203465647,17.365917881349763,10.884560008173374,2.7371570505170233,-2.692023130274399,-7.043206031734848,-13.31796659010814,-20.328861789935388,-26.174756290297864,-32.75773605028639,-42.153647895383145,-52.16592922685193,-60.11157987112067,-63.21835282320018,-58.0501471913834,-42.1320289869037,-17.826044510793114,8.07315774357905,29.044362337908428,39.55202908732508,39.885449356748126,36.961891125688304,35.75419254076822,35.69575076851054,35.906856273370074,36.218369027584586,34.90168069682228,31.350300590283155,26.89299188818282,23.047181015414235,20.006573165722507,15.419790310849658,9.593306269828192,4.965861013564098,-0.46198712084164667,-9.201231914200704,-18.983453650009636,-27.602258802679142,-34.014754729676284,-39.12299328853333,-48.210011341557646,-63.08605933152607,-76.01375598370272,-77.12225652661412,-63.13587440602187,-39.75061763733608,-14.791007653353644,7.261102510278182,24.600652929888064,37.19642863487268,44.06566507678509,43.84166236772655,38.481694414588056,33.82771261475859,34.847637884708114,38.48089296622656,40.08875520919942,41.01679150785283,41.54117613298024,37.41924511269885,28.304212639025828,19.495719364202873,13.118006883729269,5.902713325557321,-4.447500595760763,-17.4166723605349,-28.664058149844607,-36.20952159008256,-43.73030314066298,-53.10271763858774,-63.49455641882855,-73.21590878446399,-76.59118642925453,-67.61111893632625,-45.079076682097465,-12.411617684550848,19.250246662236403,38.24987356635422,45.01436714009909,45.98931701085908,44.79353043291488,44.84612271689502,46.31007658226958,44.83380492950798,40.0652668258336,36.58652213568569,35.715768176619655,34.7543023360369,31.497859390222573,25.595861805088493,17.971210227336098,8.866149876831194,-1.0134204978200545,-10.416520062674152,-19.65391613620089,-28.52413287128962,-36.524106367744245,-44.98653463699627,-54.909028555601964,-64.35240468513662,-72.71161525417423,-82.62273777704222,-90.48588200818875,-83.68979545360571,-57.998376045308355,-22.490564329128382,10.888152811358005,34.229661280021475,48.514442746766726,58.47778026053086,64.05833429916828,65.44186385588367,63.13951628353943,56.27623361294537,47.67397306856279,41.0697361785648,36.98962096319589,35.004700896495414,34.515845758444016,33.54493550701622,30.15044469369025,22.19164479744257,9.976880121871602,-2.4763943681358667,-11.686258799927332,-17.18951793593583,-22.235204620330187,-32.57576785678185,-45.67751886573641,-53.842891365643574,-60.184969393316685,-71.44770816045687,-86.19299955282801,-95.85287881144816,-89.55519155571112,-63.119863135108154,-24.32140575812226,12.290457333257496,36.00114147347316,47.83764961724287,55.0459895655746,60.88447843104546,62.54783299145077,56.53697197637109,46.95977616949964,42.70358620241022,44.82692263126405,45.840639606242725,40.64783749474307,33.302903678529184,26.663483262043687,18.729420343585723,11.758373288279865,6.9848221357481135,2.409000978889371,-2.944324180563353,-11.738989285691204,-26.595209734355155,-41.22475785103875,-47.70582308978352,-49.41372734839005,-55.84985043411283,-69.34751131610348,-82.05746692412572,-84.91346719441997,-76.20113886168464,-57.72129172598857,-29.65365723495398,4.2996543453729625,34.075108817694186,51.39102857864117,56.78645378703887,56.179684180056576,53.84394752148729,50.96612915881439,47.863947799054856,44.29105391917967,39.648967206288084,34.344485687336494,31.546999046659323,33.77272845261108,35.17961672547437,28.962529286549625,16.776863617335792,4.832029199687632,-3.14030921589075,-8.929709342236123,-15.222056536600515,-22.64849462984701,-31.06702625147112,-38.80242598218575,-45.5213244331823,-54.87523126728953,-67.91853470146512,-78.07998277550752,-79.06923496967595,-69.83135925072011,-48.44049722851003,-15.351269389126893,18.31587391657335,40.32628117421066,49.75360118034791,52.91620743461045,52.59944057212704,48.54230304909145,42.822569098768824,37.26894903873883,54.0,108.0,75.0
40.45561656295585,39.03980853237014,36.38821414535297,35.69872327624761,35.71713174206715,36.03888046725968,36.087052674995036,34.06033628080239,30.08847015722526,25.65708728218966,22.165853945936686,18.927795414824775,13.726451972361136,8.116460033999571,3.6682608476385083,-2.6739199899263832,-12.067998420749968,-21.636165707130967,-29.72299678576905,-35.452519015378996,-41.084605363887185,-52.10380798274801,-67.50608612886053,-77.87521458727512,-74.51884254083507,-56.959177954075926,-32.43571576831894,-7.999621586548686,12.776628975669711,28.7262288156772,39.863920230594765,44.71995710960668,42.63101831150577,36.741202532324905,33.51349271234619,35.922908052232344,39.19164382979318,40.30072607479299,41.36526188272906,40.9909402526011,35.11419451184103,25.49137173905055,17.502412072772394,11.276492441149648,3.26842171417605,-8.047092647319795,-21.073957551108656,-31.108447005969676,-38.21722895112277,-46.27195385030326,-56.036813807366975,-66.53249479474356,-75.1805667151456,-75.40456238040836,-62.44858020269541,-36.34932098208386,-2.508348043050157,26.284036318431124,41.15624790137566,45.68493839640682,45.725154561891685,44.555333760400394,45.28243066828467,46.353636086608155,43.61433964545861,38.75332129171005,36.1556861671157,35.57818155116891,34.09938869286713,30.034655030622087,23.53273743060391,15.500395899340138,6.012112952369096,-3.786568208140975,-13.081799227637706,-22.29639485706363,-30.90464290971285,-38.82896431425864,-47.7440895962432,-57.79692306675895,-66.78084807356356,-75.34328266091624,-85.59827832687529,-90.52997768567724,-77.97245613615178,-48.19793141818993,-12.151641123882008,18.805837714881342,39.03381484049642,51.75096437976114,60.5974297227892,64.81627291187995,65.21117018684362,61.59274730581712,53.756143509793546,45.48113351153331,39.66039521165988,36.20629633491604,34.77751670078599,34.379284651255674,32.90173289754858,28.396289313381317,18.961008104220745,6.204418313523632,-5.553593937258261,-13.59483317103386,-18.43302233167041,-24.527876184032486,-36.50367717930777,-48.65229589231068,-55.47532971274142,-62.82055127899366,-75.62585306307811,-90.00338439938929,-96.07210365669053,-83.85744030125456,-52.58516554447432,-12.870594243262572,20.655485477935436,40.329717285438214,50.12370475770398,56.90358607616432,62.01188121290811,61.614423454142134,53.71613225395353,44.91506400239125,42.90019769385726,45.619976510885415,44.94057753939765,38.46922565635214,31.400417401306782,24.50826279607834,16.449022098400953,10.242613432699468,5.6996814135627485,0.9946478633592757,-4.933933534609309,-15.482464490528145,-31.324672059002978,-44.03299606677107,-48.25875179781641,-50.46327614261671,-59.22454233757321,-73.5837534766127,-84.13171166423558,-83.48619605495257,-71.83983040239829,-50.56880127197052,-20.086326317388167,13.826017073811771,40.513294863843164,53.94277892193332,56.96686402237874,55.59283425229605,53.04856226152452,50.08862767247706,46.910087617208944,43.07363148508051,38.11089786878022,33.068443333338806,31.758869501260328,34.68416376644328,34.25518045521055,25.80294780392751,13.033231533583214,2.1114854576942323,-4.8785655554843865,-10.643597287096838,-17.23965622071303,-25.024790841506768,-33.46061558037915,-40.74387048684712,-47.76548438502477,-58.439189053902496,-71.53125604151646,-79.42231913164613,-77.46477720459191,-65.04540337248791,-39.7785245487233,-5.015683106983909,26.164346731416206,44.09254477390055,51.06102848617261,53.21046000874368,51.76199236620043,46.94367290996085,41.165377613576574,35.7990202596273,31.765892990573594,30.431041350495697,30.912707531061603,30.008946050967346,25.997685795880486,19.832545645198667,13.39633733242472,7.297705096632987,-0.2861810743060081,-9.86992176075276,-18.668986105379236,-24.553845825473385,-28.556077320998895,-35.29896244674591,-45.82840939940097,-54.69402133424148,-60.63524434926843,-66.66559037747689,-71.16668192222988,-64.41514077271384,-39.3655151724604,-3.0931617422046824,27.98223707446971,44.87841685685238,52.567909455767264,56.39228979235524,56.2893369499944,52.373092737570225,45.87189938586663,37.5528258234994,29.12001957643609,23.944243285396546,22.55171336503477,21.344732819264202,14.981823604841207,3.6958166925489735,-5.878600616586149,-12.546699298084361,-20.685845878098906,-29.565142624232426,-33.347240933571484,-32.20569677559445,-35.16300043526616,-46.6157344775264,-61.18496414300347,-68.8208181437485,-62.755248286939185,-43.46670469025807,-14.970614774819545,17.549940772321413,45.382734142670294,60.8496423254272,65.18104339459303,62.246249228383526,54.176923795110355,45.2867400543826,39.09369823796344,34.86430326465025,31.201354212540345,27.623251638929222,22.113010604473185,13.409192550229323,54.0,108.0,75.0
45.77540810254874,46.02406254078534,42.19710484835693,37.672600811142246,35.91032658204674,35.35403661598375,33.21655655161062,28.35979969200673,21.355170386344508,12.89353806494575,3.136617350775493,-6.505312856868439,-15.752357042127578,-24.885262325529506,-33.21073000418682,-41.228498761595624,-50.62044317422989,-60.57001779741793,-69.15208070337637,-78.18879489841629,-88.18460090079196,-89.00510715587694,-70.74521469078792,-37.87826638472366,-2.271865852808965,25.755884779827486,43.21127590570897,54.711272840112485,62.3016205658074,65.26994723984126,64.6513188006031,59.65339395611556,51.21184590168484,43.517908868882344,38.44484867036802,35.59585588542021,34.64803587638038,34.145421366730936,32.01431024124282,26.200647524726453,15.432872932814732,2.528654008549806,-8.298737116395627,-15.211417225488663,-19.761630063461922,-27.41048371755732,-40.443437536952906,-51.07892936822443,-57.16795434637835,-65.97848374014086,-79.97337201990229,-93.12734260373502,-94.69725182209503,-76.48777990346282,-41.31711936660934,-1.9844710650596884,27.773007667815847,43.81761985809802,52.202031190808235,58.660440119573686,62.67028896958746,59.98256140768003,50.80930696641467,43.51588791317314,43.53830601969443,46.08518815567029,43.486675626020286,36.290399823475546,29.533248993766392,22.20170667188851,14.36500570948926,8.871912820284,4.389110658623546,-0.4982940192380223,-7.317760829347151,-19.75517688997105,-35.7652702790251,-46.03695192715873,-48.62940690720904,-52.13446761335981,-63.129564151830714,-77.48516250019232,-85.20641399108044,-81.1410629591891,-66.69118614728255,-42.604873570375986,-10.190360589164039,22.713574329078877,45.77625954623855,55.607347035966335,56.8043470597029,54.92498033474563,52.2195420997219,49.19811290781219,45.90174055902891,41.754075675592496,36.53967068239802,32.12258441511436,32.39984799659627,35.285239836347955,32.596848483490184,22.268090941208236,9.474776293395651,-0.2419515874391612,-6.525937849064039,-12.439605281683058,-19.35819252671699,-27.470624190960006,-35.73767016599718,-42.63246340493565,-50.3552999818224,-62.2596099143638,-74.67988308359223,-79.90552767559791,-75.0195484765402,-59.14481464106015,-30.242235006635948,4.995160205801799,32.81008686265072,46.919501600273854,52.01433890087871,53.20756615721162,50.62069965915741,45.278493221752775,39.5450735573742,34.43313211351405,31.06880672869898,30.517586064671896,30.92120062619642,29.170414106964692,24.352419566551852,17.928473512601744,11.646718796722904,5.353305056741827,-2.9325510225190192,-12.636659343215506,-20.69384520784381,-25.74891639541103,-30.006697566582524,-38.15425122435141,-48.76376031701599,-56.589148329726946,-62.275275322490025,-68.43631058100415,-70.87986981355162,-59.03912633412993,-29.369994075531892,7.112338059498976,34.28974435111637,47.68076080463257,54.02248229193344,56.79118412994365,55.50808910345829,50.70191320907267,43.63866173449428,34.971323548637926,27.18386448657878,23.242404933880668,22.426264845148232,20.21227351397578,11.96219225517469,0.5137580445113217,-7.921321803506569,-14.61564728048234,-23.413741047660146,-31.391869651095355,-33.205973659410745,-32.24092331210589,-37.68207402433864,-50.921956606441455,-64.53405099761899,-68.57912551227479,-58.383457510375344,-35.987477477588975,-5.683088383755228,26.532726415495922,51.238585365719295,63.02686936442882,64.98896064253856,60.304556293433485,51.46238008291702,43.18671813234493,37.758618553652134,33.766963136672175,30.209808923059473,26.341988897003958,19.899949630353458,10.477189574393336,0.17186989351464058,-8.81635102084519,-16.234889663605532,-23.198499122273287,-31.390594178238107,-42.35830195949294,-53.852188209167174,-63.10094396870137,-72.92375601534317,-83.93133867017046,-86.1380895451833,-69.01552126955272,-33.947927890413,5.758241924283427,35.50524300787712,53.389520208760686,65.04731000051882,70.23737680403967,67.28343929025472,60.04209687028895,52.17026621690303,45.62422985829866,40.01355507804058,33.899206885396,29.267720938567024,26.342055630304557,19.64181212716774,7.6885558429230025,-5.176875286838681,-15.714325335122519,-24.518091761454638,-33.73000539558698,-44.79692008585922,-57.11207730738614,-69.01734730787427,-81.0818040318945,-93.3989913300924,-98.32236651714179,-84.9610073041653,-50.50307737487694,-5.39301979729749,33.09704338154508,55.3584426501801,64.96697579361751,69.90593472191185,72.90130157972804,71.0115521199151,63.36817361177149,54.30530446260881,49.35448228190679,45.391761822270084,35.65666731092026,23.556617812115874,16.93303101428328,14.17884780924916,7.475908883294772,-4.758877456504308,-18.099160410404707,-28.81994618532199,-36.45112907910445,-43.14558554523437,-51.08446529909519,54.0,108.0,75.0
48.085757902480815,42.80711507327552,44.410421799882585,46.052421029796136,41.60846510063864,34.21514578902411,27.600379964578483,19.82065676044164,12.525367686724774,7.57462809528473,3.0432838166836955,-2.1256568125380095,-10.211142027772464,-24.396405227038734,-39.66354391760604,-47.31539451148915,-49.094947887621636,-54.51326972907328,-67.35823218928631,-80.79339406026764,-85.24210524119945,-77.94636274922804,-60.74048708725803,-33.89151260209761,-0.23221519242245495,30.72664056291793,49.87441770377032,56.54940689202325,56.41318994531734,54.1966218763665,51.365900873602605,48.29075998639198,44.819510695132834,40.33425139463877,35.00863291218058,31.61517038270175,33.31670322688992,35.362982346282074,30.250034611144535,18.52526693662731,6.214534631179744,-2.2823991494850073,-8.162438542198005,-14.323407211607666,-21.58526954742341,-29.938171875320684,-37.868813422552165,-44.57390408899923,-53.3538122386257,-66.15608889787443,-77.18199440302872,-79.52815744288989,-71.68829145820015,-52.08159250854337,-20.119732633058447,14.325803217013817,38.226749308981994,48.996468631993984,52.69051495797839,52.87156140776749,49.239384976878426,43.595405445577505,37.9732082073615,33.20931114812814,30.632077164974085,30.691798117212056,30.733915096271414,28.057441662828218,22.572473785824453,16.048184236099733,9.914969911623423,3.220238340383296,-5.7186933085731235,-15.24850356978275,-22.448306606928377,-26.847904575517166,-31.83457333278759,-41.25001017237756,-51.41059650593274,-58.28981124159,-64.00617055334129,-69.95391786554507,-69.34806791623868,-52.065796007649034,-18.762605778831535,16.44646459606174,39.357294114705105,49.93659998655112,55.206550716899095,56.83974667032852,54.42556422027989,48.85416858585595,41.25198102559984,32.45856882789666,25.59695973907935,22.82715521712627,22.19336486859403,18.513604978104386,8.64443420495976,-2.348502897689875,-9.79749362847295,-16.919953272906387,-26.096118056378195,-32.63400781393486,-32.77907941032567,-32.8817524310436,-40.91019705942041,-55.2792600499064,-67.04355513317552,-67.09916284352785,-52.98388317567752,-27.842102077166544,3.7985158123340743,34.86208836484776,55.94158513890768,64.39710065050174,64.25049973297318,57.989986224969705,48.815723101560096,41.354662370825,36.53526026173913,32.69984251740261,29.212567382562053,24.827344380900897,17.420873722443833,7.469801850928336,-2.6125912610465725,-11.083983521322217,-18.234211030443205,-25.34129126066823,-34.28004529011679,-45.821352231439285,-56.73261870878597,-65.68295474446107,-76.2367643426194,-86.08293639615415,-83.38017372606492,-60.321548304261846,-22.18024319038919,15.754306684581353,41.635794548488754,57.24864991248516,67.37967245017815,70.12515439402719,65.41987453033907,57.72640480465994,50.09587236968082,44.00092528455435,38.28380700502873,32.2701116446442,28.43707909937321,25.022788743013795,16.5823985719824,3.8549017668909884,-8.500995535645108,-18.343240600595372,-27.046963715410488,-36.71950085286754,-48.306435632691944,-60.632922889431136,-72.3952095231173,-84.78205126411693,-96.10535950733455,-96.69675665107945,-76.96032511953777,-37.81044357503645,7.092589315995413,41.24670347022744,59.06316872785381,66.59721865671094,71.05666340063476,72.98952171930951,69.30102024035672,60.58824706771796,52.37195252288171,48.488923669465926,43.26420332558678,31.98930312604173,20.91225230477538,16.092210206381754,12.900277804124787,4.357597666070431,-8.713624772388536,-21.558900498843705,-31.266446051647435,-38.382459067297575,-45.21057616622079,-53.923502566283986,-65.91630891848746,-79.22969232544196,-90.74726508194723,-98.80904578435609,-96.31425809931798,-72.9700499934385,-30.555142975627405,14.883010206439552,48.53265642513029,68.25323164007521,78.92862047345609,81.76562685267321,78.27637445170674,74.81358193989418,71.07548549805057,60.55511018032073,47.49263214889151,43.407585926372356,46.2362572151098,44.683044179458676,35.209467747523256,22.367512704414622,10.753667174768417,1.8916230630174775,-7.655168934740308,-20.05332155295473,-31.712201656670636,-41.29438280699989,-51.841097642191286,-64.10051523615753,-77.91216376734175,-93.44828273567146,-106.54762162578609,-110.60839604587726,-100.61487460738483,-73.26018645957602,-30.796622280212752,11.426674858807624,38.351668113297094,51.76660958896392,59.674223822707425,64.84017739442429,66.31443852057222,62.40543485175495,53.267359198755635,43.487298204885086,37.78275645051881,35.40880940586838,32.50368268946987,28.392568623457656,25.498907571331095,21.237117240467818,11.471201041959395,-1.018689873477224,-12.916547717511044,-24.022869267931746,-33.23093149959557,-38.73932676329047,-43.7214610165958,-54.66072574696608,-70.98801623965583,-83.81046083413554,54.0,108.0,75.0
36.46579056551117,32.170671086761246,30.44475500062163,30.860938221801657,30.3005475073036,26.697082402645503,20.70759790813404,14.219376365959222,8.144958156575072,0.8701083803332786,-8.563767306956096,-17.646382426253272,-23.942871587061138,-27.98097184754285,-34.105234944112816,-44.4042896441732,-53.73046086507474,-59.89764448920409,-65.82028415334514,-70.95859583756399,-66.34051127357506,-43.655587336055156,-7.989252199157953,24.63567670024423,43.344813601039704,51.80718482700285,56.09286266004831,56.54089717400473,53.07512210350515,46.84858918501278,38.73871768437918,30.116528694773823,24.38140699932539,22.612645944424777,21.700986193614327,16.22318976050642,5.2384692582303565,-4.84443326618939,-11.656315780972301,-19.456159494378355,-28.55561831977774,-33.25578661257319,-32.33609291027456,-34.26199551661339,-44.71584169035919,-59.422083204135504,-68.52367339832026,-64.39728067344517,-46.662337247911445,-19.138103478319156,13.26128372928693,42.30249861373943,59.53702948008755,65.07644298824114,62.99195583135339,55.41526812737751,46.3453636544843,39.761211014361834,35.381188822133936,31.66632312688276,28.15273306805293,23.036674590073844,14.716915349725934,4.456146945974959,-5.246864271318464,-13.235673340672621,-20.22630151294946,-27.63857037916989,-37.42552283686229,-49.21730668110897,-59.399334065402144,-68.44475154041413,-79.5730860856243,-87.15200890215442,-78.83010698888384,-50.294061631447214,-10.451122461712924,24.63044968579906,46.890897209882326,60.718729991774495,69.0729689437085,69.3507250863101,63.32824930342923,55.41895284727021,48.17376756890446,42.40776318643979,36.49324620915215,30.860572340896127,27.67900724848851,23.225051901633964,13.139842339087611,0.0724782894751922,-11.58693189114498,-20.875969368635598,-29.663269228735416,-39.88548646785965,-51.88151627034661,-64.08032216483984,-75.84204346675864,-88.46141874852597,-97.91550912432002,-93.30039058737957,-67.24518878370789,-24.614258252589472,18.597511181750328,47.94620328360822,61.90559781041147,68.0247575216981,72.02484004460649,72.57657632090452,67.13502125235912,57.85215623310979,50.8871002844812,47.505036388605404,40.53365808403521,28.342604863007548,18.88107414845562,15.40331309301313,11.106347588216401,0.8377468776206979,-12.633093018496304,-24.73276282184853,-33.48459288474199,-40.293472531770995,-47.4334841568056,-57.063250444519134,-69.79638670087215,-82.81140305860453,-93.57553726079973,-99.68937684167489,-91.97791794720497,-62.134791197090955,-16.904431560346566,26.16937612999013,55.458879305385594,72.10495300937627,80.59952364692894,81.15470828162628,77.05606910512202,74.06569332341734,68.87297289732521,56.458927994342574,45.1306598226407,44.012936373377684,46.62728561755728,42.62820263009311,31.600791625546368,18.73891205620678,7.976043640782512,-0.5814259241617935,-11.03559668390966,-23.679857122619673,-34.58436626893288,-44.13097435959246,-55.25115540206449,-67.8844255436585,-82.30858341692499,-97.77638208440749,-108.91523576795052,-109.33485450850267,-94.5903040439079,-62.11260646741402,-17.670659020999587,21.01898240142827,43.21381474017825,54.37967470153379,61.45728694653555,65.71999383148547,65.79959696857436,60.183015801068294,50.22797282512092,41.341190179280815,36.91654835845881,34.76526865651659,31.322458054853854,27.40420413164361,24.674662856534805,18.987839642104614,7.914917254483186,-4.549585864146645,-16.211370342998656,-26.98661967107263,-35.19765649551376,-39.92730277406734,-46.08299932302985,-59.126737806519,-75.51394706224545,-85.48892793165304,-81.58282410973305,-62.20125828239738,-30.127762350999003,7.754714861893869,41.498730864709266,64.19696133163187,75.04335030979927,75.47536586192994,69.48396440983778,64.80444549754164,62.962254193210974,57.60302679733456,47.247816243859376,36.33330468033299,28.17216813188582,22.806999144594634,17.17083212291442,9.082882403555113,-0.6984518844894341,-12.915973568384358,-26.20213330612925,-36.075492420079364,-43.50468499051307,-53.2418289813351,-65.57941410004729,-80.37336583619195,-98.98267123333139,-113.56087010420936,-108.0057988945769,-76.9008778510797,-32.45803584429076,9.060249017453335,38.64502004874215,56.250855378327984,66.48998027619706,71.9564000836938,72.07108542488899,66.83814710872547,59.022418528971016,52.039202297786204,48.07458650916678,46.18150747915786,42.68302708307301,35.441855694544394,26.57080372896337,18.836219170407315,9.860644011207988,-3.100041540369009,-17.85511475630398,-30.37425390257146,-39.56549120654902,-47.80203323204079,-57.193815116608626,-69.73032486765447,-86.50356612241536,-103.51348124080492,-112.44456559147022,-103.29813009896463,-70.91615365334097,-24.457896998346182,18.376584927197687,48.447881866762124,54.0,108.0,75.0
11.842484177424003,1.5003532970872504,-7.724781756024248,-15.30202588695769,-22.246159575836238,-30.148768514334385,-40.77249656260552,-52.442150044931736,-61.93893689624452,-71.45394553343812,-82.67191821694978,-86.82631421101328,-72.50318482179269,-39.26326108222113,0.8181859867861996,32.3342708459349,51.46325303532493,63.787469851939996,70.04322431138188,68.03466103029196,61.097926048209004,53.172002233287195,46.40017371918031,40.7844148869902,34.70137442104578,29.712809053292528,26.821402240086154,20.893697353553687,9.442216546477514,-3.5663665790793804,-14.454498242747494,-23.367947673505054,-32.41029687677156,-43.21479005403488,-55.46839657835849,-67.46622726475681,-79.40134811036661,-91.93470501814214,-98.52412524218084,-88.02922368588776,-56.06205917630885,-11.380273411400232,28.845432992845943,53.29872519772493,64.10856033292639,69.33455504496051,72.71012569040869,71.62878630554734,64.61329704724888,55.34289566590197,49.77989097747329,46.17380381447049,37.28327270239901,24.964986673538856,17.4347168464963,14.62748223868482,8.748242407565158,-2.9552291808941673,-16.41999099560159,-27.599774007546934,-35.54010150740632,-42.23048797338599,-49.87276374081645,-60.491571709071906,-73.69553519453916,-86.19020384635489,-96.07950761406369,-99.41813204014477,-85.67569331896209,-49.93476389028078,-3.4815152617881058,36.205472122653674,61.30935763583258,75.32473802511277,81.57739442376997,80.12134436760547,76.01206937893535,73.15677098081615,65.94560293561867,52.44434480986604,43.75659391203615,44.95428339341693,46.37951425620202,39.95223079226024,27.85406881772726,15.305407222516381,5.424459775473076,-3.247468012534251,-14.637821535883633,-27.11970754954551,-37.32164164554608,-47.13324818955715,-58.77585276505905,-71.82176067413882,-86.83174914714212,-101.747534639119,-110.3706514267393,-106.79105601740156,-87.03647466848889,-49.85681643282892,-5.081560534864144,29.099197446597504,47.16222779625441,56.69648868603817,63.018698210870355,66.2535121811424,64.79092306071149,57.56198681500188,47.294609512202534,39.61100214448337,36.252086516834666,33.97537662371487,30.089327014829724,26.57248813017698,23.58973166229892,16.227465308319168,4.270238201211156,-7.999426815784976,-19.447059904856133,-29.737738759359768,-36.82379977054081,-41.224093070447495,-49.09412729186613,-63.914047585980846,-79.48541611607853,-85.96495472022949,-77.51492125238764,-54.02344927290469,-19.35923950260133,18.353495819085285,49.32210125751829,68.49022600975259,76.15797053788125,74.08127977196183,67.708614131966,64.21380777245743,62.01977734219879,54.967991002978465,43.94661117658366,33.62737983257813,26.420741646412157,21.37907724868389,15.065735362814056,6.42482881374505,-3.9358301586243756,-16.84762084243141,-29.526691629732444,-38.237590112194134,-45.96432611112611,-56.618380199788916,-69.49943670007318,-85.43845379768204,-104.297180751362,-114.63427503067437,-101.36088820228763,-64.64588902427117,-19.583771125854692,18.987953380530154,44.78463788218441,59.773103648056114,68.54675585382908,72.59260912563275,71.02633504220874,64.68644642085587,56.78525441395567,50.55071859340872,47.45371393335135,45.50091844056935,40.96008877332477,32.87071083125836,24.21478166203125,16.572694455572236,6.513888699548262,-7.366789790622716,-21.8369627966798,-33.30461386529418,-41.91907180120694,-50.33107845764467,-60.38369644900404,-74.2047134449311,-91.70715199357434,-107.3547505785034,-112.07887480988418,-96.23255612430931,-58.168252967311666,-11.027080648540895,28.413837049056777,54.91848857613385,71.07473981162227,78.27357943167019,78.49726294074307,75.76828112163109,72.09496761340836,66.27033527561251,59.53330221104161,52.92577141359818,46.4429056451252,41.71117874469554,37.92631069013426,30.3398363549241,18.170057225097246,6.311701018146937,-3.317138763773534,-14.769530243081785,-28.282864110416604,-40.64869053572354,-50.30466944662303,-55.1818415696206,-57.84558555820852,-66.55120570309496,-83.50002785228888,-101.34500018445206,-110.11072809106275,-104.0548710370471,-79.68878850236918,-37.90932075147947,8.390375432561557,43.3715073866569,63.916366041109896,76.15646778189743,82.42964648665573,80.46454171592393,72.10926736039751,62.721119093868886,55.14268417867612,50.84327853304246,49.027780653205724,47.02015690873946,42.27340159990067,33.60872029461233,22.669979649030736,11.391825900628781,0.7451946892371161,-8.126954028110479,-16.686053383915475,-25.320008967291624,-31.41762338198738,-39.06642891576804,-52.67527665453243,-67.4944088348669,-78.74787834812399,-88.41017909392727,-98.67479702030474,-104.83256877341141,-95.47138866317388,-61.3984945044887,-10.923637086719529,32.81849765606429,57.498270684986664,68.47622815297812,54.0,108.0,75.0
-52.57769854487895,-64.16253342663262,-77.51630030877061,-89.35939195316283,-98.10136644829855,-97.68397036916349,-77.40821465875179,-36.79725561111426,9.300247678123625,44.937179814402114,66.24434175954008,77.93557219684205,81.85764263911402,78.8698056318987,75.16112167307762,71.86106817567406,62.36747013921177,48.8880016378309,43.330271367384626,45.892928939366705,45.39196850493578,36.790225319771736,24.085002265698474,12.125680740277463,3.001159575696729,-6.193320464347973,-18.34533448213929,-30.31905428720587,-40.028195289353135,-50.316652147972505,-62.39715168134839,-75.94514530436679,-91.38012898523826,-105.1873390462225,-110.7918636276155,-102.89198785745857,-77.9481938368922,-36.8853437050343,6.513180921613636,35.73335799692197,50.43204472643434,58.7824327842837,64.32974675331769,66.39459940874177,63.27350479214035,54.659602450108295,44.61031452182356,38.278300341748675,35.67607986239253,33.00689089235079,28.901329890884337,25.837193276936453,22.094372404443007,13.044695899965696,0.6363570483760556,-11.378859027721413,-22.60414086346669,-32.20501382884746,-38.17592771270667,-42.82768870049584,-52.76520656080922,-68.78531828254563,-82.66680841803321,-85.15380120363915,-72.17081122107614,-44.88208371749292,-8.320445172518658,28.352065409049665,56.120376874333566,71.82412262422137,76.43117872467477,72.30376486445978,66.24794940191595,63.77132980715221,60.604829311645446,51.97864213002275,40.7241555723495,31.201829090652993,24.87340461125598,19.822355493152305,12.750397030786255,3.6473342910880353,-7.4204109874632795,-20.77493076624724,-32.45708404571802,-40.31297669863893,-48.71537382808041,-60.15825576820795,-73.66917731632603,-90.84154154503074,-108.9377274613082,-113.61503990558404,-92.64935422628211,-51.70659270839018,-7.312147355945694,27.792650139333034,50.00266454299704,62.804863861539225,70.22694589211527,72.74444083817042,69.56574930132608,62.40616217173102,54.696742429108504,49.35022412760057,46.942801329082954,44.58326608235248,38.909395872845344,30.259448425675824,21.992962985479604,14.08439798409731,2.8138522019037935,-11.685991974857021,-25.538077031541754,-35.97683652188625,-44.270459851514644,-52.987417983481166,-63.90205180798574,-79.02876272177176,-96.77545870215855,-110.29543874673266,-109.94624920611253,-87.19669093672941,-44.633488115097656,1.6631714231847927,37.316924466703966,60.54865750525261,74.03714898733541,78.89538974695677,77.83821676100575,74.84105704566771,70.65036439388354,64.31311866492648,57.63308340913265,50.99091620306544,44.827078005425456,40.70624441272782,36.30452269481328,27.132502305383866,14.483490435978599,3.4276323709749654,-6.277097211602686,-18.62510640020981,-32.05533365257214,-43.80309883930695,-52.25356163472832,-55.84154456694372,-59.432344991657224,-70.7841242511519,-89.03802191015787,-105.16018809581597,-110.04075908228408,-99.02891863210363,-69.07267499559906,-24.18353294442069,20.107513984767543,50.559318291682835,68.06198932675639,78.66154295062039,82.76805333933422,78.45814519563135,69.32216428282014,60.26868648086026,53.5352630919513,50.1720481935394,48.58921489136778,46.02681239170269,40.149319755948646,30.566729822234684,19.40514840890342,8.188990514949792,-2.0029857408784526,-10.51180694393225,-19.314423196917144,-27.331410449336452,-33.129235872150716,-42.444786989053874,-57.16335177912469,-71.1310643964481,-81.52563127783264,-91.36169542391598,-101.29193627691879,-104.29702717618028,-88.24218075165415,-47.562053596909976,3.3590902838769336,41.89359655030455,61.65694135886617,70.30245205103182,74.1843301681295,76.11342887786978,75.51035731357135,69.8589566621261,61.5484887449673,54.93787906017676,50.02224886096871,45.155423019307605,39.2925403611931,30.623131718319744,20.329598389666035,12.76894685811662,6.936152723619444,-3.509916095427587,-18.805404434939362,-30.637655411779185,-35.52971319986818,-40.947528703387086,-52.59221315565714,-64.14250198080872,-71.31414761655368,-81.56923085030134,-96.87626432991293,-105.79003783307768,-96.63031713038085,-68.0265888610037,-28.4620917313616,10.169538901854757,38.88701490994697,56.75662316716311,68.44333378251476,75.32630325759645,74.91444955294604,67.4338278827787,56.25159953973804,46.77613737171737,43.29737428797037,43.883519614372645,42.741567834321145,36.381959707940695,26.78011105038138,18.337257506869744,10.83922281615096,1.0236648980321028,-10.87751837664978,-21.27520579276725,-29.10547369518279,-36.44417151448795,-43.22435285158093,-49.94456511615702,-60.13696799467064,-74.64179273817375,-86.51427911761898,-84.34968176500094,-63.19001565367488,-28.54578061083277,9.286868614733777,39.72843356055023,57.4753398121799,65.88546102805094,69.28306382840576,66.4651361333889,54.0,108.0,75.0
-84.85753183721033,-83.01636265182444,-65.6121599872049,-34.933804091297695,2.7293231209334445,37.55976365878153,61.88353783003186,74.23469950535576,75.93348665798348,70.36744065120052,65.17391974178743,63.27054178690897,58.66735442721575,48.76653000748903,37.66795169169351,29.06410690384168,23.44950031024075,18.061915217896047,10.270257673373814,0.7171345507818521,-11.138692381712056,-24.550778120468756,-35.00686290665139,-42.45651938920486,-51.75472546894132,-63.83506970682485,-78.1699033686516,-96.42222234008558,-112.44820518012794,-110.31187397009718,-82.19631469150403,-38.5150301911217,4.1204632394933896,35.471498183263364,54.43441189142957,65.41617200323745,71.50889715821437,72.39691195425667,67.76216347200481,60.084143959696135,52.81957675637071,48.422284597685405,46.44009304229343,43.36068751293432,36.584230150158184,27.70701173204787,19.837430164767888,11.277424850571425,-1.1815070405852865,-15.94318047375726,-28.922150172203114,-38.46116086033235,-46.66987599852472,-55.815771272810274,-67.79916377849659,-84.11024370668383,-101.50596536695285,-112.08178927253685,-105.86561143056178,-76.39971653003686,-30.802043871532497,13.359630121233442,45.16108873744224,65.38671440872339,76.26289566305395,79.01075216243781,77.04319580608487,73.83396658241357,68.98916482889787,62.35093660267833,55.73283351041804,49.080277657031786,43.41469523853544,39.70061060114502,34.23497103131374,23.602763251647385,10.974458140055585,0.6950801732642714,-9.517534513741067,-22.570551957517917,-35.67407747277684,-46.69653383634747,-53.7428853709368,-56.47014157625373,-61.74109725874787,-75.64938915625507,-94.39684895798044,-107.99562620996458,-108.64724771220179,-92.37800519812313,-57.112787970734836,-10.52412668031979,30.552542062009074,56.635459417032,71.68127989577675,80.6475800053113,82.34957360209009,76.04438713979853,66.56744759208337,58.008249706719525,52.234226328726194,49.65434883762596,48.06618095886867,44.74548433384573,37.693225388780846,27.402263281409013,16.13950320661122,5.067053108348012,-4.579679354561871,-12.95091113173987,-21.89097070755396,-29.082556067694195,-35.17030066296428,-46.34525439388182,-61.55410232184321,-74.42117701999044,-84.27655404889322,-94.37712706429508,-103.37051474451403,-102.13632727620076,-78.80112705153873,-32.800767486972205,16.46940558628389,49.29975565458022,64.91563628265753,71.75185216458048,74.87561485867712,76.34330492110873,74.40879446557138,67.49930763417066,59.3674179477272,53.43803064207036,48.64877139111677,43.638005852844685,37.129653262663474,27.620845822862247,17.739812757971343,11.16897445915661,4.615363725124944,-7.715502383961644,-22.958043950266873,-32.591080743891894,-36.591327383356656,-43.75342184880326,-56.36652481040449,-66.47731150508383,-73.58276612527119,-85.80077061141466,-100.75605815780973,-105.28822001866523,-90.13216338008284,-57.19486830519074,-16.706928911023912,19.709735566100303,44.98254545763108,60.588776007540325,71.01767395342533,76.03955680916594,73.36331700316657,64.3849254442291,53.06806033364012,45.107829977684865,43.28925342894788,43.97243917567834,41.46128308062508,33.726889467768814,24.10568376686745,16.226986993617803,8.333110038254329,-2.3409356895875244,-14.177279356350182,-23.723455587527518,-31.211964733244635,-38.51734439790242,-45.03593489441534,-52.38744772911519,-64.02590071013636,-78.84557169492925,-87.76377965587935,-80.10574281303748,-54.14999572526854,-17.448230866655862,19.237248617875498,46.15550315358474,60.58090347480316,67.35714844452943,69.19394431149878,64.46765380941325,56.21278590112771,49.246600675121115,41.88196389451323,32.399744362494346,25.28099434097014,23.947237988877866,22.05968387591829,13.507563927125114,3.774386220633768,-1.2213186598094736,-5.572519272668738,-14.660527214804002,-26.719671340695207,-38.3811174299091,-49.95585761013253,-62.658786085523,-72.77287127180836,-78.5930253720296,-85.80671405142002,-94.23790514721311,-92.10285480112655,-69.39265228659552,-29.216855087269014,14.135491946101947,45.91102165754765,62.48616007782719,70.63864271022298,74.43655117535337,73.01605861187859,67.58663229726335,60.17454373174469,53.00012449824636,49.69624060442107,50.66741877089062,48.7011891373526,38.92895671571782,27.577285862009717,19.403161677854914,10.652295620609781,-0.4465955664539531,-10.211004629824892,-18.40609104858673,-28.26942618690864,-39.94449920664856,-51.39701359888568,-61.221869075305975,-70.70646406709685,-82.65864392359786,-96.38829638973952,-106.31813104437731,-102.31659929699451,-75.93498807780529,-30.545687819582295,17.253308739016013,50.84858158251953,66.38588736652515,72.14123787252079,75.66787699393053,76.6562515443221,73.10342142355091,66.90937026318828,60.60532401788348,54.0,108.0,75.0
