-0.5531009136755709,337.1255659853171,427.71302751375305,355.6363651266346,295.47358367601925,275.6656509655475,251.71141556145903,214.41568473901407,180.7844858464714,154.3805256495915,128.53173581717604,100.06058012318586,70.22399785961032,43.04129180067364,28.90001660892818,37.74836962136066,62.596857825903896,82.36598056948422,83.78740301277011,71.80009550192003,55.80945911402546,37.23151057158332,15.262131876745082,-5.4513106023386975,-18.54862800775434,-26.654522038790248,-38.18825444745812,-54.029837372606565,-65.84618257660806,-69.47822486752756,-72.41277526980036,-83.48430806513196,-98.10570386427223,-103.82708964454153,-101.01307624705909,-102.8034901981682,-109.74709119097142,-103.58827364684842,-72.471276487246,-28.63915687714592,5.208356056641891,20.654139423154504,24.976957961712394,24.57677937214973,20.04348638647857,14.094131354869212,11.446185622938158,8.879578893344112,0.5299570576985779,-8.866388882757361,-11.201703179352496,-8.169141338536457,-6.057326078105576,-8.005322850110904,-12.62808364574138,-16.083867499320903,-19.30422966075158,-26.12698008797461,-34.79351491628669,-39.40275914924968,-30.57885911541495,-2.086750837256156,36.50000908646245,66.42962465835106,79.1298684175675,77.71636233222215,69.89206323798577,61.845186647683114,52.14264805966061,40.30915146574742,30.138041466587985,22.405696399296822,14.299746021054705,4.201448502345744,-4.128861352206813,-8.599106550434197,-14.177750953108736,-21.651616827305936,-27.605752573073772,-35.379398069186855,-48.216217179365835,-58.84799529967889,-55.78931833704536,-32.88864516069931,1.9591200367626869,31.687164441122096,49.38293456530463,57.79130082126205,56.27556815433629,45.973100731308534,33.997532688628695,25.063022441977992,17.75537787160692,7.490777090198842,-4.96077803846682,-13.248790265974316,-18.329167024412072,-24.784221449043656,-31.757341996691668,-37.513351373963275,-42.121296730111844,-46.08831725441567,-51.82807207995916,-61.65259110302065,-65.78389274343074,-47.782264866656824,-10.055761550551138,26.477150136622875,49.544990513531665,60.999267669156644,62.332626686703954,54.50612075690272,43.15558069986227,32.24743167753793,20.991433965181056,10.11528498131522,2.3725192577883627,-3.8073892568412826,-9.44276653512813,-12.647665223428467,-14.696418184894698,-19.032450432321003,-26.124294004642987,-33.04064708724761,-37.77439857354017,-42.84243251096879,-51.45185291508394,-54.63305767603963,-37.02459171208894,-0.9122093602599652,35.26842867089229,58.09781507624998,65.31591017809035,61.1630115474894,51.33819045444706,39.35857955457886,27.766463709948606,18.59709266004897,11.966473755141047,8.410423383131088,6.329052718773227,1.6547673853675697,-6.578468062969658,-15.349863092781003,-22.78039667565196,-30.270038438617895,-36.9588092242363,-41.762434554544626,-48.18478940143568,-57.81256221297094,-62.54424513454216,-48.12757278237675,-12.968154222230668,24.60529211539986,48.17666911538035,58.030466159114916,59.69540855735487,55.409717736386845,45.43408490326468,32.64889174334316,21.782261856141545,15.063885157455113,10.576830008916069,5.015164321122481,-3.0063198520329824,-11.365718342728192,-17.436077025958387,-21.719209235290734,-26.04118976738073,-30.398286542964993,-35.497867286074076,-42.642299976465544,-50.485533374679605,-56.819585528457594,-54.48129218766551,-32.57638076529135,5.4231123179146214,40.348559033734944,58.81780550665455,61.88222592666201,57.774456374163606,51.21064537560632,40.37086743612184,26.46688923896856,16.889112525967665,12.220679838976091,6.313151905120111,-1.9904562027224588,-8.207794985754575,-11.15199321435365,-15.678836919108008,-23.86013761318177,-31.36638010740554,-36.6248406554212,-42.51859994369985,-51.4885789384408,-61.54319352131255,-57.588440183698346,-25.072430974109864,21.0856812035616,51.86493157243776,61.29055367677179,61.83737541040581,59.828813713390424,52.133256944382246,38.06176040901586,23.165923509863745,12.242100264939447,4.375326448477707,-2.410225563074905,-9.272493863342497,-16.67461038675128,-24.81155020557898,-34.10286175614198,-42.642548759021196,-48.07306367924123,-54.34857833894201,-66.02637885850638,-74.33818300480303,-59.838110328829536,-18.020195139727043,27.899262954101182,56.46851080339801,69.4116914960081,74.32433005191005,71.72851355674256,61.002886907504994,45.69526649520271,31.13179847537315,18.939683939158684,8.6774293835529,0.7305137936125249,-6.461100674942474,-15.49135127856046,-23.198073382970804,-27.541885500341706,-33.75904718074596,-42.06155416149002,-47.10930005490391,-53.7422038198757,-67.12266375339973,-69.94081040037699,-41.61096775224531,6.038503983235182,43.208171253986634,59.543651964850554,62.922339170671506,61.10388624697815,55.76837950906783,47.38148335393221,82.0,98.0,60.0
46.71681110417861,71.8688781666054,79.88727759813811,75.72415759791093,67.52723775843963,59.3604945924561,48.78915462084723,37.06762069661831,27.740226797205,20.25125639629142,11.51999560996519,1.3718607591679735,-5.672066368607775,-9.879114935637986,-16.33246444840507,-23.54205984156911,-29.369854537210898,-38.69127083090308,-52.038381028586194,-59.81861653332229,-51.184436910748595,-23.30153269995569,11.69977910563917,37.94682035722367,52.69632704436402,58.46648951068761,53.94032015470418,42.36578114891425,31.052719723368302,22.9849176125719,15.239943873300293,3.839116405564875,-7.955974798495349,-14.775143859577327,-19.994706627264378,-26.86337645375155,-33.56245493086113,-38.94586326111616,-43.28790133566372,-47.37955595028416,-54.353259859287206,-64.25328415794974,-63.27686918829642,-38.12086136567284,1.5311323914666746,34.582761068321574,53.88585882580544,62.46043212767919,60.82607067393172,51.31249372625477,39.93255103419771,29.094999105030194,17.653118344051645,7.536733967847505,0.561271725141267,-5.5735057517461755,-10.655068354809867,-13.197166096359226,-15.603702505121138,-20.898040853619477,-28.281249531660958,-34.63188539294834,-38.96411783350345,-45.05171851971749,-53.696299057594544,-52.06624552296406,-27.78562440488288,10.354921049302627,43.51497383004282,61.678289860484,65.0161592523466,58.70067197561178,47.994525181247354,35.84477500900367,24.842126938667125,16.413101374701963,10.609270242808234,7.8382578944498515,5.384050712841034,-0.4461132558612133,-9.216408895627513,-17.601366482744716,-24.89036494225815,-32.40764932398833,-38.45676146038953,-43.25392883053911,-50.778848060042804,-60.312829776625705,-60.844652025934295,-39.55943798690857,-1.3509605154705566,33.12300338237145,52.148604394250654,59.18813494447218,59.0526885656256,53.06648804524752,41.8100609774047,29.138681524534416,19.42794883845881,13.695557021587938,9.197974266290082,2.921250129911374,-5.541748525146036,-13.3984884500668,-18.76110525058731,-22.92875902839581,-27.315533791575056,-31.703614857060312,-37.36672526724341,-44.92662689935012,-52.619765596652684,-57.572793734430284,-50.43235347918452,-22.53835222762873,16.700405784408776,47.57203561985906,60.96008981110428,61.0811157149352,56.1283849356687,48.63610960786501,36.366166548303255,23.00506804136185,15.285469086683351,10.862709236748037,3.9953335176428553,-4.186186294511813,-9.25461280243716,-12.051992978915184,-17.79788902515191,-26.29733207590626,-33.01714388085559,-38.13280495985441,-44.72066807965348,-54.66482468682177,-62.79281222134809,-51.14504952836337,-11.718477090414597,32.41594655544744,56.33614846776693,61.822760812214156,61.57663124738301,58.35546015403801,48.56118668189065,33.53301876030502,19.552278059778402,9.76837044797454,2.361157012521532,-4.346354351534916,-11.356299943069462,-18.92183629069151,-27.395901116117376,-36.80762395461822,-44.504946574938586,-49.47329683380968,-57.222907855606024,-69.58464637667502,-73.24454235364816,-49.94161842988023,-3.8332509316703134,38.24488794699517,61.37624265266055,71.51033334770025,74.43053154319493,69.39370506047175,56.793868284122205,41.24807884912894,27.39141644642126,15.769265796581806,6.139389842572973,-1.2624460538368691,-8.892858984904409,-18.09837043405359,-24.642545051224474,-28.918862640672785,-36.21708042591446,-43.91152132863268,-48.37430433844182,-57.20116463894998,-70.2673913828367,-65.17859184063212,-28.45062591075269,18.84607038083896,49.879269013537694,61.395232959221886,62.761379089980196,59.93372746132057,53.592650030974774,44.627802044005506,34.69496289670785,24.51254343375888,14.004303374314071,4.009001434093809,-3.622776427156027,-7.942750920675315,-11.373777707106683,-17.695859346830563,-27.249805961517854,-35.489789310206724,-39.7604688015747,-44.90069867189672,-54.73617953931425,-65.86508421493357,-67.2714708999467,-46.17386183986924,-6.316817509372727,32.67575899968367,56.57819485759417,63.55927714288852,59.49499467353116,52.28208199129681,44.88097393997043,36.39536300435185,27.373186837351035,19.389311304730924,12.213921207591127,3.1868727933973062,-7.132923238406242,-13.129539872511035,-15.38173428478471,-22.33847191021944,-34.081932989963335,-40.730829266290115,-41.21312730223895,-46.000963892228064,-59.18366685485031,-68.32371062244341,-53.23712808762433,-12.173089913950776,30.449126329904413,55.08908680417125,63.785124409917245,64.5436411276421,59.02657085765932,47.391785567065654,34.24259130265157,23.707675931168424,15.424986662410426,8.598744695612929,3.0476106204938596,-1.434661057369563,-7.3844493150227635,-18.153948321866586,-30.590179087105735,-38.40762055820272,-41.62308495686162,-46.84402345734282,-57.26221234324995,-63.27066334487032,-46.89438303066285,-6.816413828587677,82.0,98.0,60.0
-40.31166283625357,-47.59029312192853,-55.09283403962195,-47.430800847575014,-17.32207753381485,21.128712976291236,50.441882100313364,63.98963767333585,63.910907267435455,55.89358741410542,44.527595231618065,32.43414822019784,22.147742880331606,14.434456876115483,9.535146918028516,7.301147635875724,4.124364385043779,-2.816181160305347,-11.79960099858408,-19.73892937892636,-27.056623454408342,-34.40394048796311,-39.81372325635774,-45.00815663143343,-53.617336804673116,-62.09083483526293,-57.18601811917977,-29.450356656404495,9.873340060138787,40.230160836535504,55.13011515217885,59.76978465478338,57.9328096934589,50.25043038749659,38.066832599589794,25.898429603118863,17.43567575284239,12.428794925842165,7.654998869146308,0.6165282698209696,-8.017604249647938,-15.19734489806845,-19.98576488863869,-24.175782124149585,-28.570983920974605,-33.1208005085057,-39.4166431358721,-47.21418820563166,-54.58233477729154,-57.32868013964921,-44.50430030283166,-11.471718759494388,27.185926291407412,53.24350765619642,61.96808310205701,59.902041457565794,54.31508272296247,45.60855060295425,32.23600536292377,20.09809876099692,13.982103454435283,9.238861201956553,1.543922411527911,-6.0800691363839015,-10.07050054987422,-13.247368365747867,-20.184650526951124,-28.539906191839005,-34.51621058655921,-39.77136330523629,-47.23864578977443,-57.80751626822169,-62.33434189295917,-42.117439648634374,2.035063634841132,41.83425646427643,59.19936266060533,61.96859472613111,61.113406196532644,56.2887558492764,44.51303304828404,29.1177450066903,16.331333084418617,7.481641936376338,0.4047500483701177,-6.314838537211873,-13.485285213310597,-21.24226877087643,-30.08373753163314,-39.36330153072991,-46.0775113267977,-51.12815521846908,-60.599965550698926,-72.47101850334569,-69.72938508150682,-37.9508988464116,9.906486660735833,46.84074410545701,65.2242145148492,73.06207492912411,73.85677482743763,66.39545711218098,52.33588761443195,36.97949781509952,23.83921889226301,12.755350655203264,3.8129520123926204,-3.2758241653598312,-11.516236479216301,-20.43936499832737,-25.847020222927316,-30.625030403519013,-38.725825155129705,-45.37799741987591,-50.05420730077117,-61.21476454325419,-71.8348267866223,-57.48679982324462,-14.37535003495119,30.09475835759051,54.84513899829388,62.43402489439485,62.29313913078089,58.45989737588816,51.19271126118146,41.80016556835302,31.781475673558283,21.500242283657126,10.992207953271421,1.4763399081359279,-5.177738549663015,-8.837722294414212,-12.791241030397002,-20.25009497286288,-30.01771476350227,-37.030530043249335,-40.86496072277624,-47.27545416364271,-58.15001210740426,-67.9425926714242,-63.77306757782123,-35.840412725761276,5.918454888750503,41.413175182682174,60.17878663178948,63.142939734937585,57.471694248143756,50.191734226747315,42.56058597590094,33.770641602850674,24.912054516641426,17.32540515017376,9.906932189006247,0.11677164864070447,-9.506655070463598,-13.83570036854437,-16.60128257386262,-25.634484501605,-36.882702203137654,-41.139496043684794,-41.687608236477885,-49.18727255918261,-63.160034187538855,-67.12825415210193,-43.27941512969105,1.2494526113846463,39.669437681031,58.814370484161934,64.61880546255573,63.64625386961727,56.17052391193758,43.48136991647086,30.883435193678444,21.143900630442733,13.311700422338818,6.867344999195193,1.6806225581790335,-2.801054514036386,-9.982895116592564,-21.889487094530857,-33.49589119955797,-39.57989623673772,-42.61614853657349,-49.45488263691389,-60.24473208936994,-61.458242690466626,-37.01945619711966,6.112135646019192,43.689656925989524,63.28552011662973,67.61470545067307,63.497594125561456,53.51758560816801,38.1699374656043,22.434779092121396,10.660502108889327,3.3556335807593705,-0.9349552193454188,-4.859944246192025,-10.460682362751514,-17.900761923218923,-26.32941523824528,-36.077352241031136,-46.35496729377379,-56.16328931679917,-67.98549494259761,-74.13542402914906,-56.985925722636026,-15.04525691898835,29.849057591357354,57.88641871864564,66.71441302795213,64.62492636426641,58.14759252203733,48.27264652742731,34.67560261449131,20.56958189170955,9.946443811138897,1.7570853857558464,-6.610576582428707,-12.986250406951438,-15.290839523047534,-18.778821987406296,-28.124824978799744,-37.61768196008103,-40.69093702233946,-45.057852974557285,-59.27172118488467,-69.73517373652633,-53.875549020593155,-13.110949941269237,29.060213639320093,55.93788588790322,66.94107335162207,68.46131014717332,64.54279836877934,54.87400685877656,40.12038585108736,25.85392528264451,16.687453923675076,9.441152800029531,0.5324749018298955,-6.429909562507634,-10.363821112836137,-16.69511483878181,-25.599702110051144,-32.75140730550019,-39.05323200796618,-45.63102439081609,-51.59083410598861,82.0,98.0,60.0
-0.9028808996794555,-7.6188458070362906,-10.799252129505039,-14.820926102671033,-22.699505349171243,-30.532635507930813,-35.95599953382573,-41.59769797899998,-50.08190140522963,-60.54750671260511,-59.665674379911366,-30.85433778222159,15.326442624554463,49.171789809651415,60.838620950560305,61.910105451640106,60.332142992917866,53.588311845082025,40.139391782407166,24.963841217643964,13.463454348553322,5.331214384777168,-1.5230610979392496,-8.327960154788341,-15.657538689058429,-23.659361272637632,-32.83321992370044,-41.67662694477905,-47.45836260031601,-53.21104351818724,-64.29715268989068,-74.1361177284767,-63.570477447238645,-24.501792877405954,22.560361677341163,53.77492549380091,68.24673630919854,74.06141662744659,72.56697769313111,62.817031323735165,47.78511762869972,32.92633608277429,20.451087904918843,9.91879714381013,1.6715083857939805,-5.412512292509522,-14.240229357644344,-22.416607902082333,-26.985772576338512,-32.69613591223081,-41.07852324409446,-46.581071635308,-52.39945013979848,-65.34626816899964,-71.15484261015072,-47.133427861479795,-0.2597007625363474,39.5093933345956,58.34709251780855,62.87426151567839,61.544268906323886,56.68392958577948,48.616061056756855,38.92853733649824,28.849622856707548,18.458917949666986,8.05718568716553,-0.8068663268758213,-6.453509359774031,-9.758555202670388,-14.532010939056878,-23.033822745507504,-32.51828576335777,-38.250102612779806,-42.22284993863668,-50.06864246467958,-61.529948487211676,-68.84915649516128,-58.131025066364955,-24.277240532579267,17.544577454963207,48.67892453994558,62.42069289322789,62.003969156576694,55.36336565349582,48.083463088913525,40.12562640716482,31.137667284376015,22.57581647939772,15.293106501635503,7.359509879508587,-2.969012654999943,-11.363465520347514,-14.367285782895568,-18.450396293621324,-29.1607906389846,-38.99275031805628,-41.17589566427485,-42.83298915687564,-53.02758882623636,-66.3320443431315,-63.41571837440871,-31.433180196899006,14.036112788210353,47.13465160225029,61.43948175956813,64.94095736284426,62.19410338895097,52.841229817812085,39.60242675914175,27.793837210494935,18.727741706666496,11.315439194331564,5.2375806311240485,0.39977032986695055,-4.39756403043575,-13.038469427175059,-25.600103420572296,-35.880843980720535,-40.4615379576504,-43.97323405620666,-52.497290159906015,-62.467952902020116,-57.321461176008846,-25.44208500372414,18.46190401131788,51.27335486702916,65.78889382391742,67.05666363809551,61.24513946851912,49.494529616706444,33.38935245671916,18.55098360431499,8.124028322132677,1.9129894003640817,-1.9891939212277399,-6.257787664087197,-12.464716498563561,-20.246080192647153,-28.982171982608847,-39.109764918926324,-49.133057957095644,-59.376628250798646,-71.1184473195825,-72.17708567084453,-46.73434864609632,-1.2202760829911838,40.115769780705016,62.12630207432098,66.83137098682109,63.07459842401283,55.687800605719694,44.66811075316528,30.423009309603213,17.077757405118902,7.492144734926475,-0.6304552086484058,-8.856603166348064,-13.967377600720233,-15.836800383378154,-20.914438104064388,-31.31759720730123,-39.116870156422834,-41.19476119379604,-48.259910033127234,-63.82908752830636,-68.43383493782964,-43.788745721568674,-6.84715851017037e-05,38.67306647392243,60.497347875810014,68.08105933323334,67.84176818404053,62.396273640766175,50.964975516935176,35.64226420441019,22.66331135838768,14.68501096626165,6.97540257585596,-1.8881086151747886,-7.687653324638341,-11.740481842057354,-19.234594403336846,-27.91138200608634,-34.5395161758244,-40.971015859336255,-47.410435598309036,-53.36013089756057,-60.20109607645974,-62.1200480806135,-45.705683146554094,-10.054967123133768,26.165971748398963,48.13658199208954,58.23683427639495,61.014737615168215,56.73067353591451,47.67475931735127,37.34417905879406,28.231010687884666,22.71638519031496,20.314790226418047,15.467096407942153,5.7928244239591935,-1.761433216235277,-4.299707341977271,-7.767320908455045,-13.73997553433521,-18.330236802814355,-20.473561984056282,-24.436163201818104,-32.85966789464055,-40.908449435654155,-45.01528153522879,-49.06263136048222,-55.71336572034709,-57.51457564703401,-44.32745174420649,-15.897420082958588,14.945837057678936,36.43986668037057,47.379067975530276,51.40244786541924,48.49898632929772,40.04196139584341,32.544537446277424,28.870196322350985,25.42004722036935,18.887138963830463,9.946467029001557,3.8502000917616575,3.4361130588309408,2.1581121070817324,-4.18604371525347,-9.370359946054183,-9.594851825751661,-10.765349440064652,-18.002167311627552,-25.221741565048983,-26.73542738182171,-28.60080723268322,-36.01784039563139,-43.658859526207785,-43.40875423520434,-30.085628270549112,-4.116701637644232,23.572500483029522,40.24952237177545,46.40435106578226,48.01278795744526,82.0,98.0,60.0
45.908643335087035,36.033985710696754,25.889221977251143,15.407116606558404,5.247661996603997,-2.804065608242068,-7.507806851187803,-10.814463861054053,-16.619425426917203,-25.92354774516457,-34.64683979064325,-39.29135603877497,-43.955956259019324,-53.20534117628776,-64.62260663829312,-68.19429957608037,-50.39062398729501,-12.033736084909565,28.182623715122276,54.431202561309846,63.446876699943594,60.36347962048383,53.2497720234253,45.913093570131345,37.590230764509045,28.543611682632406,20.36842814455781,13.213393413568149,4.555103409373645,-5.891048255379665,-12.6834756267835,-14.989394484177419,-20.971413629427666,-32.60613930256352,-40.3469082944872,-41.152132359356145,-44.802750847976625,-57.231400279797015,-68.12045325559185,-57.04539087907979,-18.382557232489837,25.622192084581982,52.9287457551025,63.205477447094445,64.78208102315575,60.15986470363363,49.16324367462412,35.88094342830164,24.948614542090407,16.439324432417045,9.43141570565838,3.7134743639940324,-0.8475663214725007,-6.343564668096535,-16.476461589871356,-29.096576127046102,-37.72637068009821,-41.24147603746483,-45.81517342407131,-55.765132047290436,-63.409886871737804,-50.732944897952486,-12.804811619032051,29.749770065858232,57.249868242482165,67.18193852472325,65.95395451005935,58.4917684647703,45.06775692221614,28.741733892493038,15.056555175810399,5.949325352110175,0.6697601905019734,-3.082322351854419,-7.832178611420384,-14.60261000129879,-22.657138546499116,-31.772399688891333,-42.121896732376776,-51.89763198113464,-62.83321263910828,-73.40269615010604,-67.82889469012122,-34.667383487765406,12.171219690652963,48.644443637132746,64.87722064467098,66.27956918642676,61.256301235413375,52.921881965890776,40.75988888147759,26.254289071333094,13.945653149676197,5.153020262621275,-3.0728237678426575,-10.817764260572435,-14.618409866322585,-16.68195512677924,-23.585447173235952,-34.25692926132359,-40.01366164058607,-42.16437704239685,-52.36661402000892,-67.4678139615198,-64.45940595477846,-32.00219407245894,12.570576139623649,46.78160683274231,63.846127547351855,68.59963158137067,66.81654512051725,59.726312060923775,46.69433718959019,31.383733755525242,19.959380179402967,12.670864621793658,4.361418224078703,-4.002780675698999,-8.758915571443467,-13.479501950917816,-21.875957718141365,-30.0007183759013,-36.33600486770818,-42.896101512709535,-49.12053357070351,-55.257366698137666,-61.84390051938999,-59.7255147179715,-36.814419633171994,1.3429165098285947,34.11960995689388,51.9652872656814,59.75109125247992,60.47504946022901,54.42916264554529,44.70259100880327,34.47485273552716,26.192585965326572,21.87284765175925,19.450722224621533,12.98740852905408,3.02982670624431,-2.8107527709233002,-4.962023499418727,-9.382719040302051,-15.361319784808607,-19.09459889879217,-21.180986064876542,-26.515199564672397,-35.51119578338938,-42.45245546461263,-45.917350144533856,-50.86302126345271,-57.24324698135088,-55.53945853449666,-37.287050067959896,-6.542002964939194,22.36472196884607,40.518917418194015,49.1604939703174,51.340440221196566,46.38117724357183,37.49866786372302,31.17635958128941,28.05394281016816,23.910745507096777,16.38850993387266,7.6145089195348685,3.2807318428151513,3.5530962006697475,0.7043279389502652,-6.154210938118829,-9.835301351060762,-9.446259347657968,-12.297166096137426,-20.534116140055406,-26.1688773871566,-26.82267072592908,-30.238624545047365,-38.59866722284906,-44.68602699843282,-41.04200006276558,-23.608179489521547,4.40958981373727,29.78900131024995,42.78308740171544,47.221089229209014,47.71772661938094,42.99578299608304,34.16078856341495,26.663549370438126,22.54485300018358,17.969447403784887,10.989123326999728,4.470634975092207,-0.3147617413608876,-4.974233634875225,-10.136144696898043,-15.586516591565823,-20.221181862399984,-24.730363402192683,-30.240687861017438,-35.408284385445434,-40.074377376627396,-45.38894831437837,-49.18598441641834,-46.49371230457216,-32.03337314086903,-6.625614353902925,20.089839098289804,38.22906847678892,46.220344707129975,47.092916298408724,42.90378704030353,36.49988004246149,29.402300610643003,22.514464369413457,16.820531930851768,13.217324521251182,11.04981998523301,5.5084696554396615,-2.510351988794798,-5.868670164377885,-4.807289112869451,-6.940610083032752,-16.072740185424284,-27.142091403172824,-32.83523507105482,-32.32402929291605,-32.21631042055678,-38.01460431650842,-45.80407161362991,-44.25941701846413,-26.28376236552624,1.7836073710161333,28.03349224699728,44.43317979589267,48.95596520048011,45.26132341305111,38.979188356741496,34.164271835442726,29.801541889830744,22.61674383412949,14.84087330795712,10.381212631463892,6.361947232036475,-0.41074433423836193,-6.173518385882356,-8.940679360533071,-12.615978578796128,82.0,98.0,60.0
0.18873565946686632,39.64834483716938,61.70522841167669,67.65577531503993,64.37769058754122,55.20876142536546,40.37657691289923,24.34968963052143,11.957650372593571,4.105706538226153,-0.444617823872014,-4.268926458707824,-9.590386037559298,-16.841801944932232,-25.147629722560808,-34.69523275088931,-45.04505947305333,-54.76999525952303,-66.38890619874348,-74.3163434728329,-60.970344794399985,-21.388286680508326,24.579604413244162,55.375693379562804,66.3756723941783,65.23541500530204,59.18783932458243,49.82005419810683,36.62669335976283,22.295773471774215,11.144885425759238,2.8366507902062144,-5.51323341401139,-12.398412759493816,-15.085580661848565,-17.98978163258675,-26.645411397591417,-36.70173320589789,-40.51122216169996,-43.92240952721003,-57.05356363788133,-69.50340896550752,-57.79494084179809,-19.17987406904846,24.147548384109484,53.382672881459314,66.16669345425449,68.60799826551715,65.36581051901217,56.52313473660658,42.21113783357658,27.49342119444148,17.65538467137152,10.508353681832835,1.7194772133359395,-5.748302083013843,-9.823308296449234,-15.602941231619106,-24.461254168925592,-31.910527182909814,-38.18258854729413,-44.78359001742441,-50.80469078690879,-57.27574862421816,-62.795305200205185,-55.45873917325435,-26.521574793412963,12.189225285413945,40.71277862355514,54.98955399836633,60.69870652644757,59.33822056126638,51.82628647098644,41.69443024077554,31.764703192749423,24.513479794818238,21.22747373931861,18.197999910481027,10.146022946239382,0.6887702553556472,-3.5065386088061126,-5.878586190452134,-11.147900060651928,-16.761346978659326,-19.682852992265815,-22.19553640895614,-28.955027706530537,-37.9530166807512,-43.649555230942845,-46.983581845222844,-52.86036907327321,-58.0905771392703,-52.09200765321706,-29.11903075476153,2.608691916083502,28.810130318051392,43.791431583749656,50.44871316604683,50.64225971889193,43.906035734791715,35.21923060284539,30.112480177140192,27.133257057218763,22.091294063079573,13.751413373345345,5.692534029155506,3.1723189830286227,3.3463673261027145,-1.1540160570430216,-7.8007395104154496,-9.892258262968605,-9.607506329709926,-14.37176755287122,-22.798242822956837,-26.609475633988342,-27.194618056741184,-32.362650099693646,-40.97993220746807,-44.88207347045603,-37.48042477649462,-16.162747508364948,12.692645377845217,34.85300092898601,44.609478113328365,47.76371462340584,46.96220071544866,40.65337330630933,31.632629521568635,25.228037918383222,21.469367463647774,16.12419470936136,8.913228199752409,2.9716948951609012,-1.621330758508451,-6.40548204192264,-11.726699551558859,-17.033728216499537,-21.450343659242485,-26.241051222578196,-31.842878379449175,-36.732352150728815,-41.5599757802201,-46.826650783850965,-49.33791592708587,-43.67201204718822,-25.518724472348445,1.4948233509885522,26.46333497248717,41.44535719052238,47.10429611513047,46.29340884561205,41.166125632476536,34.49658034193056,27.333815468279848,20.719679931950857,15.511866364012844,12.617435385456176,9.970597488213178,3.1286204852903605,-4.169653421598138,-5.732175239518723,-4.760177738943809,-8.93843985292157,-19.442958620612185,-29.548185899693546,-33.129562633184115,-31.88693557243206,-33.2507797811389,-40.492315248544045,-46.83900368604603,-40.72659019039062,-18.66572979560914,10.011561396580142,33.9976196263539,46.88124603523188,48.487080814992154,43.47200714527159,37.366874913989534,33.03573119967929,28.057093033729938,20.18273281373152,13.199581626158782,9.4288640145699,4.629177805585525,-2.41111451912618,-7.15891482037946,-9.747130345595863,-14.08194486883186,-18.81845268714903,-21.464844674651758,-24.13990303932568,-29.019856669489933,-36.06380814598798,-44.50777275327519,-49.85941239103589,-43.96487418896741,-23.752300306652444,2.0982570146535755,22.50378485426956,35.66620273844439,44.84290900940998,48.586357777502684,44.51055496463622,37.413177137226775,31.75572352750842,25.792703775553555,18.70400776651295,13.19624508032372,10.156855074151652,6.464779726051123,0.9235903015982592,-4.2753663786103635,-9.854293136061283,-17.340121249748414,-23.698619976699213,-27.311060034895014,-31.540441237316443,-38.021536752882064,-44.25492867949319,-51.05591371118193,-54.19728572671064,-40.582709752961925,-9.506838404257623,22.139008045558906,40.87966297658019,46.33108334993827,44.645720813378375,40.50947320125325,33.27932879481847,23.34377053264216,17.029847698366375,15.894710925108301,13.704867627391849,8.222334284635943,2.028049018558835,-3.2630098328304924,-7.6446105564916405,-11.68512271883397,-16.631831696656352,-22.979427371608296,-29.810100839022766,-35.89936914715009,-41.29947915171583,-46.647804106470836,-47.37342298925146,-32.86716578516369,-2.4548765472614575,29.243995989745304,48.400026655457665,52.51185112955166,82.0,98.0,60.0
-52.530823778251325,-59.31205365540954,-62.65772390472554,-49.22462887263796,-15.34302377183679,22.041439210505054,46.050590408802066,57.34886352915183,61.055857789298116,57.66170586477657,49.01693059665443,38.70308686602927,29.28127225924677,23.20337050352747,20.626771385575854,16.44937519622756,7.153770373572302,-1.1150559957018944,-4.046693921956972,-7.102949419341515,-12.939014822965317,-17.897123128168605,-20.210582985744033,-23.624413764759353,-31.61108313809205,-40.06472946645517,-44.6098994960721,-48.33205065328279,-54.860176111251,-57.96873699032442,-47.11936632939083,-20.173128001112687,11.224832913864779,34.255860096667405,46.38241276160022,51.22843974443554,49.31026956520944,41.262768043353766,33.299047897237934,29.241782158596127,26.01839046558932,19.963175339321005,11.11563100957366,4.299155949527558,3.3359568198337053,2.6569954372138342,-3.2237801585843395,-8.991515866999801,-9.704859111238326,-10.263974942286628,-16.81694136384161,-24.58877740775977,-26.724910358944484,-28.031328300118943,-34.82425661473952,-42.945757304748255,-44.11709247463438,-32.695656902432425,-8.015107003684234,20.345261332093955,38.784857585565575,45.92598180584582,48.0128874741695,45.70488641699107,38.06260315511365,29.366222852557453,24.050643783029027,20.224132186973147,14.094187991612353,6.974314160224543,1.5958238516302368,-2.956563070973849,-7.884047689051907,-13.324630222647091,-18.38332510416821,-22.71829137284723,-27.841210913555486,-33.36067926218918,-38.0517916316904,-43.11363088481297,-48.04561844904959,-48.8077672893199,-39.74913289990615,-18.20712545754448,9.42195116468678,31.931648265966444,43.876910021748955,47.45897201114968,45.11899687085067,39.321937128133214,32.44483522293374,25.316158700875384,19.03763890149939,14.414674813001566,12.073036500513773,8.464858226930925,0.6876308088809183,-5.268249858432952,-5.350753754693917,-5.195489520482955,-11.524407029789357,-22.774276537734725,-31.35110514982601,-32.975718239228414,-31.69874417053992,-34.85050693864974,-42.93356751221616,-46.77664997392376,-35.75866591976287,-10.493808594946602,17.813649547711105,38.993570489623444,48.35348257552236,47.46230848833977,41.60599991316051,35.9467605797494,31.854956337635073,26.013860855890417,17.83536459019023,11.888170551386894,8.362936759633017,2.653763302250313,-4.174068898330427,-7.928513268262587,-10.75352030471079,-15.58822828674675,-19.782570878132002,-22.079415333830546,-25.311034234793077,-30.839208429587465,-38.45563665377378,-46.707061524054375,-49.64699460722934,-39.42111151821997,-16.272474049273356,8.839711097620668,26.89424490091741,38.66488084213688,46.67717019090035,48.13770767395836,42.44643939728526,35.631771386078924,30.182887173519717,23.780107450938534,16.8173139043215,12.160986972317428,9.305815829110907,4.971975850574274,-0.6775935693251709,-5.715081490988386,-11.88119784564762,-19.47083664575704,-24.939355578384223,-28.28450802641988,-33.27942268252238,-39.89647532895513,-46.100285194293676,-52.88117509122557,-52.44939406462255,-32.83784290624462,0.41867729839697776,29.115171365087228,43.593932435414466,46.28328916187363,43.63923832087432,38.837487374674524,30.47930701182436,20.861112090170515,16.399931706059157,15.613982465289897,12.3816562957814,6.380866238686602,0.399184426675982,-4.616694821251135,-8.794431321390027,-12.972932110863749,-18.339318258903155,-24.9667258364449,-31.677166240968283,-37.485833174809954,-42.88251898549568,-47.77486290183696,-45.12884147280161,-25.253140708872674,7.3446674611154545,36.42113955137164,50.92339172450319,51.91252662002674,48.43902225494206,44.17108797632246,35.63412628098469,25.215897870798695,18.64868419191041,12.462689093654047,0.9453843964141817,-9.249172816542478,-10.388675478639984,-9.021607619317878,-13.273372397409988,-21.053822857740727,-29.500688156281146,-36.89482004286343,-42.866505156807385,-51.71863749528541,-59.47032696973763,-47.712792507564984,-10.271191466666922,30.41437744554944,52.42616366633846,57.01922219946693,55.83767253990186,53.71287716023854,45.67984938140702,31.555165953395978,20.107684861343063,15.417793700365468,12.482710080455378,5.83427139472353,-3.7250450489387137,-14.54816147091437,-24.817908728549963,-31.232133728691505,-35.324143485347726,-42.045547753010574,-52.33783807913102,-63.874218557335624,-71.61577937217459,-65.3503799608701,-37.99966011093862,1.0850274517006882,35.04466778072959,56.659661544861464,66.66369420987812,65.45164862194852,54.27577133434363,40.64362997421194,32.482943400151626,28.20535862190459,21.09554467196106,10.284487937724414,0.4728146042411579,-6.2480547766189565,-11.72330091307995,-18.56107779307089,-27.621117875189313,-35.44949226853401,-40.35081995704885,-48.29814104981056,-62.414436891140674,-70.17076802468198,82.0,98.0,60.0
47.907076054020386,43.95370909807818,35.382007692814746,27.43505562857125,23.01349287067493,18.740219958380194,11.970807541955386,5.217359946175392,0.28363955478672215,-4.328561590294489,-9.414291578308822,-14.888432895746972,-19.652469112754357,-24.070720022141806,-29.484651699977956,-34.78132214084573,-39.41833927536608,-44.68244463873717,-48.928035656011474,-47.44304354544969,-34.71379517822544,-10.35091834384836,16.87720651720152,36.4549975810483,45.62280092976151,47.31661326449718,43.65316879736873,37.4045495962725,30.36367966827563,23.3768993724025,17.485149438468653,13.546123298350997,11.427592701216438,6.526016175747589,-1.5817848658240101,-5.79721840351355,-4.942014591600536,-6.238419020792087,-14.566072614704106,-25.856515106398497,-32.511160152709,-32.55245009647597,-31.932378985754436,-36.933536621901204,-45.03681817050439,-45.387576146518576,-29.519769374682866,-2.087955960804074,24.986125251075787,42.95821722369557,48.94598936522954,46.024331734771586,39.78057039756614,34.698830979636476,30.50649243830171,23.725191133427142,15.71436208521905,10.824394866299818,7.0610591623541294,0.5556224244456518,-5.619372914950309,-8.613882750660194,-11.983328106760265,-17.024422036208,-20.551254755144413,-22.791745201368386,-26.68204790834803,-32.835918096499526,-40.935300295514125,-48.484317474716825,-48.27720670642604,-33.71073716449759,-8.648285475059234,14.911765663595702,30.75014584105881,41.40222086642003,47.9480641140304,47.02751031267884,40.326135354703226,34.00460561609831,28.50274304521441,21.69842024251026,15.152994702932173,11.300395724474413,8.300033346797537,3.3516128588761545,-2.1881837800625696,-7.262361720240124,-14.065684377448779,-21.390798101063385,-25.97041875166079,-29.429527931431007,-35.17773195644371,-41.685890996194765,-48.07342873345867,-54.15488540139992,-48.95406562689162,-23.85506322721747,9.884530953227095,34.81866726654239,45.30070832385111,45.813692825981924,42.496263146564786,36.836687163210705,27.528265422290712,18.881890379276232,16.113901120650056,15.073958863314395,10.806626079629718,4.561631231785884,-1.1461370925665177,-5.894196755256316,-9.941240615729201,-14.36811118089274,-20.16196125057025,-26.960039007106445,-33.45662674269497,-39.03484805625607,-44.4773557815649,-48.309886535382056,-41.329626434769004,-16.48665401554194,16.801675289466196,42.29788011053519,52.254205015345306,50.98741852231261,47.417158920251744,42.22554599261132,32.498164670223595,22.848625008482603,17.21485503950369,9.645174542129457,-2.673313717425231,-10.489096980236129,-9.71523691284312,-9.616245737921307,-15.356960859244506,-23.47670451931134,-31.8489078479471,-38.627235313238984,-44.97276120616379,-54.731992479294234,-58.90002585162607,-38.97323716692879,2.4894452936790685,39.05309261559536,55.04196794594671,56.82653882668204,55.4337354714298,52.24572571367784,41.90459474781337,27.59753623859143,18.147541806261003,14.728840776788848,11.010862245337902,3.2562364678565996,-6.752694264729447,-17.731738054321166,-27.140151168566888,-32.416842987655905,-36.852612395161174,-44.725853014221244,-55.68440523084369,-66.85839193788779,-71.76709097852971,-59.54757045306662,-27.117561566585806,11.993828886138703,42.57922083446274,60.68606200133091,67.4866832094261,63.04532701020063,50.13037429572752,37.58408408203437,31.15772270846084,26.650903782476533,18.176977326974352,7.153521244469705,-1.749944668420874,-7.836800916996314,-13.45807677042654,-21.02327108835559,-30.220684916218907,-37.0182666693864,-41.993621350424654,-51.95609367421752,-66.25162022968041,-68.23465734568678,-42.96562713898812,-1.1676837868203922,34.39599222055712,55.9473946898057,66.21256730602575,67.10884142177107,61.33303501144437,51.043711957814196,38.27552393362985,27.234498375825083,18.516423727238713,9.671516113441735,0.6709224615370675,-8.037661477055005,-16.459635041478396,-23.815550028622233,-30.140415578615833,-35.94465556902552,-42.03102770379679,-49.475670753464684,-59.45221668168306,-68.58852322857975,-63.52241710096155,-33.24922072621514,10.85439279672725,45.85459413741026,60.756690181674365,59.547235924817635,52.840069055917496,48.54530070605727,43.766776998973256,31.69329032007411,16.51331568988738,7.50617415869207,4.152880147802611,-0.31278210029794556,-7.7619342084844325,-14.636486687784327,-19.230437314430574,-25.694103843983836,-35.736098900689235,-44.119337315206465,-50.577639256030295,-61.35745249170477,-72.63657146313945,-66.98825830605185,-33.02198724099856,15.029902827150604,50.6846933581629,64.19239580838935,65.7305988973564,65.72420272819964,61.64207088441361,49.82618688644741,35.3499234372458,24.645167612825766,17.889724831647243,11.455207171676186,4.095596408671305,-4.639786577269133,-14.999937293864312,-25.54192699779984,82.0,98.0,60.0
-13.39430293405559,-18.300125434730884,-21.18960999359247,-23.66917295746952,-28.24070076626996,-35.007397325049226,-43.40739976113903,-49.617330485816,-45.62888964903504,-27.05681254597834,-1.2007089770374844,20.268186556699476,34.19100655078228,43.84173192331241,48.55081047828909,45.391396851266975,38.29524474424544,32.46229288657397,26.68087443623058,19.62860288698372,13.752455103897006,10.519271111445484,7.091968605086002,1.6851830661404394,-3.623741557200105,-8.98813591507964,-16.314207554009226,-23.036976984733425,-26.891117383368773,-30.815169688654574,-37.13043767503748,-43.437204571312925,-50.125710920312486,-54.47842347223957,-43.62981100129213,-14.111466021819421,18.516651640385778,39.248464939604254,46.16653419735872,45.05999317742516,41.18661091714805,34.47968042035468,24.615344256670518,17.483176946346347,15.969371651156015,14.212822428367055,9.06063784964406,2.808303752212943,-2.6127936864823416,-7.104336011649741,-11.120681433684956,-15.887484608725751,-22.075368662663802,-28.923650703716174,-35.14701365411548,-40.5800819719289,-46.00572187192441,-47.938146926378465,-35.90131444073458,-6.970432593388873,25.541758073433662,46.7929948889371,52.60690603006038,49.94497615331026,46.29231620782425,39.827152065522256,29.370584309032402,20.909816057845795,15.594776420233089,6.3201132235818775,-5.871405674429693,-10.892911214707375,-9.144584503163973,-10.771914535010504,-17.60791174020788,-25.93119561468347,-34.043789886153476,-40.281805011237445,-47.46743879827177,-57.37513744028147,-56.15240960939791,-28.235756724051296,14.737502526521425,45.806210591162326,56.44956757244403,56.443460121146984,54.94300660592524,50.100728690767085,37.75167373507813,24.11141012489033,16.74850243724059,13.991132972091489,9.15236425712113,0.5091225735002549,-9.875487247081455,-20.79277665638502,-29.06454931366529,-33.52536149654094,-38.708425636825325,-47.67335885109023,-59.06996922466037,-69.36327873404582,-70.44007316239448,-51.91973708627958,-15.671601567145322,22.094737408788152,49.044028085022326,63.78554488946522,67.35560850771286,59.87589311905079,46.038289076053694,35.116792335482955,30.003831658786897,24.70317130598957,15.021459408382784,4.236444134469114,-3.7179879390165795,-9.388044906189988,-15.369875727340716,-23.66027596336116,-32.58276137007639,-38.37710686257386,-44.10404301252091,-56.106390255327845,-69.06255935518845,-63.81435678340087,-31.495454142406277,10.466671244507317,41.97879884881171,59.96587127344798,67.34558292269362,65.98710929655456,58.7794742342309,47.434998456185255,34.76172771277045,24.593681705211416,16.03247816680099,7.039451094145836,-1.8599901971140382,-10.531077025507253,-18.716660292787875,-25.72534740377132,-31.84564651998087,-37.63003438029303,-43.98316108676857,-52.08863293465261,-62.58042766195435,-69.3428596135187,-57.346863977132486,-20.879150337807193,22.72635452381025,52.268121183011104,61.64383244540527,57.68258648847769,51.24807875300445,47.60024356292058,41.11021129351851,27.146148220046726,13.056992754863074,6.258728851855012,3.2034106999890746,-2.259727465008775,-9.992592117882833,-16.100307986783132,-20.67389688016706,-28.389207242937907,-38.557140398289704,-45.90610152762585,-53.09451956386053,-65.17229699934171,-73.60347286425863,-59.98501343602488,-19.356766357108654,27.51373642482219,56.6658853134127,65.20583424413108,65.77137452003333,65.27528807509508,58.936946723406884,45.56771046061328,31.712839724522272,22.456523813357705,16.10210579659412,9.439645874965569,1.7360666105406501,-7.484367227473019,-18.138353008371386,-28.334140386711205,-37.30029636608266,-45.15811591261742,-51.79007719618045,-61.098815920459344,-71.52621809861176,-66.23626564243037,-31.797008307952837,16.617770855195864,51.237922660801146,64.01106077230686,65.64096272575952,64.84832861411233,61.59112873565167,51.473749248975764,34.42705807537417,18.82400486204368,11.004706284025838,5.798499957871583,-4.244390795158777,-16.86864832815127,-27.274465255328362,-34.74516831420422,-40.751040973003626,-47.530864520096465,-55.900573314193814,-66.05660039798983,-75.72045699356924,-70.38164687652397,-38.48499293266779,5.165334776473541,38.026319861442005,56.68385343838694,67.44789884204687,69.18114988990372,59.49690512787135,44.91543944232186,33.55293403909954,25.217216669631085,16.710412559584114,7.003707136344526,-2.6920664328871684,-10.77364613819529,-18.00601610303617,-25.669286579535424,-32.80323861685972,-40.004644089777656,-49.05022053183231,-58.31050836707663,-63.86811428473299,-58.01759324072873,-32.90426118991498,3.8919035639899247,34.76490201837309,53.409190101521766,63.29373984716585,65.93670300438801,60.70406812868699,50.23980155567952,38.668779876413346,27.48609283040062,17.259824550761216,6.7788521789127305,82.0,98.0,60.0
52.244396576129795,48.90687753234367,44.92253057852043,37.02682181848576,26.448688246474447,19.3151227604796,13.571921389649274,2.666253555274434,-8.377203828905714,-10.64563604064844,-8.941791271441403,-12.399517721780642,-19.952319665188156,-28.384560653820103,-36.041530603260725,-42.00407181446173,-50.323847685496446,-59.1232966449338,-50.952131146876376,-16.116772769238473,25.826222528321782,50.725926508952334,56.980704578311546,56.024241564759734,54.197311612800924,47.231840310314396,33.48507716188138,21.223038837580013,15.773675322392087,13.033353011150442,6.947644843737649,-2.363820435981352,-13.067444736531842,-23.620701842415254,-30.618252261283057,-34.71244359731386,-40.914112610190905,-50.82957045022079,-62.39621396497629,-71.1305823540475,-67.38576361925512,-42.694703082458375,-4.139241282285449,31.204531682033515,54.48345743648295,65.96820065730047,66.26761167336258,56.1310917934358,42.24136274216843,33.20618230786621,28.816449098389054,22.327387507029247,11.77296694435735,1.5931322167957702,-5.48413256315358,-10.967753609013517,-17.50025230302901,-26.37672089339433,-34.623670691222664,-39.69754782278807,-46.822612649541355,-60.45634880256562,-70.28309097826998,-56.915751649362434,-19.211878840113148,21.081418582891683,48.406712000644724,63.115432741059884,67.73292632826146,64.3933469327104,55.87092151185738,43.697952530875966,31.502851060915116,22.09259669693561,13.485789356706487,4.425823863574933,-4.37436502060315,-12.989673279674705,-20.864643667596,-27.562644318723088,-33.51790521488565,-39.3638894833612,-46.07629874218891,-54.945256835663805,-65.47966080863752,-68.47018489081445,-48.93911058264699,-7.894590567538211,33.30473503414491,56.91259594640135,61.391736682339506,55.64704528244863,49.979214014320064,46.41283148585056,37.723198721780285,22.591497196153114,10.303316135598497,5.337261572080934,2.0011505759301733,-4.42552092510124,-12.055816752852046,-17.391546129704903,-22.427024858394528,-31.335505538037808,-41.06797252111036,-47.651847408958524,-56.1289715408263,-68.7661884951701,-72.63593889213084,-50.52114778892949,-5.150394529402795,38.35082363938005,60.812471330642914,65.60527117655549,65.8262114630914,64.29659750480455,55.583753403230595,41.28272970548925,28.515381834565783,20.51746273492608,14.26442090527628,7.339878868948093,-0.7511634921104302,-10.467162432836876,-21.226965907189697,-31.0136117829623,-39.73431096881363,-47.0985924023211,-54.0117259976142,-64.48361149107987,-72.5682254786297,-59.21758350111919,-17.905067490937636,28.91506967271427,56.87417371278729,65.0592560555201,65.52608671417833,64.32568544106311,59.548183293407845,47.00855033971475,29.318990390349644,15.771779972599717,9.683884928004364,3.481252469155853,-7.903646076605971,-20.20197264125584,-29.695898366252017,-36.53269529215193,-42.54818930987843,-49.801355952210095,-58.60981035177604,-69.28421427148083,-76.58339731694981,-63.76810845127703,-25.886886169004747,16.33992276056973,44.56324641638952,60.477705502306414,69.09462271426545,67.44828917564736,55.321395446667466,41.1495200839094,31.000638117301264,22.865799781734506,14.016568498839044,4.105090139595235,-5.211568354357018,-12.861413158647375,-20.185578160825564,-27.83359046197303,-34.76055471469505,-42.435325242733086,-51.84044882810538,-60.5377751155381,-63.811160638270536,-52.807531261843465,-22.662505800180746,14.011184678691013,41.31193932252688,57.008749440354904,64.8393577961595,65.2087919800288,58.001727846983165,46.89993299591029,35.36644433799428,24.437581434882038,14.350380616250568,3.55830926152926,-6.2551517644276995,-10.261428247171292,-10.102642497704975,-12.437268896214874,-20.903698570892928,-33.1186259467073,-42.340486739336406,-44.74525022794229,-47.956236579017386,-58.907137475815745,-63.226608869810164,-42.4838549800555,-4.584114571934893,28.540082914074553,46.91623351888464,52.48903610840554,51.62330112932969,49.51758505314591,43.7549913410424,32.026632917389406,20.566273644787643,14.483983412663287,11.032091994935465,6.260518770477982,1.099841474613894,-4.467594022777591,-12.629004128151752,-21.793919623354007,-30.060227477543332,-36.99928892018818,-41.99739489000019,-45.2076189918334,-49.61967969556523,-54.9899720421572,-50.414391961519875,-26.415792748775736,8.903097378881768,37.278483342941435,49.51299013683572,52.62309854852445,54.67298430936192,53.4166741244154,45.41661242172682,33.72776925593728,23.25962917976801,14.303528420658136,6.209979826491758,1.3617769373426858,-1.7659729100464392,-7.790570258704898,-16.54697199319079,-25.628130756600143,-34.5751224406299,-43.193022040248614,-50.521297975083286,-56.52773170690468,-56.849247090376785,-40.0236934540585,-5.0412086191393675,30.195168718032857,49.52441746901594,53.08929856814045,82.0,98.0,60.0
-69.42701001730613,-47.794672091714375,-6.781713524777723,30.485248186900606,53.78995977390097,65.42419575816064,67.44556711084441,62.386855599740805,52.633300152189555,39.96184176270865,28.521906514166115,19.646145723134104,10.883012220711981,1.8473582152346524,-6.882897104708526,-15.384567606749242,-22.906654439816908,-29.33919115284533,-35.17721745752403,-41.168735164167195,-48.35269664801951,-58.00266393466914,-67.81453291549458,-65.59478783163611,-38.56945339748017,5.059442304275926,42.2943535617633,59.89470950242235,60.27437885171787,53.67642809513,48.96698078679217,44.747786597982525,33.70462658802591,18.31929636699195,8.245915469190258,4.535210692441215,0.48982096814856424,-6.705539049598654,-13.88173724283616,-18.632996532225082,-24.57052596055666,-34.36400406478877,-43.228013033747345,-49.57483097146536,-59.63141752747396,-71.67166695399303,-69.35082918778181,-38.934606163327715,8.843828859125946,47.25876910024715,63.41354556498918,65.71359465493187,65.80505015599458,62.64739626371017,51.725102633040095,37.15591824204255,25.770250499093688,18.708570027692215,12.358515451222079,5.143960348026054,-3.378574936608644,-13.555306185717019,-24.210376970711902,-33.61191001092165,-42.051854521984055,-48.95976632802763,-56.60390807958589,-67.78631231841025,-71.73613444450822,-49.623401681857366,-3.5486459662301475,39.448160636787954,60.769763612732056,65.52622874323197,65.32175769622386,63.527328327966956,56.8037505866178,42.05574524667879,24.602848160880672,13.434632170328484,8.328918691604443,0.6497595000361746,-11.621616400067056,-23.273558016004674,-31.886654434049987,-38.24744368055416,-44.46676008143166,-52.194282325349896,-61.499863199413774,-72.34536102319811,-75.68373857032793,-54.84240048784338,-12.959507981734447,26.17769528315063,50.06126392370508,63.74032400720046,69.8595462515489,64.76401706283309,50.99769036832208,37.78819832339581,28.610461082440324,20.440000206086207,11.217354829534546,1.260684032937758,-7.570619574460158,-14.92765845488605,-22.412460064969448,-29.90936385814696,-36.785140228533194,-45.03882592280506,-54.57862541120773,-62.34794685525574,-62.55342503981329,-45.84714174354604,-11.855035040460672,23.229968638318013,46.85483012305384,59.986385888340884,65.7676699151263,63.81137092180597,54.98019881219017,43.54545236196885,32.110987381551354,21.482592058316797,11.356148732114564,0.3845536696837044,-8.115416228960475,-10.3613153062184,-10.255838708787355,-14.244674632062145,-24.29560536816288,-36.415301711379946,-43.63117925697141,-45.02756144493038,-50.51189477270943,-61.92779461525439,-60.048359344939456,-32.290987137104196,6.243144288503801,35.410225240589476,49.615168235996165,52.56881251420191,51.10194574025759,48.466491051986814,40.84200386591996,28.315024725898677,18.254887174699437,13.454857674745876,9.835552348539407,4.710195156559621,-0.3364746704827268,-6.5565668154911005,-15.299499313535408,-24.30368836762198,-32.21781907923586,-38.67878021308922,-43.02387147650973,-46.20541193501787,-51.36023495321714,-55.338982182127005,-45.484811606576486,-16.593347151238902,18.542022395446356,42.41052040994515,50.82104320590074,53.258173778083794,54.88983152397761,51.79395829874579,42.15005363558492,30.46696926516327,20.60255727601883,11.797026757015061,4.403370297008966,0.5136247871165299,-3.0980863629108404,-10.17134601446362,-19.190490663107564,-28.21716071293972,-37.14085289370384,-45.462614204721376,-52.41111323047474,-57.65951376443392,-54.19136333745451,-31.247179321311293,6.087596730432782,37.71478422097355,51.81620952753965,52.473216525326336,48.0770569568677,40.618742742603104,31.01397155504004,23.43723162082302,18.27112108805286,11.785076506218834,3.5112270768789724,-3.8924613523410114,-12.015106254754846,-22.019171532905624,-29.043615582877035,-31.45433897975981,-34.81184227598679,-43.58882768575554,-54.75058059074885,-58.852024420522966,-45.332138338129255,-13.452219570701157,22.570571297131114,47.82837757246306,58.217997055268675,57.93255800122735,52.124636615877165,43.32616855477241,33.17157707303803,22.050544157881795,10.483420195402621,1.625308544964175,-2.933304589872928,-5.395053706194928,-7.761094025065446,-11.17397167765733,-16.768386953711513,-25.47845736581878,-34.04278776847423,-39.12775833412709,-44.778092865355994,-51.52875391107595,-47.58846769540532,-25.188453169530028,6.042955078928646,30.96052191456814,43.346241361305744,46.44545564703887,44.35023922404536,37.19885944949652,27.553019945610842,21.6319412201176,17.87203317684036,10.784092451712024,3.668212772018836,1.337755675820059,0.8025937227190268,-2.8779905604753386,-10.533684990977745,-19.612076922593687,-26.740954689345884,-31.458194280874782,-34.920834017902216,-38.994888637547426,-43.37097823001123,-40.3277429308811,82.0,98.0,60.0
-27.062523662906735,-36.15039515573925,-44.21581886788492,-50.86017797821209,-59.60060491995961,-70.56644717892662,-68.56919425401635,-37.82143631127994,10.469692034698175,47.98636970182258,63.24706248626204,65.65199743589743,65.02636101144584,62.32226626114245,53.32035457935827,36.84391179149963,20.484048995431344,11.677879615167452,6.695665657878803,-2.6234269515719255,-15.253427500827053,-26.07330884853872,-33.880515040350076,-39.95165062870762,-46.530062766757325,-54.70227516740068,-64.58278911137754,-74.8682017102665,-72.6067962499877,-43.98548501294814,-0.3697957057391643,34.60105480613054,54.74588785392411,66.42959775257832,69.63428813686134,61.296019265362524,46.77440738979548,34.813413165780545,26.287082521455503,17.913424710507275,8.342305574105815,-1.4770148344959901,-9.78829541333969,-17.02195145272188,-24.64867012069963,-31.901886788032805,-38.947792604776865,-47.76777979583619,-57.18164939668909,-63.5656866905069,-59.8288564092182,-37.29620513599422,-0.9980868785762742,31.38150082575056,51.51918082317179,62.382617286742295,66.04033660652664,61.80620816482143,51.761814601034985,40.20235827322426,28.92508341542371,18.588612055678304,8.24714942037305,-2.591785463819777,-9.384970629957945,-10.251642695235665,-10.78397148225955,-16.599295111637144,-27.885689946734644,-39.26471634438955,-44.33758204867931,-45.70342719926437,-53.749078288520096,-63.78965004216683,-54.47619949921987,-21.17816119768193,16.16601483658919,40.9797770231001,51.352078184462464,52.3015048360461,50.54882016287955,46.965308782722744,37.451453960912765,24.854571476371184,16.435070070754406,12.512099489578752,8.46884867212011,3.2021992855656785,-1.8707071614882045,-8.891772012543044,-17.976429194773978,-26.716685556301307,-34.258893049036786,-40.17227416042847,-43.92741086190193,-47.41042268310896,-53.09006084744099,-54.47716552022481,-38.82479401171491,-6.216307225562824,27.139104675689147,46.14089988159268,51.676392147665986,53.90175170920406,54.6891099352797,49.57017984471219,38.72315064197548,27.398926812415947,18.02175165085927,9.382914807524676,2.9430460872761133,-0.3088345626368651,-4.768128515118604,-12.709810210248339,-21.82034355918746,-30.80163314148552,-39.66238202577178,-47.60124533175083,-54.21084060126928,-58.11232348572205,-49.78251208481113,-21.144774254332404,16.66356620787874,43.65333120712938,52.957146144387586,51.49770613887285,46.27426023491606,37.897033921283075,28.46972322318564,21.84367404228005,16.671592057939176,9.446100812950846,1.246351063200146,-6.001758500944826,-14.849669755634801,-24.59303454743404,-30.052396536221725,-32.02793291550382,-36.76223458408622,-46.90396527536195,-57.16711392091182,-57.09706376081319,-37.5955651578919,-2.659453508935657,31.374469520495595,52.271624946703696,58.95935346861201,56.669250932220386,49.81405853842821,40.47458019209494,30.08288432396262,18.646185180428404,7.499435699084885,-0.08810259665602041,-3.731872502106522,-6.042393690817798,-8.58661097780646,-12.507913645724651,-18.99226340320171,-28.228432913289783,-35.80957629099921,-40.45171434282993,-46.95515048168052,-52.122021139087856,-42.89379060255122,-16.335563361402983,14.393010057703425,35.80475813806373,44.94692320981708,46.31038135736811,42.819196647571204,34.375020965850105,25.30589517644406,20.644716192761656,16.210788523247434,8.407949957502925,2.488604335665086,1.2729575617662647,0.17772887817384633,-4.740004901314797,-13.18474737435583,-21.958886155343507,-28.303730486261053,-32.52880285991677,-35.93527596060174,-40.4421677863641,-43.68447220881926,-36.986388665598845,-17.868016807081663,6.405378439473136,26.841077348022466,37.70361022777828,38.38954202734159,33.2948244723416,28.12461198986129,23.823967136753872,18.901376726470936,15.010534974081315,13.96586039632025,12.21966278043616,6.866778201072377,-0.3107648391642699,-6.324993426519438,-10.579346676665732,-14.981687233113526,-18.48447401485018,-20.360629992725837,-23.964760468713113,-32.01041337283545,-41.15387932190578,-42.26678342111953,-27.971540701905663,-1.9276822075452282,23.102051924304703,36.49777809054193,37.65229838206031,34.09648084016157,29.364061066345553,22.50318725233282,16.8237608979732,14.92685498300236,11.925949308369995,6.514472239487541,3.189716204446147,-0.6019223256111751,-8.51406468385631,-15.717357856993027,-19.799525389012906,-24.123416179604913,-28.43902751033317,-33.47314256022418,-40.430118272405146,-40.913855877481424,-25.47281108486112,0.7561848170207595,24.698875070054303,39.15257433838604,43.74868721402338,41.53924004993287,35.47529208802102,27.94748489346656,21.934396897414018,17.158757390900192,10.341517477325072,1.507889145055523,-5.6778031923684695,-10.29626637551926,-15.935136291380841,-24.26042333954306,-31.733923166130516,82.0,98.0,60.0
5.045145140659965,-5.20911083929045,-10.09529160309355,-10.120266355352976,-11.792055933441628,-19.448277161507136,-31.49857725184545,-41.522300078950906,-44.653610735257054,-47.0566148933425,-57.30474401104456,-63.89695774355356,-46.70109478012513,-9.776452861077056,24.929486368907572,45.31112729033281,52.28262698947348,51.85505522846992,49.89076008748955,44.90569179074483,33.76441985932773,21.80602464802526,15.02681779634867,11.527419521827555,6.973433392903149,1.754803777563802,-3.592557919619176,-11.419579125248962,-20.606537667212656,-29.02900655986206,-36.168610507875215,-41.46654412045026,-44.79286428337069,-48.86803843579325,-54.525155347381336,-52.08918804674401,-30.626607909201077,4.213805934167816,34.414115669700244,48.67204759019254,52.33596518804679,54.47127583777856,53.95567423950119,46.82401093662834,35.283970965711625,24.526710528750627,15.472444005280412,7.151156743038346,1.8026675921405713,-1.2536862033149858,-6.769712207552645,-15.328741125193066,-24.43061268239594,-33.38553680259811,-42.10385472875118,-49.62235385570172,-55.857403627072955,-57.548429715254436,-43.520501204598474,-10.208114698735203,26.225653017412903,48.01557763688948,53.2051373719435,50.268781269607736,44.186165839818884,35.06724724588142,26.206723513213085,20.388681634347847,14.859077967983378,7.016192675424053,-0.8904931760633749,-8.274273198986855,-17.80455354997462,-26.754375748479834,-30.728443231958842,-32.85975712404147,-39.22342588454189,-50.260663469443806,-58.7236820436506,-53.622119786576484,-28.47241023659696,8.017142704905257,39.00079610505421,55.48526021773443,58.96413217991379,55.04313457271457,47.2944157178767,37.55109582496592,26.895617135537947,15.24688792039903,4.835450332720833,-1.445134393621339,-4.436299722075521,-6.7064005595906515,-9.531594819628214,-14.049868333734995,-21.495607775102357,-30.81448636652997,-37.269869892497546,-41.99464246227485,-49.112920844805494,-51.43034277333616,-36.62498124040241,-7.1417867220104645,21.885508899847324,39.57055997830456,45.916123649075345,45.80257098055634,40.83231776825352,31.482286402104535,23.514439715532937,19.670785069151883,14.183877289631209,6.216527180951716,1.7644206781450067,1.204572872213723,-0.7956892991053225,-6.916945181931123,-15.861319611059505,-24.074973533956374,-29.689905471585682,-33.52008647386338,-37.06819669959384,-41.84625609955599,-43.114510821103764,-32.53410510297968,-10.959941878075147,13.044250263572604,31.091416020946813,38.83832146755468,37.22219374910831,31.651033395306847,26.879584418927962,22.469349510853203,17.518960463737752,14.477226358678115,13.759591968946575,11.02755949942099,4.844058675142244,-2.2768318219622605,-7.647324913910136,-11.805687592911053,-16.19540197016981,-19.10439535852429,-21.031700512141892,-25.842042863649908,-34.86742095574051,-42.759277952154804,-39.80856001550355,-21.176730160730003,6.0148807821562125,28.418365961953075,37.821826224825585,36.78134899957572,32.90698637270638,27.557570642438122,20.50314908444078,15.992243372832544,14.43271342079498,10.399818685360813,5.262094600151093,2.4404474876417375,-2.550353147085594,-10.952434601730467,-17.08009399255984,-20.942599141075505,-25.44118874255461,-29.6652703868347,-35.44806196756482,-41.81262157751858,-38.18596818744426,-18.4128290331412,8.389328140811607,29.96402489420502,41.39450783790769,43.64862888857583,40.09240906630146,33.31235434566945,25.96575843523414,20.568943647107304,15.503282326430977,7.858041730206946,-0.8858557211687219,-7.167419774294855,-11.639381321311655,-18.156925253118207,-26.685720007958064,-33.40891068728603,-39.28782183098252,-47.68199612652507,-54.814578647286325,-49.782223437392176,-25.48075673290637,8.744056102011184,36.160328726152436,50.79740991928476,56.15457255261098,53.8515735656748,44.46940202847238,32.63802053402773,21.618175928470063,11.315469384527379,4.037672173909117,-0.23534400609175501,-5.7443038342619115,-13.663978035503565,-21.295399496891775,-25.99984645753786,-30.25837636049733,-38.38760283221627,-49.34250560556852,-56.36864757930335,-48.74072805418928,-21.45370166066026,13.873882434172563,39.13217102541666,48.35139446017978,48.81270243070499,47.024827257821045,41.337416164145864,29.89323692333043,17.069400329420276,8.035194964883432,3.3778170332487205,0.6527820951890766,-1.9843823048068567,-6.765674133633727,-14.506002668336258,-22.821245584622694,-30.151642148333295,-36.24495393846818,-42.66991916520248,-49.61312392992967,-49.90310716583749,-34.97265041975564,-9.166383597411267,15.568004747402044,34.10429398577823,46.432810468407745,51.79032990649033,49.4982187608353,42.925088863834375,35.03152987784369,25.44079354725437,15.315749791575229,6.844952691297991,-0.31678744591465346,-6.915830179518386,-11.51834843930185,-14.481392112839366,82.0,98.0,60.0
52.81116199206495,48.82133590353411,41.80563820502152,32.262262353325156,24.246613705484908,18.956157281639005,12.806472264744103,4.597916443325261,-2.947039020091838,-10.778151499069452,-20.728946020202482,-28.433029179407743,-31.231201759165835,-34.08633500102924,-42.13111105754551,-53.42608307306962,-59.12958724496698,-48.35336723744347,-18.340660031157075,18.16523700599265,45.34501399622797,57.58499754096362,58.37302283796169,53.108557992010844,44.60835522308004,34.56838990126514,23.601171790998666,11.94528870674788,2.546796187903703,-2.51425023702871,-5.096598813841207,-7.412603361753768,-10.61913362245271,-15.844464848379074,-24.199484967935167,-33.10639089762314,-38.55122291303097,-43.83437314045873,-50.92049458292529,-49.186617568041626,-29.035502256698578,1.972761285482421,28.350950575249133,42.355717234142126,46.37779624665639,44.90522253314051,38.425089211600486,28.725676489813715,22.149406243576856,18.51144772761207,11.888142381017568,4.371662784744595,1.41180736653376,0.9860057860787279,-2.136683125162817,-9.348742408456241,-18.462493500268145,-25.951987971946224,-30.929199619579723,-34.475957593318746,-38.35409491626022,-42.996522290162815,-41.47408453575489,-27.11307099487879,-3.854451157689972,19.158150699653753,34.447218909863324,39.158611693866156,35.72698483374074,30.120140339860132,25.66478794492777,21.038115919162138,16.30977576784479,14.185020271839816,13.353880621759417,9.519919922754791,2.7415327461836685,-4.0698176529620795,-8.85769370087946,-13.087681078006273,-17.262715623212625,-19.614476495144565,-21.961337012854504,-28.119824861132248,-37.664973157656235,-43.42745745640642,-35.95104387010217,-13.62160591326803,13.517265537913735,32.572739042668324,38.22996829173832,35.73711769774803,31.60423321586132,25.56200936859862,18.744159075157977,15.470529282364707,13.661475520580563,8.760439508342621,4.285361239043452,1.4776566273885108,-4.851169912284265,-13.140787656730787,-18.230272296893858,-22.18714831420718,-26.697036866530045,-31.03715856716393,-37.559693984064765,-42.33024864917251,-33.98222054211928,-10.753306612727078,15.526488189183032,34.34584568331628,42.85321429652844,43.074391408899515,38.374679713919974,31.09630211789829,24.182746125133328,19.24253793850508,13.595187774275221,5.264630316997898,-3.0381020659757265,-8.479166521052111,-13.184944293063294,-20.58331383384575,-28.915126199525044,-34.989142976822045,-41.44398014697459,-50.26645237370914,-55.1462986914749,-44.668904480645494,-15.818218316704664,17.914181420023755,41.617459996072675,53.127415899044614,56.312344136997865,51.7242307963503,41.06484229103487,29.363517245336183,18.52804690202681,8.77431361996398,2.6693023837479224,-1.550936989299407,-7.854367048668928,-16.06618454357896,-22.96449708859453,-27.037772812414786,-32.12970213969735,-41.46253955886636,-52.20924265630038,-56.13596932538283,-42.69388583072801,-11.199339440564955,22.795972332448613,43.27918451753446,48.948094473072835,48.47387703886792,45.96079690758716,38.538401255872195,26.03977482694812,13.9489577135262,6.3271409596914285,2.5005637726455223,-0.05250006780007704,-3.0226464142347664,-8.788973370094345,-16.942854416988236,-25.082192290849417,-32.00098703232532,-37.97550631935403,-44.77232322217241,-50.877458567182494,-47.27002558497648,-28.0857664437898,-1.503906019669972,21.585803917977056,38.2994454003751,48.77510225753797,51.843289479975255,47.82966730184896,40.76746597931232,32.448356815081304,22.44721257015815,12.659042914573886,4.712046433547976,-2.321563461541796,-8.501646087790343,-12.457118004945112,-15.306830796724567,-18.887937353029432,-24.434144906152643,-31.61683549617947,-39.04614414538474,-45.95459566876213,-49.931868392303535,-42.62670334883796,-19.805187382550958,9.631190757194384,34.17756014505559,48.286557277674305,51.253863665679205,46.21452469542229,37.69099698067122,28.066011216254047,18.41722430217737,11.20256664231577,6.7603505757646625,2.329090560338929,-3.1179737917459596,-8.409113619824799,-12.654273847097281,-16.79981179943023,-21.69527463779915,-26.884377154999648,-31.831528031510366,-36.66018444679429,-42.51694571670812,-48.07287324540149,-44.171229382624226,-22.621077309860222,7.970245169400128,31.535481476248805,44.24896020125001,49.69603511323435,48.60520608552996,41.82194699889956,32.16226211049352,21.27918019691691,11.787072176009213,6.72269735650989,3.5854005119924652,-1.8557693221253655,-8.949857832647382,-15.763500167304473,-21.446735529592438,-24.602290390547232,-26.959308022265684,-33.417799176664175,-44.006736098492965,-50.45149944324353,-39.643578203031296,-7.718643373955212,27.59628775750565,46.29812726673089,49.833028776157704,49.121363063580496,46.257331773650485,40.01361011356265,30.898740421483485,19.969263396471558,10.581846531345793,82.0,98.0,60.0
-38.67070740817096,-20.920652099614507,3.217082222240059,24.595582247467814,36.885696638342786,38.770097381051535,34.07123499145477,28.72618748466605,24.42023744320085,19.57077381927431,15.35349905306474,14.02932823880043,12.654749091436065,7.751151128789621,0.6377260382932177,-5.659324320530116,-10.031695832050461,-14.391082810305422,-18.14311163286568,-20.108120468772018,-23.24033879535562,-30.728407490146317,-40.16940350825727,-42.9334661273756,-30.765741634930553,-5.646349564027899,20.290530904606662,35.52781873147687,37.94830767547621,34.623747240249735,30.121392384698794,23.46727909317362,17.337558156544972,15.100201396048138,12.548339928712204,7.180569421375528,3.514699832154574,0.15310704833391975,-7.349297180277934,-14.986163071265697,-19.300204407110723,-23.50650184888603,-27.893270530217382,-32.64293012586899,-39.59594845295835,-41.675636923789,-28.425328291275925,-2.8634418539337014,21.985139893324867,37.83712596780712,43.61036231130503,42.10335304300219,36.43156667933556,28.91648712349706,22.60346416451422,17.850314697372447,11.42358763116841,2.6716342933888355,-4.909185240634209,-9.717441253866745,-15.000614176872357,-23.103129796919756,-30.899406174699813,-36.606488640685804,-43.861267078438495,-52.56468293006762,-54.14063055886456,-37.887606190850704,-5.740779321841115,26.140428969073998,46.01600582592268,54.80338907038385,55.80822028119787,49.05788123517932,37.60279753887381,26.179901687106714,15.492028269870413,6.581788837434261,1.4752234163338416,-3.0765015712611996,-10.144125059967685,-18.350626622168026,-24.34995276003828,-28.166344753626838,-34.402310058291334,-44.68689011223154,-54.53452123855541,-54.38749265693443,-35.00812826439602,-0.736886109020114,30.476312201581017,46.11441633399946,49.075664736324704,48.02263825498617,44.46175647603023,35.266227364803704,22.2367449492729,11.23721351486229,4.9490233443743845,1.714886848244483,-0.776690296893633,-4.321218177123233,-11.024023294930123,-19.368345349843057,-27.233040990008007,-33.756579087220594,-39.792331241324376,-46.88392735815731,-51.314086968519355,-43.21720392044804,-20.567321699482896,5.795132724432874,27.05755058899139,41.98829661871786,50.49145482992333,51.26750112998544,45.9309138986444,38.52494584560699,29.698550479531377,19.475729538156077,10.178630025774682,2.6479754092324344,-4.273932402519909,-9.873316106718807,-13.304489400800211,-16.194885616268664,-20.266229230362697,-26.399765263367325,-33.79156772307627,-41.1149616645284,-47.671959808912405,-49.40157501903153,-37.44718006166718,-11.389527767055288,17.58649170201053,39.434402809280904,50.215116737922614,50.40972447244212,43.947713092322175,34.98542104633826,25.195895487790178,15.977399383697383,9.740909185221382,5.585904766289501,0.8281227209287041,-4.7293499840538376,-9.732635710059087,-13.797978222272512,-18.139879885131947,-23.19702263299513,-28.35068545886609,-33.20217159533917,-38.19876800146924,-44.3979723948991,-48.47332086810283,-39.7473411180179,-13.920161058950775,15.969905543408755,36.16083805213608,46.47184231737045,50.0718246568255,47.11038983831976,39.224198721493295,29.084772099964184,18.207436187817887,9.852833160623199,5.861546775968244,2.31799875386326,-3.8550319572793614,-10.98013350815558,-17.584374788961323,-22.644997697525078,-25.1514630547892,-28.24355881863034,-36.27189091980201,-46.843866259666065,-49.63110777785496,-32.18954763031145,3.282506343529795,35.09225812004664,48.32918979666853,49.77817369873894,48.60690974302645,44.79142713993552,37.65039827441589,27.826495968724956,16.919276447209313,8.598470204105118,3.5723517073843607,-2.2124014601043314,-11.65990890640812,-22.484443263843925,-29.91925016609379,-33.49592031177621,-37.86740301289385,-47.49117842469795,-60.19356167517995,-63.59111549451352,-45.45901466360649,-10.399960039647377,24.348188176673418,47.26759899202756,56.75943175374473,56.654061016571504,50.54758594038848,39.09085762325222,25.232472363052963,14.97794203293209,8.390897837318317,1.7005959007412688,-4.872312966934849,-10.152735675304694,-14.180842170057625,-18.217294758324893,-24.943206289374185,-33.050846439591695,-40.414990126445105,-49.556584291132054,-55.96375305684487,-45.552319805661284,-15.079955286814837,19.693129717446027,42.66474004865894,52.91603086742199,56.269571992445485,52.25313381137719,40.957219123897644,29.514442646155516,22.70703362156174,16.118802430787774,6.30263889102526,-1.918847983488385,-7.531238630088582,-15.089785765034348,-24.891874152845283,-32.33550165292661,-35.69579451921184,-37.88344189288959,-43.392208874074846,-50.53346303648858,-47.81555332752161,-27.923769952510487,2.247641125856916,29.848103081752885,46.96558061477919,53.09905556180714,50.3842469041179,40.92048708913954,30.65880603827048,24.019998516764282,82.0,98.0,60.0
-32.655732237749696,-38.38645320949592,-46.460519836012814,-54.29471939924253,-51.55214070337424,-29.66354070782388,4.271684893832627,33.263806025400875,49.47880382186233,55.86873761087023,54.62318847129799,45.983401624957075,34.18344920364508,23.05109388420581,12.584946053776292,4.761007352045015,0.319860998526388,-4.846109796935958,-12.543910869861719,-20.42721367523644,-25.511363070119796,-29.524022611804842,-37.054319666894514,-47.90871403175326,-56.03601886059519,-50.933857491331565,-25.9678272205296,9.42173760893283,36.73912577344907,47.8504638566131,48.93253563642785,47.398280075242795,42.44881432711682,31.640815852462822,18.631688719156156,8.950450359969864,3.8286166826664374,0.9811065544537559,-1.5729375890722208,-5.923964978767853,-13.39072056111237,-21.74786603206938,-29.25976775596366,-35.46121452233508,-41.73232548604572,-48.83354469876731,-50.645468142981194,-37.840301172136535,-12.767631890999319,12.607836357490308,31.99954712313666,45.15629053818724,51.53869650277636,50.156889051313534,43.89454893618326,36.1671125675865,26.8071667671745,16.596664525088755,7.864241325968523,0.6151188025863179,-6.118472547052371,-11.039917653350509,-14.11091009963869,-17.184846994557134,-21.830531667967957,-28.47396599030349,-35.95136088163212,-43.13850229634331,-49.04101679842843,-47.660657639897785,-30.996782803397355,-2.751124098001373,24.902727672256137,43.742179508872475,51.234531658731356,49.00839640297171,41.493657945079,32.213202190678224,22.35652372678772,13.817384362907058,8.46638240556375,4.338428250777849,-0.7489301627269916,-6.288518031468067,-10.962215827678305,-14.973274744282858,-19.548247467305064,-24.703336894307295,-29.78801344958796,-34.57515813601557,-39.86371958040367,-46.17013079022419,-47.76467156658439,-33.74982535428852,-4.878399045633613,23.03947357649224,39.951816930266,48.16552659785588,49.881776376690006,45.196054522255935,36.45449785479069,25.925164593025343,15.352630208916116,8.334831879175905,5.028254016299905,0.7885306780749786,-5.923230613551705,-12.963894413363562,-19.28433025107003,-23.59469837666542,-25.734745147367565,-29.993201333333655,-39.39015551082286,-49.06104982206403,-47.020414612422904,-23.064637937012968,13.920454756256541,40.85620346462646,49.375563554697024,49.58922189564798,47.85994926795141,43.03952933524582,35.06222268826808,24.63960084815671,14.108957129195602,6.930352110575481,2.1887770881696578,-4.563967862962431,-14.868112772851884,-25.128589319305235,-31.20394294917117,-34.42410844508212,-40.01878024635796,-51.217377554187124,-62.84354618513903,-60.762042809641386,-36.37400058923015,0.4000678841148885,32.404925935021176,51.282802106458384,57.49727898350027,55.44119944653585,47.76493498802703,35.05332963683212,21.72858402459927,12.888794159781808,6.548048273747164,-0.29836207952071747,-6.535319275331123,-11.43466055017285,-15.219380500024634,-19.82722647612211,-27.323150573637744,-35.18796355628395,-42.80382224098182,-52.2567189337684,-55.229419040390226,-38.377613381619106,-4.558935254333055,27.89439776447963,46.63240542557505,54.47902596727077,55.99626285388967,49.517865863763944,37.2968153734581,27.112882235103786,21.101668448665997,13.49322386463234,3.535566832156111,-3.6224489622337543,-9.359805668447162,-17.862826661251738,-27.47228391777295,-33.66106047397846,-36.24237460379804,-38.997723069730654,-45.67213792271723,-51.327314909684276,-43.78005484586036,-19.68616233282568,10.984060324365148,36.01330742602708,49.76153767618097,53.16129858909979,48.16405938631247,37.71435643307192,28.3779436717843,22.510270667885763,17.111437906316564,10.672173678103663,2.4982241435841885,-5.16439244261039,-9.770950064247991,-14.425055418799333,-22.104028166470098,-29.785449389740354,-36.4956226325054,-45.35163915239729,-54.99798583219289,-57.879231023607154,-45.151654439700266,-15.744815838722431,17.681339414424432,41.92655452550977,54.41423559032546,56.87233612268885,51.245410344984705,40.60114941760754,28.379958725382412,18.51268886122095,11.862610771174547,6.863328841835233,2.426352713946799,-3.005421181651023,-12.53735189931673,-25.324673847235367,-34.48464913178647,-38.9580422038505,-46.38100796258258,-57.8391002811284,-59.26995355814449,-36.62478075056946,2.814504019626402,36.01027615232398,51.53618254257222,56.095907071312205,55.613356438423814,48.77658460631833,37.72403527109642,28.793368087590835,21.441615760162875,9.968043429328917,-3.212936482272929,-11.755692982783076,-18.025321112255487,-28.37582379102101,-40.132080266341504,-46.89669069051164,-51.7124264381679,-61.87752128934097,-70.88232724480669,-59.608470157587504,-21.295992178925843,25.396240155942962,57.675752704216414,70.38464929393506,69.66027298489259,63.152677545352304,53.54608279588579,40.85184659610547,82.0,98.0,60.0
-14.920896374664869,-18.31297439851794,-23.574765709531448,-30.616729080895645,-38.07858661969756,-45.09293845568514,-49.83389181032419,-44.544903647249875,-23.51633543214449,5.7963006839062166,31.447315216859813,47.07685339292181,51.42121631520749,47.173956736657104,38.91271682604237,29.384412480436698,19.620860415709668,11.960552012907014,7.291813929777299,2.9881362665077615,-2.367913741081239,-7.763387799414435,-12.127653947195391,-16.207008740282422,-21.00941300865923,-26.200239427517793,-31.193432731756644,-35.9857892338905,-41.6571311659806,-47.604844975720084,-45.66402227900354,-26.38451082250917,4.0274844220545445,29.087360376314315,43.03572992123692,49.336394532224894,49.13112070236599,42.9482007246423,33.54501700571376,22.73667569712121,12.821941357012273,7.170394409732381,4.086002068530521,-0.9775996683239968,-8.000283818876266,-14.894834020482103,-20.81315707832549,-24.322675310965874,-26.502762392453477,-32.231193207397894,-42.57881059513377,-50.305888196832576,-42.435376962756614,-12.728779401212218,23.594254993251155,44.9324368374408,49.781111069419765,49.29832480214557,46.83221541862148,41.02488597241509,32.25860787923086,21.428196375143084,11.614223376341165,5.495344407038007,0.6126277695683395,-7.250419848057269,-18.079612618738828,-27.378493125347962,-32.22248585017269,-35.563186350588666,-42.694214860644024,-55.05385244899126,-64.31555730584661,-55.92296129486641,-26.204814740443314,10.723964917661755,39.31103847083502,54.211792478509714,57.56174125387585,53.781325167181876,44.526464624768224,30.95188309284659,18.664515289938056,11.012271329208119,4.62188075950116,-2.2329359231280024,-8.084849396270604,-12.61129178247508,-16.31723524386164,-21.725174746766196,-29.715758172585996,-37.26474462053056,-45.4363183276739,-54.46841840422345,-52.709948340198544,-29.665573986100668,5.796248024739607,34.827017146702325,49.687282933400525,55.577773587498214,55.017382225553426,46.253175545311386,33.851451234849975,25.130531507639162,19.316505019906632,10.613898313092326,1.0695757012292488,-5.187711516528039,-11.469632030278905,-20.75248702835942,-29.726153372536068,-34.663050718578695,-36.79396468408122,-40.50428799404258,-47.933621942352765,-50.94641100630357,-38.262442231919124,-10.89038239819353,19.20057036309271,41.18792641779675,51.693062599744216,52.524085163909355,45.44725042190795,34.63726873858612,26.43371112675388,21.01359193893695,15.394383053828538,8.47827861606681,0.041298545963641325,-6.777680770053466,-10.878653965190262,-16.379655064645668,-24.49716737475206,-31.692324605128483,-38.75096044955675,-48.3058106232857,-56.94575472690073,-56.105174279685315,-38.03048253930362,-5.751141564594393,25.932762730237652,46.66586623079492,56.08869812042986,55.95363380510111,48.54595738390007,37.05206354349099,25.158149451335035,16.326899974100833,10.308545586773183,5.562137763229261,1.0813233864106773,-5.223429832474662,-16.155543496466365,-28.61711657278117,-35.993232745501636,-40.47380827739798,-49.64757740690622,-60.13343304487335,-55.378974465880844,-26.01674344954773,13.984616774885843,42.22660650401635,53.538705710828594,56.47134988135498,54.347139570483165,45.72739889331992,34.74033207916926,26.78923103457841,18.66029153308685,5.990395894343142,-6.269711227038565,-13.452466271245278,-20.496883112581827,-31.983985912402993,-42.69661151265137,-48.0890263298133,-54.00486051768315,-65.37371504967852,-70.48153634530289,-50.90666590513898,-7.44742395073343,36.798693441524925,63.177945354455105,71.19539329354703,68.11414948751599,60.73728801359392,50.10236369690899,37.00335143438845,24.137854806323432,11.974106979977025,0.5186126800576921,-9.374514638751958,-17.430130489659415,-25.392284850710173,-35.165230033485315,-45.25107065331569,-53.26847942482713,-60.12756331841209,-66.66926484067893,-64.16835786759914,-40.67988369585273,-2.815386401592241,31.901275966535824,56.43025908825429,70.55208379638039,73.48362737223285,65.42882084693566,49.60131032814465,32.210791114275594,18.5375410781592,10.244542346455182,4.6095514152047885,-2.6643656588774545,-12.015442877087045,-20.504357709012147,-27.053287416525556,-32.6396022124944,-37.234698669803144,-43.84841183204946,-56.705375355097836,-67.54309443963918,-57.63949183466445,-21.247191955038065,20.673094622035286,46.28994684585963,56.423237325081715,60.809257658020826,60.4906891942394,50.983388808789634,34.40532255087491,19.624112654133153,10.256373405604092,3.067916887656408,-3.829545994080626,-10.41475709371497,-16.993697459832973,-22.95653182781635,-27.084762863254966,-31.697222658830093,-38.71786633602539,-44.327245729522396,-48.547357386201256,-55.9153403462287,-58.86322221364969,-40.820748913745824,-2.033930740777052,35.836738075015475,57.21402670621933,64.2090556699419,62.758656842690044,82.0,98.0,60.0
9.470385046737551,4.177128704273082,-1.2451423983105208,-10.219733610511046,-21.151817765580773,-29.20983952475631,-33.099908537493526,-37.04158369062016,-45.87650391178192,-58.68852017535406,-64.23494118752853,-49.16081513790725,-15.43419741373182,20.270037209576113,45.02962348590724,56.158554307062076,57.056857395151475,51.6736385196601,40.88160671467509,26.97538914576537,16.048360518231615,9.219318336574277,2.628973340210489,-4.066094381399456,-9.525161143034332,-13.699133450273132,-17.56655917529445,-23.882316154668793,-32.0267316168641,-39.38776815026487,-48.24768915578897,-55.77902351369787,-48.25592913173293,-19.843230185796877,15.523658315043535,40.47175966283616,52.03005962732391,56.1804353774604,53.29338920505964,42.66075124389873,30.779037042577123,23.438943963839836,17.212956789360266,7.647604151447108,-1.0501733315256239,-6.7626290322365925,-13.883187759394255,-23.618540049647926,-31.601234835375465,-35.41174825354509,-37.48308943178786,-42.405070072889465,-49.85799938127745,-49.15484811544072,-31.438850951239665,-1.883912219428888,26.68666341455021,45.3660001993094,52.82831136087909,51.208896255101216,42.391407122328474,31.83412727956189,24.743283625596707,19.476614115316863,13.575900235649343,6.120260023408088,-2.2627404128748254,-8.11748825431759,-12.1273601332084,-18.600903503612145,-26.767457106840983,-33.57122096497813,-41.26471848823861,-51.21853809110656,-58.102795153303795,-52.81791300708138,-29.623308053359946,4.148097877995754,33.1902794737503,50.460291411743505,56.96138805288289,54.42036424871973,45.50440015347405,33.46283232187321,22.227833760483378,14.379317799435006,8.855339817303967,4.290097089969997,-0.4010275278030794,-7.875451207110052,-19.93887052784269,-31.409356666906316,-37.21089309621218,-42.46613185696496,-53.132849292026116,-61.10679659006985,-49.25082787697984,-14.451874050712627,24.025706755733456,46.92650445459289,54.900552373341654,56.46485958331801,52.484859488619236,42.46460190425191,32.086919335798214,24.783362813315488,15.412481651754877,2.0509685196747753,-8.817800466443096,-15.140189308361343,-23.426984344578745,-35.52211955796416,-44.72713490909005,-49.3228524859475,-56.88908220901098,-68.40719857754151,-67.8746415164239,-40.033258392361894,6.422107155115903,46.56288824855774,67.11157530951881,71.07581858343708,66.26488439790752,58.04364983165756,46.43252615994553,33.198983385616216,20.566075915018562,8.566555537319863,-2.5439158365496293,-11.852871736995896,-19.621933849050897,-28.018893787477865,-38.19234283071546,-47.80778981329467,-55.256882864924755,-62.186881167995836,-67.54848471636949,-59.7088610664732,-30.39346014599638,8.109749695902517,40.06173485753259,61.599920189745426,72.58336842434348,72.20951806193096,61.418711726669464,44.443228177274946,27.734433916668323,15.617755821045407,8.564675848524253,2.7920183839388777,-5.257610426769956,-14.680496219642066,-22.54814770859575,-28.756283294498242,-34.04584431525331,-38.66654698942003,-46.954328579855826,-60.82595146522635,-67.55263853365537,-49.35495068275939,-8.401666750838999,30.136442630426483,50.328491410465936,58.01454547360743,61.40923690688819,58.79485635056514,46.565779995100094,29.595608795347943,16.455155129024547,8.104684692129343,1.0519417720843165,-5.759851882829672,-12.305142757435682,-18.857001808789207,-24.322353215684004,-28.1845033755436,-33.568494668632304,-40.66960656085705,-45.441917195024935,-50.342923033195156,-57.97879997558487,-56.326702535295645,-31.012370137791528,10.057375594422414,43.86393000679682,60.39476589304987,64.49209510924304,61.15612051722317,51.905417648355666,38.861780915965916,26.954646071614388,18.64570426145952,12.690156604896464,7.7435238535956685,3.296063749943331,-2.529387393030541,-12.235609261295393,-23.63403422305982,-32.00294039340777,-36.792469323550264,-40.89153806583203,-48.8655632277849,-59.95014328569476,-59.52358907775595,-33.64473802641054,8.415982440560049,42.740368334734775,57.72739339682657,59.73701612810176,57.6015287218296,51.83051725134568,40.81666254593356,27.713559813666887,16.402311558507286,7.581976175034659,-0.040132448692591416,-7.2649044861364995,-14.771200539394865,-22.5951653154099,-29.696945289822395,-35.970687817628,-43.49673248860661,-53.234085013095985,-63.34435268567042,-66.24079811075315,-50.427469262988225,-14.949546503546832,24.113685882960752,49.99655127317213,60.66529138311558,62.8956602098316,59.268932425975486,48.777667238064225,33.98192094188663,21.034323328077967,13.049024954875488,7.498530084282303,0.5581404847194084,-8.913588660231284,-18.17705020273464,-25.725229954593736,-32.401504571596604,-37.84228915820494,-42.40501729915797,-49.93087620930082,-60.47744219688532,-60.3414149429823,-36.14224455721636,3.6352683720167533,36.19289366326148,82.0,98.0,60.0
23.200174562464145,17.874849978527187,11.625076192197506,3.649965063939276,-4.317403906032831,-9.269499119898903,-13.629121032301791,-20.985387501314836,-28.869808043368344,-35.533794185164126,-44.019455027741905,-53.89932857459186,-58.23052378610144,-47.9358655400379,-20.26617974658099,13.576447391950955,39.40731949504264,53.36367909113842,57.0680990472985,52.354548166645046,42.19490910201676,29.94621604196704,19.614054985883637,12.621215982783173,7.4782616539077065,3.0211226875194086,-2.112153965261885,-10.973078731545394,-23.677034872005642,-33.6388987763527,-38.372396669505534,-45.02006055690483,-56.47228288263148,-60.32011964716828,-41.0305917364158,-2.580270664865153,32.59933437157291,50.328985132178495,55.80450865575704,56.00281940037239,50.05907812649676,39.18766785219792,29.769458762062854,22.575738723840537,11.754760035328912,-1.641574784150556,-10.909035890631186,-17.03399133706225,-26.750517885468486,-38.775998486709675,-46.291129998245665,-50.85025489478246,-60.24431518190066,-70.43685864391885,-62.80076898799287,-27.478596938518034,19.65920257256316,54.572866196772786,69.64125055783606,70.2349238066824,64.185047409683,55.03788591188927,42.62682319227747,29.464691655225298,17.04261528904813,5.22625693452309,-5.447002014349028,-14.187043974610878,-21.87142927814089,-30.825952347371203,-41.16432283685237,-50.156336750443174,-57.21042996767664,-64.21030524791178,-67.31369232947249,-53.27701209538778,-19.32667205606678,18.382551682450757,47.34089158539394,65.89805314663809,73.65324435173771,70.04461189126177,56.87142904332577,39.32693095405873,23.66345736148573,13.1564269111117,6.987763841547511,0.7505511908008189,-7.983194430635547,-17.18774424930524,-24.448425586551295,-30.39621421320943,-35.35725268767954,-40.40841617418878,-50.646757751213656,-64.39778852965664,-65.33752113409216,-38.974244508022316,4.153351944947145,37.894762955383584,53.319745881715036,59.33268627168104,61.52081638431147,56.22589447563536,41.719652574958765,25.174494533039997,13.716346220256135,6.035131171180048,-0.9501424597799211,-7.661115908089486,-14.209259428159035,-20.630825435461524,-25.515864214640736,-29.43451179334315,-35.631214624780654,-42.36154723032374,-46.55335148955588,-52.49353831972442,-59.2981474537008,-51.635762386312024,-19.766484525637587,21.42390136043014,50.33854864678187,62.55354622214071,64.18131540670088,59.05624807885742,48.33579464115691,35.09872552670091,24.20117862165511,16.765502171862153,11.184255596760606,6.440933661555872,1.898827959596387,-4.912198575316551,-15.58892558935214,-26.491622849446806,-33.66202962339294,-37.86922589281267,-42.6088392531351,-52.14523184236697,-61.8836697659346,-54.782848149995935,-22.118483670947533,20.042318593996054,49.02237550577482,59.138225904302054,59.36332390809158,56.44152833758333,49.134930091451174,37.03033711381008,24.16340546357141,13.647398228319359,5.306637652265988,-2.141550458440263,-9.379829178810619,-17.029715735567574,-24.774563538853446,-31.52396761641097,-37.92603043801123,-46.10187538737243,-56.30743230858187,-65.44277782633728,-63.985263514814946,-41.736653784687924,-3.104929888679292,33.35118347200928,54.36553719668635,61.92964733134956,62.49164124782997,56.94185441675236,44.69098754343517,29.79986295665563,18.243410117061433,11.386589769997775,5.761945495759415,-1.9859969410680223,-11.755765049742477,-20.501196826059978,-27.728685118971047,-34.137753875668196,-39.14352382999944,-44.06963476653457,-53.01327257419339,-62.379233246127264,-55.938839468718825,-25.287821175654674,14.682888543993746,42.122557617611854,52.27625266149296,55.53837952071812,57.273207051340876,53.435628440220526,42.35143237347081,30.0365623849198,21.790919570594035,15.99078754136091,8.845088460750683,-0.8608915539376276,-9.897115250326546,-15.577876056133915,-20.86359709805978,-27.921549387367495,-35.42744136282057,-41.677275963133106,-48.85097946517147,-59.053741567288355,-63.826606645105684,-49.187268249410366,-15.003270191888502,21.937894011972055,45.467528764006445,54.636693118946226,55.42432699575301,50.50282777939557,41.56616733002804,31.697592209230624,24.19793883214907,19.210843133345907,14.347371697449567,8.466196171728482,0.5555891727993348,-10.094130953739795,-19.70046838319434,-25.7555290603183,-31.354787247992427,-36.21992705948289,-38.34097076384397,-42.21560006374927,-51.07397562221652,-54.563118540545226,-37.36227478704207,-2.079817082057592,32.377310483362116,52.33734462342138,57.723635354613734,55.45155920673862,49.010860122191154,39.34508538438159,29.08539071097853,20.003502745519526,12.121590485475938,5.173813082920091,-2.7842577349775106,-12.046098913465505,-18.70367452084245,-21.680925367078576,-25.463432305307474,-31.896760373905124,-38.43365632166007,-44.16694290705899,82.0,98.0,60.0
38.7748151058765,25.803529871098153,13.563018589181624,1.977530525788854,-8.175808357442964,-16.41951179152445,-24.243534425824173,-33.775668545562546,-44.003047598514996,-52.32016173026258,-59.19331030307082,-66.00215558988074,-65.57031806087858,-45.01688322092936,-7.9975644800967975,27.83820489892733,53.75854725336868,69.29666496807125,73.757476538721,67.05771589390888,51.949007508797685,34.3925648823773,20.045325249599227,11.090783334653738,5.386310942056438,-1.5335930665930142,-10.751206491553493,-19.502762653921327,-26.24806010882201,-31.954681624218388,-36.631249208960696,-42.6281949617085,-54.753508962485384,-66.89759791317184,-60.65050501561108,-27.060905449543515,15.770382468743852,43.990542679870465,55.56583556572004,60.40814339702464,60.99010970699163,52.81263173204255,36.703095769271435,21.253643349829215,11.296449027661009,4.0006864495512096,-2.928209514623538,-9.54636937593337,-16.11852149439709,-22.263137548265536,-26.597576348689678,-30.920830436669583,-37.75793456982355,-43.764146206907284,-47.84667118615593,-54.843412528261155,-59.3761539151857,-44.72124312571276,-7.694105104269094,31.616322284321797,55.35136049632618,63.85769218609909,63.3271721916749,56.473511064711275,44.535041684279136,31.566135379309724,21.754716887344145,15.032262874667525,9.74288998662373,5.172879993498905,0.3106642349862275,-7.664163791221178,-18.962939233051554,-28.99612322876631,-35.06374936641799,-38.97255332444729,-44.78663178247818,-55.550713914450135,-62.35664807507098,-47.7070052635221,-9.755382073639026,30.43198906363904,53.62154179367748,59.75024809469863,58.795402327710896,54.90210062612721,45.998915003798075,33.192873991174665,20.83423968140032,11.08056788681058,3.097718693914496,-4.221734799257284,-11.537221157583547,-19.304195047937622,-26.856844158044026,-33.30753028468757,-40.047397638303146,-48.891025764460515,-59.34219490602068,-66.6749908589268,-59.88293495623012,-31.566251020350354,8.513012121361358,41.17889005724854,57.58548843839408,62.66103397513091,61.589199290009,54.01448947938511,40.367975908743695,25.93271169529251,15.882016342541675,9.821263445877994,3.8269651828779803,-4.729168244106707,-14.483856820561114,-22.690673301468856,-29.679706899943803,-35.743194239923476,-40.40611727180327,-46.12061124417887,-56.244821322068816,-62.90544797498024,-49.33059292829269,-13.60296295130825,24.54614512297809,46.49113669875629,53.449276611259876,56.28059598371572,56.962381563506675,50.822745994065976,38.571502557429916,27.187538023697613,20.05123726004813,14.190646668199074,6.242665990531267,-3.7562657586863684,-11.83296745900058,-16.970309940255927,-22.731399473113548,-30.152531805334092,-37.35861251058267,-43.46488271458289,-51.59846248708686,-61.67516988670243,-61.988303094614906,-40.801064894093685,-3.6864739009943714,30.456732618997812,49.31228757138236,55.53626623375208,54.532414314901594,48.22862817927629,38.63693045410674,29.20298828688251,22.591619097174416,17.884296001012384,12.767745817348496,6.471873733814281,-2.31739452607542,-13.212371983135483,-21.7287012301545,-27.297986800186322,-32.99919198058755,-37.042011970202545,-38.976402882254504,-44.41843268135339,-53.430231361471165,-52.077631705887114,-28.314300686939454,8.816916532060779,39.87733773528965,55.11280214132182,57.583062248290084,53.993959045731835,46.46126649318951,36.31315724662255,26.330641709818725,17.598985931637714,10.07139889006964,3.0787432388464624,-5.448790897527763,-14.419990751544736,-19.796251587505992,-22.48937709766762,-27.12470477260526,-33.89850674005805,-40.090390128521896,-46.04051528520355,-53.39544867964293,-54.50318783577929,-36.986216921024,-3.7862802333392866,27.993294758769053,48.68465185862154,58.78134702801986,58.39508923929258,49.58491836780897,38.89171074163217,29.840606640120445,19.737600605117805,9.54298392052445,3.064134798944924,-2.504952803904492,-10.819369857468136,-19.866799534328607,-26.30105620838222,-29.505983668679853,-31.264487793147815,-34.276082986161,-41.94040769335159,-54.601540340651475,-57.865632466683515,-34.540496078880814,6.1148637002730055,38.026418390661604,50.76184122713047,52.409105186998204,51.73521105254626,49.649795078330946,42.99346949426557,32.14846728580376,22.710750955948413,16.224169816600654,8.740886349028766,-0.550805626156014,-8.487224592572039,-14.505965325585986,-20.00015830503286,-25.801594657102637,-32.139953913909295,-38.14780345346484,-44.0392957490167,-50.78603914929383,-54.23254774489088,-44.34577236725915,-17.849869194607884,13.89861931635705,37.38753115248798,47.321011436086735,47.00398348096654,42.9350282506143,36.22606946402867,26.258057112499756,17.053969749789157,11.261280591113918,7.235093641190635,3.2788351111230143,-1.5917374808860072,-7.419137792185101,-13.661615385080292,82.0,98.0,60.0
61.95733056935117,53.4399533654953,40.64471893975343,28.33433492228295,19.574679093320714,13.409004322613413,8.361238890753537,3.900590580505842,-1.5555557353100498,-10.736739651317903,-22.212861305487152,-31.134255281146498,-36.27648251412957,-40.2255178524297,-47.46997615236554,-58.706636122885364,-60.921708257568966,-38.499486583605275,2.768635293175376,39.25311184764129,56.72693864813283,59.82533196023961,58.03311578391218,52.91131625729693,42.51108209648725,29.412612652198067,17.745989949932888,8.65990296951916,0.9401358315351354,-6.300750808517434,-13.740888757964525,-21.56621356108238,-28.825903246734356,-35.11239261236054,-42.36197656391297,-51.83630998860526,-62.17091436863472,-66.71348713047863,-53.84792486378881,-20.341413331943038,19.427896669825053,47.54177559416573,59.870343297642414,62.925510704942184,60.13675010258255,50.538871957370056,35.97955566438797,22.475597822311286,13.878804430561775,8.250126829556635,1.6490087737648897,-7.586201380032377,-17.051331698627884,-24.78359647204528,-31.563140014505162,-37.2096590749918,-41.734380883599684,-48.62616772241161,-59.27276822572543,-61.62724153909444,-40.70220428437327,-1.7281043015903372,32.898469469544516,49.536777428516224,54.36207723100948,56.8932998699608,56.035821545078534,47.64647883052303,34.8962370420686,24.74508385467327,18.413155742746266,12.196090437089142,3.4329640575701177,-6.467339229405978,-13.48013547637662,-18.443470017299205,-24.756761894378748,-32.362653647610635,-39.15903975206772,-45.43804561797269,-54.606887358310324,-63.48828769603322,-58.22051300843436,-30.983801080445797,7.328717506877925,37.57720611918781,52.09695462002072,55.86542821436427,53.192045649220596,45.66868551542032,35.72460377814949,26.97179474188758,21.156076696917445,16.504407559308607,11.100274276699174,4.261679355134547,-5.409175314796553,-16.096314569409977,-23.47347184244748,-28.9050842230779,-34.494214548738015,-37.62976660410393,-39.940902712352795,-47.03699092518093,-54.91632380075978,-47.54974031325889,-18.075964122013133,19.123584128204534,45.96614646241694,56.7971050279611,56.98394657465912,52.20639417109619,43.67776316859689,33.312115219905365,23.68689495170267,15.294854675621,8.08410870846614,0.8298475682610941,-8.180869686371238,-16.44998974196669,-20.631371319475956,-23.50316657144492,-28.98578873994168,-35.82541410404991,-41.704857332237495,-48.107890334805816,-54.99039294470023,-51.64802571532461,-28.33562084677457,6.256529884892888,35.16990472537252,52.63800569404757,59.76251211788555,56.47083160237706,46.39199716033864,36.16561504564352,27.14373919391601,16.573027565182546,7.274177556509578,1.610024531841196,-4.6137140309231945,-13.54099261368882,-22.078969503243776,-27.513250706548156,-30.050762961461608,-31.874204747641354,-35.84670555717423,-45.374312834488876,-57.515739436035304,-54.08514939607333,-23.417172951641177,17.168463903565506,43.526015921665184,51.859892127352666,52.269055066214,51.40211168940157,48.31043047127037,40.08579034905691,29.048486345194725,20.674168956328536,14.322305873964812,6.119282686612485,-3.0934482234613463,-10.355814322413135,-16.10353758363151,-21.614230754293814,-27.603947726778035,-33.943931702365376,-39.79670653592345,-45.929429496883444,-52.51640256906213,-53.166444299505834,-38.122113772329534,-8.514934215828887,21.947297774242855,41.64921356620342,47.967768782596124,46.02873763228798,41.358719343362225,33.58080636823525,23.29664887490236,15.061520018281904,10.010612645901244,6.141915283637546,1.9841505384546905,-3.19279554122878,-9.21474984951665,-15.434295185755799,-21.44924876399485,-27.581772057685267,-32.8680125126696,-37.7745122782253,-44.873063108554035,-50.84602527098537,-44.74348797080292,-20.856258619238382,11.430187798066745,37.975773653948934,51.87733173462286,53.374529097859956,47.5705315307387,40.16626320532575,34.61252309423406,30.45967025989878,23.543895614586972,13.571122098150692,3.8583534961912527,-3.2203836647189497,-7.524948160292779,-12.605998780786521,-20.92107369579071,-28.817591451149482,-33.41503727625547,-37.6262738325138,-43.73889090158602,-47.91397044259438,-38.47425543716811,-11.509363699254282,19.947018630889524,41.37132797481587,48.535073104127754,46.10722481351009,39.690847438865696,31.04467016244739,20.266909374442672,9.589463883249037,3.084932609406647,0.7709801030851788,-3.4252962060007732,-13.305337525807321,-22.868419229239507,-26.278897888549416,-27.440098383147305,-32.67807167914546,-42.1746569072724,-51.782278298163426,-54.80091900156443,-43.05157068358162,-15.386017562276377,18.745160558611932,45.92173192859079,57.59476487141705,56.03357873206119,49.57797522288108,42.54161591161408,35.45798572111546,27.18865052023429,16.619058241048815,6.412693634957287,0.13075142290783726,82.0,98.0,60.0
39.59263030780965,51.578679747896096,55.176869600322114,57.24326367331174,54.418172303133595,44.075191025574554,31.487135472236336,22.6580354145791,16.772989668076974,9.96168623301051,0.5006415256321042,-8.891860064968116,-14.937096123656959,-20.060715458538553,-26.90405209461023,-34.48899603465153,-40.88325588960514,-47.69664039082994,-57.688108580113855,-64.07435412072,-52.47599020517979,-20.177537429997926,17.576033723748175,43.286507596674426,54.00638996998222,55.676836273234315,51.438442855029486,42.89425569079398,32.92628444275209,25.013641917543854,19.816662119120558,15.047302360147139,9.327881044715951,1.789742863302969,-8.615427098147673,-18.647811998216014,-25.050534500995663,-30.577107939752217,-35.74295613201824,-38.10962875660489,-41.37506696849439,-49.827249132827625,-55.06144349087454,-41.00483827920595,-7.176226669374487,28.469020599757876,50.63935135071067,57.59649385535153,56.01291748434461,50.09140932156012,40.73381640646384,30.394279282675303,21.14399369069256,13.09825560025723,6.103627136065999,-1.60268877948415,-10.863049402150459,-18.08345800975794,-21.3483895995732,-24.781623058421957,-30.967072401881047,-37.63807923379652,-43.36272586524156,-50.31082797748909,-55.73359385312585,-46.97507133889401,-18.67849685261531,15.720791618800066,41.34588169710648,55.75556855275302,59.839471647292065,53.95307768605922,43.22886190969752,33.58192139945186,24.257687338790955,13.518270322279744,5.371680018802562,0.0862316982360172,-6.9919544721602325,-16.220942915368983,-24.011575039414094,-28.469806109663324,-30.53449722515113,-32.65575461052679,-37.90735051439827,-49.16660003481211,-59.09181265422631,-47.78903471718464,-11.421667654361322,26.864736029762565,47.424688046475495,52.33571169297011,52.077488357197375,50.89831980439861,46.50079363544155,36.910821243291004,26.22788579154804,18.831705817779927,12.222570535932961,3.3954766131874146,-5.43783017286482,-12.098328804481458,-17.684572411931143,-23.27282484972599,-29.4447921943748,-35.69160718517851,-41.46699724118023,-47.90905805333365,-53.78664154332054,-50.70753485329615,-30.580740549966926,0.8633150671462553,29.03497342311946,44.7395600986673,47.919301644248954,44.88250957516082,39.51067547248976,30.68580138345355,20.542226378875576,13.356429501288066,8.849265123865418,5.022098908978599,0.5972825468958626,-4.867148038896859,-11.027025604829984,-17.17904081418141,-23.21965053861926,-29.25018908414861,-34.20174427140639,-39.55862771934229,-47.11873742206124,-50.82703359154175,-39.5232250977343,-11.7018245963601,20.164114605741645,43.38908934621013,53.43087260735118,52.15906013427723,45.39976814309722,38.28725868419575,33.43485165179765,28.888075065908616,20.838576366043775,10.60480142315204,1.4737576128742615,-4.652462025833083,-8.71262510922195,-14.727048909860724,-23.49417890025093,-30.42472507929002,-34.50423025507037,-39.19973433592075,-45.570204254613024,-47.09794451439439,-32.15363137152941,-2.100371463620704,27.572717191761566,44.813161561346355,48.514949889021494,44.51169848688577,37.42365001746075,28.116790373480143,16.984791035814204,7.1530416533466115,2.1684611666738784,0.07633053599187971,-5.788958061096877,-16.51273680802556,-24.485495565371547,-26.504027094122762,-28.386734611136397,-35.1347237042885,-45.164980085274664,-53.720434062627454,-53.186200753716726,-36.44510071877113,-5.5909442983766136,27.850970634066744,51.011592665636684,58.13916788996765,54.36356152221332,47.54766539250639,40.51653692343071,33.278404385383936,24.33815851954104,13.426660522794567,4.144852955614825,-1.05290683395519,-5.07378548853608,-10.53241288470209,-18.05746272028472,-27.502531753701188,-35.50854881296349,-39.71284346573651,-44.54686037385475,-54.25682771942259,-59.653725759061494,-43.55365659922872,-7.552982337843068,26.25861021530467,44.060228975378784,49.7737982814931,50.236660545435356,45.95458035050217,37.928098200819385,29.484158944835173,22.126853779839287,16.18017153549424,10.743467284303497,4.404136185471808,-2.1986706790255277,-7.295416576916407,-10.450002973538904,-14.030172193513659,-19.274308893578716,-24.74383842019459,-29.90074851202047,-37.65998252445378,-48.614402260858,-53.6556462456487,-41.240530345433186,-12.593121073680132,17.84308721715621,36.923997642566796,42.898714964461504,42.301728509399695,40.143142720772495,34.967025074122546,25.618930102804825,17.024828255561513,12.165603916647825,7.741616582338265,1.8900751122168453,-2.0073423521483775,-3.6014131192954433,-6.955134558085698,-13.065322301067571,-20.153089694960105,-26.420676423558824,-30.027857481898742,-33.086875821050945,-39.841525965428865,-46.96691017481951,-44.405257272664564,-26.05168386502109,2.9067121485268324,28.721092135498726,42.39533294849101,45.444155208876495,42.295396782395095,82.0,98.0,60.0
-45.1527666229316,-52.480159110394666,-55.2406272347523,-40.51493525292367,-8.508792041924062,24.343510588033897,46.574878040848816,58.02724995741991,59.03937691046575,51.022265782834225,40.214419149660024,31.03531492779191,21.191432231556348,10.718163867246219,3.751778344578214,-1.628110718202056,-9.580415470034733,-18.762932249122155,-25.647015503235853,-29.21673428926082,-31.021143199131295,-33.689530790201104,-40.533426452088456,-52.97337735927424,-58.773463359904,-39.174810562349386,0.6900480587809155,34.908639470192654,49.96576888927848,52.43627863234302,51.85496691542099,50.12487914972831,44.20542513156394,33.63943679238536,23.74408932796062,17.056222707707057,9.890592493654154,0.6742316760549459,-7.570320343485304,-13.75853396978722,-19.266070741420688,-24.989361146079617,-31.29390245018852,-37.38254009653715,-43.20491018633938,-49.901046289447706,-54.31762500488765,-46.71351724560173,-22.02902604802268,9.919568395056697,35.021321547592486,46.73505249014543,47.37356651223774,43.5886167373027,37.34016773794112,27.65866894169178,18.08005307306406,11.881425051423241,7.738802651721528,3.8462941730135136,-0.8808921968310532,-6.602629368393357,-12.834770213553716,-18.90815246865272,-25.00815469168539,-30.80304681105519,-35.5586899480525,-41.58979061924201,-49.0890776781718,-49.48302880445369,-32.81248854247736,-2.218490469062338,28.113498988595175,47.66552181396198,54.007687793949934,50.49741432083876,43.211944112497456,36.63012346659674,32.30427360389628,26.97322829831365,17.94317512056815,7.741377896868955,-0.6438925787029693,-5.8827680395716175,-10.086724464214779,-17.130027078075003,-25.877714981889234,-31.75777353381444,-35.66536741601557,-40.96049233350963,-47.05713781028102,-44.800988296001854,-24.459465151984638,7.237928200807451,34.083643258648074,47.07412650896969,47.867221206532406,42.68822400424375,34.97324738051112,25.014607980438264,13.8034723843023,5.161896077573512,1.5359622830337132,-0.9750421670156134,-8.636617730007769,-19.44891105343131,-25.532632179036725,-26.728812993214984,-29.79432616806962,-37.875990338985176,-48.05577611519403,-54.904372367012705,-50.14931807903298,-28.592536417247366,4.428155141231403,36.051414833490895,54.678155807909974,57.75721665269927,52.48617744648621,45.510885420969736,38.487123853122156,30.950870830386098,21.288177548929838,10.377450788738829,2.26690583804958,-2.1487789173419727,-6.47545535818754,-12.460146355577535,-20.673225381019293,-30.166561482036304,-37.045191132074194,-40.72944919204959,-46.92235215804067,-57.07572453328526,-57.70288488362604,-34.386678275686734,3.4335219806399957,33.123940741592676,46.54958097143064,50.32893016724567,49.525078406232915,43.871122842309724,35.417636412434724,27.227298814565913,20.263946271003036,14.644607652198115,9.013466209486285,2.456782399753472,-3.9067954986193882,-8.332055632065854,-11.326625951705042,-15.404417332562652,-20.91497260838459,-26.193007081590366,-31.71154351740091,-40.70505762926503,-51.28595419406383,-52.14262178358174,-34.14147242940769,-3.2408237106929945,24.835953555024595,39.787102681390756,43.066410125900134,41.79559250380323,39.114288626964026,32.564820122503114,22.794488426840726,15.29965174097874,11.04256733265605,6.099891183904866,0.414565623211337,-2.544840268187523,-4.242057809949655,-8.511536028894696,-15.083423059325439,-22.14930750525721,-27.75551509303309,-30.73787746967044,-34.598996306665015,-42.26592840797855,-47.65413474401518,-40.74046625497004,-18.233051822805702,11.291721374962362,34.019372787092564,44.131591598072134,45.06640902188244,40.44023536326597,31.828797063999954,24.884181597268864,22.923246327938365,19.666492165054642,12.280063087263027,6.225045125242832,3.452066012702917,0.36679747770609383,-5.40813753761165,-12.577213160118964,-19.402056620215923,-25.07171715859323,-28.859062080894947,-32.99696170697436,-40.54951305670213,-44.63188572261503,-34.2392227834563,-9.523157078027449,17.67214770170962,36.15590912221876,42.94787477054932,41.014242614300855,35.19049367730208,29.96043382561755,25.37561491802859,18.78835372191395,11.111001466319024,4.417125734547513,-2.375727937552924,-9.329567969416177,-12.9715452651112,-13.816743962360452,-17.312975882789974,-25.38275040769467,-34.2191325111672,-42.67141430424076,-50.91773881158576,-52.353342674711556,-39.41802334722825,-13.358910302922473,14.787364454871529,34.7102694646998,46.95484475798765,52.83078584790044,49.6961499984921,40.230242666021994,30.784964602070712,23.60778432509252,16.570530854639976,7.829705882571337,-0.5768065975096378,-6.063528796468142,-10.679026086179025,-15.819309394034471,-19.673455943024628,-22.66206948526441,-28.604605657620542,-39.20831498522749,-49.94230771971294,-51.72794923558621,-40.088170924174825,-19.28024623612443,82.0,98.0,60.0
-14.620743641706161,-20.64245347708211,-26.781898284847767,-32.23802225711017,-37.03194419499861,-43.81551419892564,-50.484957349390896,-46.610932571434,-24.854276289181602,7.2038613138751835,35.106225207803504,50.80455685279809,53.73958011491946,48.53814544629588,41.095976721176285,35.202538398732486,31.087166581455886,24.70140364947099,14.954839596348567,5.03750095935655,-2.4733009556363648,-7.008652594958841,-11.737218128989428,-19.71097380903827,-27.967028107858226,-32.91239958891983,-36.966572224429754,-42.85365112568113,-47.867766705188615,-40.85643358965278,-15.749093190833587,16.108019966079585,39.3638546412726,48.285107620881675,46.74702127823616,40.676975358932616,32.32977241438385,21.781965250050465,10.845820171560849,3.637357016865444,1.0218032623382909,-2.5231268027542857,-11.80159738718242,-21.920128691496526,-26.118826223418743,-27.142242238815214,-31.66869397070691,-40.79682368662168,-50.697693247742215,-55.10218049117738,-45.62982560562886,-19.731367577396377,14.321217659636968,43.10609386959195,56.96787824564747,56.691514463991616,50.50700670718301,43.4770516289385,36.42810449762913,28.427045388368455,18.10490920821446,7.586649703811974,0.7398332141354343,-3.264590949803681,-8.016676733836512,-14.582218373185862,-23.424958942896325,-32.58823454433225,-38.26009351275055,-41.97934844520426,-49.75077548889916,-59.1230583754458,-53.557054337241766,-23.905607488245384,13.61333091660196,38.522644804110996,48.25809681459218,50.55073451757941,48.378041524599766,41.547876076537555,32.949660401641026,25.07242303642019,18.52783285916889,13.104294050238067,7.190439209088422,0.5192614003173033,-5.435002832362009,-9.231765005151303,-12.313075424048298,-16.915298689486743,-22.519553384635355,-27.634261609027167,-33.8476658161514,-43.96123535254694,-53.13440691544852,-48.93778637898488,-25.894290088815907,5.831166746686624,30.64585255889416,41.6361574751949,42.88755124672658,41.21999064912737,37.73552652847983,29.846576694759378,20.202187195666315,13.886183865168945,9.827258265321412,4.361817712723041,-0.7863227996757441,-2.956740191686701,-5.138536745023539,-10.264278158242083,-17.14290380251114,-24.02560557591911,-28.829783059231403,-31.519560248103314,-36.50434175827153,-44.528255087478605,-47.26646095249453,-35.68755483238067,-9.785238875453803,19.04265012299035,38.195468602792765,45.10756075085612,44.25149947948212,38.20769384280895,29.330687943453142,23.947942295185538,22.457610282879703,17.77983578800662,10.157636755532357,5.194413677878706,2.774723201102277,-1.0321429190172018,-7.435518306732742,-14.627147091669386,-21.197984423415036,-26.354678516482576,-29.80307590835384,-34.89001428285157,-42.65349213079047,-43.40024750877581,-28.18217034459525,-1.3003357874253534,24.20119761937482,39.25517353497004,43.0887952573477,39.49809363768887,33.50072405011071,28.70477361946478,23.7260030395549,16.550862712001184,9.064948845686073,2.555092190795228,-4.499934380671238,-10.841435385503274,-13.296302001617102,-14.324726628609929,-19.295308653796827,-28.02000159963605,-36.623640818260306,-45.22179277626971,-52.46146352759512,-50.2462506230217,-32.89822897719495,-4.82280158830462,21.555149285253787,38.853747920906514,49.43147855419026,52.87839309523344,47.32729717381824,37.27527786605187,28.53275370696926,21.684267742136345,14.217859431201594,5.1868248539638975,-2.4513306801150287,-7.340744113785722,-12.16791366610876,-17.1345130823239,-20.48715816496874,-23.906931211301234,-31.255685944336786,-42.66920049582278,-51.75301573992253,-49.68113472436166,-34.72872658818424,-12.391312962023166,12.399672009100998,34.32754846548382,47.98462416819256,51.55240625483442,47.23682750153744,40.23296440253529,33.744685227607,26.101503936083628,17.84151642336914,12.489762334972935,8.25673741754393,0.8791311819400727,-8.040940471647998,-13.525252040366393,-15.185465341879535,-17.64234338886387,-24.277169152952514,-34.22521356142933,-44.611470959928525,-53.07349030732526,-55.55715774270682,-46.328610157823576,-24.072051478482674,4.249974129502634,26.978863128034277,38.10187323895513,42.01445080894638,42.78420424942063,39.783806480819216,32.94183676917807,24.693097272873402,17.566344466264677,11.145781719073375,4.417383683931938,-1.6367898451001464,-6.108443210700722,-10.59695288694377,-17.26492286758551,-23.54710950838762,-25.861431482201482,-27.8853483146697,-34.74932017281399,-44.12143805315527,-46.401196182761524,-33.047361358480806,-6.084773611891143,22.476831474878153,42.26485854567452,50.46182826876982,49.76133430627512,45.48609870732688,40.001626326323475,31.413394734769014,20.689721174563303,12.096839451409618,7.485522816570625,3.6926648438271386,-2.952630281265988,-11.11414326014969,-18.225943455151665,-23.81454471022408,-29.777220192142444,82.0,98.0,60.0
-0.5254535060081452,-4.473832936684764,-9.702542308451823,-16.913237256567097,-26.225635214141107,-34.674095511750515,-39.27105294443594,-43.62446583044909,-52.836318589536624,-59.87651243717715,-47.187990694364046,-12.744470539092097,22.592089355090582,42.58323590657839,49.39660688743748,50.424022713598404,46.807723305742456,39.084994829392244,30.557112361777982,23.028632351065013,16.90206517900038,11.508154801785087,5.2946760466653595,-1.3634399227536493,-6.756076757089357,-10.06591660647226,-13.450304501634703,-18.51879492910748,-24.05825288237381,-29.149174819482646,-36.36777056000864,-47.204228975036195,-53.81652229116255,-44.038069578569285,-16.885529852023897,14.258051849643568,35.22207317128576,42.6536280926988,42.512119544188494,40.5261869614875,35.940268653632515,26.959277319757927,17.942116111813846,12.68366601876541,8.443416863973239,2.642031360823878,-1.6863634169613884,-3.3726873355188594,-6.318722587527742,-12.158105725053296,-19.209379881248157,-25.717963833040987,-29.684299683796404,-32.51874089591358,-38.739046456612925,-46.35166276572326,-45.62149067810057,-29.3519153733108,-1.0833467089328936,25.904978210280134,41.298354368178394,45.46038569862494,43.010767340962545,35.6919067124982,27.170337704004314,23.41066251543964,21.652922003654997,15.604079933672923,8.311238407671343,4.40340800439151,1.9568821012411557,-2.6709696961452027,-9.521542405450342,-16.61983505453287,-22.88028360347237,-27.461308609184034,-30.889550352622884,-37.10410017563363,-44.16384947770886,-40.73453804992288,-21.08607259301655,6.77044311175806,29.79814962476482,41.390053937034764,42.604392481726016,37.78495070407159,31.954530819137627,27.437717672177826,21.85625585036639,14.294964412607785,7.128773433977109,0.6214776839681082,-6.587138418624885,-11.978135933267358,-13.478139318279911,-15.20840933257134,-21.623472721208632,-30.603015303908215,-39.036805832924365,-47.7220866220565,-53.19442920006181,-46.80549889256728,-25.41730154597465,3.5322832699019258,27.476591146638935,42.47676915893133,51.329047009921304,52.11690203005478,44.57257941155311,34.475864035229364,26.45653255435418,19.700872290139014,11.698105587299887,2.67404600861125,-4.056665018533382,-8.640810052015013,-13.685297543961656,-18.28516001495496,-21.287005584513174,-25.508529702664802,-34.29245897948561,-45.959468402032776,-52.57672768558989,-46.50072345802761,-28.77280462618706,-5.289386633129394,19.30996515251752,39.28317219603475,50.030221925073974,50.91699459410472,45.249969463762255,38.31889768195493,31.746896332818476,23.60437484830942,15.9310922920936,11.390161442996945,6.514400051527591,-1.7675435327373246,-10.135022789839073,-14.23709866806104,-15.589790133190991,-19.09387159134906,-26.93260195271038,-37.296570224299835,-47.36758855117709,-54.6682522205336,-54.29439226868981,-41.08377386006751,-16.01984299321995,11.871148241708065,31.33489664705882,39.675227466052235,42.54477317266507,42.35325909335697,38.13739764365288,30.55294189025959,22.481536714174528,15.708401629828085,9.229591614388983,2.521931815439165,-3.0703899375645536,-7.276414481888011,-12.289215998997928,-19.36552132635306,-24.60521830011417,-26.17603316679774,-29.291480991460023,-37.538026452470014,-45.998352465124626,-44.318458185120335,-26.22751189853678,2.591143931224021,29.357332413913536,45.78459211805907,50.956096695405755,48.673511412669946,44.08174689850083,37.90408788130771,28.356610047637815,17.819801674566943,10.405266048855726,6.532734012142813,2.1041206164999493,-5.3046043232390465,-13.332885325827286,-19.96643582826545,-25.360062073507695,-31.949413237994683,-40.93420039088542,-50.41576559872662,-55.67728943193982,-48.27327032665677,-24.972204945312594,5.13043803959061,30.521959729456317,46.01127600517744,48.56840977849312,41.13626993664863,33.286302136716266,30.236328120005098,25.891143065548665,15.910799994655417,6.583120044374254,1.5133415972978412,-3.2804919056316657,-10.380888737481348,-18.25290162609491,-25.185635090134326,-31.6521542410291,-38.45521434418782,-44.49950941739324,-48.70768352131325,-48.320794854281665,-37.686346839885836,-14.291400766518528,15.632492760266725,39.78496549757813,50.716054998907715,51.40139785221431,47.74736036822883,41.033113659305535,32.3006980849964,24.731516104451927,18.649738218777227,10.824687955752758,1.9902935575888472,-2.3879264259826534,-4.346467551640831,-10.179406387172103,-19.861976839965255,-28.39947458622369,-31.854658326860015,-33.23519858876873,-39.22480152740515,-49.61396508024684,-52.346720805223654,-36.60080423063315,-6.507199397517078,24.911779583912015,47.05945785965587,55.499767870999314,53.61115038595272,47.412017612721066,39.07034119760729,28.506752170521455,17.51758501187544,9.06028331306995,3.0612195731816407,-2.6334292644107666,-7.383414459856708,82.0,98.0,60.0
