4.087891504265306,98.02514092976583,134.29232627514307,138.02106445697933,144.04627810532537,147.29807222931672,138.61897122090573,124.91743786017257,112.72520457833899,100.42016244270962,85.37154876292422,70.05475293863113,59.618070075657805,52.940952145354515,45.506318162322366,35.69809922826049,23.811584254754088,12.74385322522823,4.4968589309881715,-4.35050758096771,-15.965401355430398,-25.847639835093556,-31.42414593189755,-37.47683055434627,-47.43501039789691,-57.763653591733004,-65.62405802633188,-73.8107146125851,-78.877097608365,-68.24173362850318,-40.62336323116203,-12.46353314839505,1.9605705162453229,3.3346535929922148,0.7144842306522178,1.8668773309663695,6.91310276037995,9.3826871202505,7.605751726184009,5.985627430243248,7.6690264189254735,10.902926042631869,11.471086639956821,9.123255291967617,5.932107931401114,2.283785400574076,-2.347103509689412,-8.134204964334055,-14.131565650933839,-19.55698199196416,-24.54575757432556,-29.156478659097505,-35.887273394117244,-48.97673366067269,-64.37355162997463,-64.41107303063738,-36.6298910935642,4.868160701659954,33.259768524045576,40.06951490452077,37.118314160149076,38.06625389926727,44.48939925921217,47.950207762264,42.95456326198906,33.72931518183561,28.82461142722065,31.636904278389213,36.48794357604216,35.01697208383751,26.10951627930212,16.04997393553547,9.248633845728264,3.325407859399329,-4.198868152422652,-13.816408552314904,-25.12984936395188,-35.33980794230576,-43.17213473137035,-50.848562295426945,-60.63945939487014,-67.48736305546241,-56.28170172178522,-22.964394786991836,10.758747358789835,24.421060210420308,24.453591176609958,25.985310189059202,31.036809765441635,35.960204485165086,39.24792468430303,37.7916320538529,32.54713811317237,29.502774119058063,29.363740969355383,27.35248127532726,21.625854247768064,13.881883672154327,5.057366276894294,-4.633619700316486,-12.92359139824439,-18.94188712309828,-25.178555809440365,-33.109582607656264,-40.82642510621491,-47.92714573872653,-57.69906494738079,-67.91845627326515,-64.78669588395876,-39.23682642853316,-5.855536790081799,14.5176305879207,20.343022486612263,22.86315845713025,27.724128829262725,32.134738496925685,32.141821898125045,28.40607084528142,24.59915661787967,22.537974192538005,23.05077861110906,25.370239033375267,25.777958007956084,22.177909570283923,17.39642594495343,12.579488031271472,6.423672152982662,-1.2507377942198143,-9.444733554976306,-16.844738241106626,-22.614893413759532,-28.63604723095578,-39.55704883450318,-54.229557620074864,-61.3977461167678,-49.419865038881916,-21.1337557911178,6.719793840773593,20.4616893497744,21.57299867808941,20.883254664392215,24.167567142658797,28.905201276251116,29.80351380517276,25.59159421742653,20.511365254169785,18.026393702676415,17.885088179928314,17.243533626653665,14.288978611593494,9.773760765231732,4.011592984613366,-2.2934317580230275,-8.54821673167435,-15.476601193577725,-21.636308593317285,-23.464314791966856,-21.5570225533517,-24.106741434974932,-34.565920223436535,-41.76887508217329,-32.90420728071068,-9.786114066643282,12.114695046512873,20.288566092874493,18.91521190959303,20.370947062863284,27.039419451879056,30.23851263910136,24.36892573783133,15.017210916800991,9.91578659663259,10.531578490495646,12.480708643134538,11.18378291671007,7.146900261578461,2.3830934216359227,-2.786841920000718,-9.1325976931341,-15.927752243583152,-21.184609482940417,-23.95079970099486,-25.42409926448019,-29.146615555294137,-37.729129814451014,-45.93238978996711,-42.488466950846174,-21.99066437529303,5.125716195960522,21.770126986557095,24.036695404368466,21.525150899305064,22.957561159906216,27.779769914242966,29.38417851662758,24.915354650990327,20.507436342767363,22.215064415117087,27.099060184185806,27.6484897207317,21.311983365859124,11.878964158398404,5.5697822738389675,2.7320514629674277,-1.8674327485550235,-7.75575669001845,-10.964587340986306,-14.118428784718128,-22.218030882726097,-31.420052136536114,-35.255009961029074,-37.651926448868394,-45.2492356644933,-52.152202446842814,-43.86985966756392,-18.677870096894093,6.395493274381773,17.848240759421234,18.58563864263435,19.162306317501375,25.724587537970308,33.59262774257473,33.53478923212495,25.363323244704063,18.82523834720595,19.64720696512178,22.24854097897202,20.770926699691817,18.159321719861527,17.352644572476475,14.4662465813499,7.534540178380802,0.6964901914892643,-3.9085555429377004,-7.7602550475076475,-11.933199386528798,-17.164999184517804,-23.284004836833642,-28.03626376079115,-32.79760643950006,-41.97368805405178,-52.649134891288725,-50.04859425725516,-27.10596258266206,1.0093910874786198,15.25817972100436,15.542363854279442,15.01278403916523,20.464949853128324,27.63566356849183,67.0,104.0,74.0
46.19965466105713,47.367857714806505,40.338819600848346,31.5547442514615,28.93316854927846,33.252148315259014,36.94983757140526,33.01150999808963,22.995393047271058,13.760349174446269,7.6185910447446155,1.3446694924844569,-6.739656916156344,-17.00339767210016,-28.323225624039377,-37.79884646927499,-45.262493414783115,-53.45713304512658,-63.48123750473803,-66.76029006385629,-48.37567164486893,-11.96378560758979,16.99121270370016,25.029394863939622,24.374103365842565,27.280797836102625,32.54768248975673,37.18347192941082,39.431588144703575,36.414379899642505,31.236170524949085,29.351566399314763,29.158936567933285,26.033533295120264,19.510694842700953,11.455229981551064,2.2825301372775635,-7.287254157248862,-14.825358865984546,-20.589748994614514,-27.334554739101105,-35.46847455917928,-42.82408821292384,-50.35999566999939,-61.03270345669713,-69.12490938725293,-59.5246889563623,-29.28265943303223,1.8766212991429347,17.2488920376682,20.957918784992547,24.044814427979453,29.263344205066215,32.67381964875119,31.281362555350743,27.190416359779984,23.78153538492808,22.403673780675568,23.65077490820857,25.879828012726822,25.08031439961788,20.778091608336876,16.065925967895325,10.974163089867666,4.336991676745949,-3.627672693075141,-11.714922000170619,-18.68329795028242,-24.123084860852515,-31.144762740040264,-43.744109265524436,-57.72474563450191,-60.13802298339641,-42.33102576266827,-12.216187536773838,12.386193642529406,21.643168652553857,21.11869161064421,21.415703246168302,25.626162753648106,29.745201805213764,28.988267211869097,23.987730949159772,19.47562827863185,17.83639672194285,17.89559622130068,16.613630134261,13.11369481944348,8.230015211740747,2.1879422198121485,-4.077371152174874,-10.474590903378736,-17.48756320794965,-22.735275840423874,-23.03682732912736,-21.430435257956926,-26.562428263731874,-37.70302867766448,-41.12687404119489,-27.158517834582593,-2.548915455499615,16.045768661179913,20.299265111797293,18.647835444055314,22.03396991842349,28.762789077734702,29.41450033838307,21.603643870493748,12.909091010420646,9.612583236104182,11.23343986819415,12.508718110095547,10.190477632214886,5.792834874318025,0.964765313129026,-4.485414187119443,-11.135395359088157,-17.683786498474465,-22.226988439638074,-24.399680907115044,-26.0676490349582,-31.1749830314095,-40.597404956896064,-46.609206755652934,-38.17950895211356,-14.010066821345001,11.540769048167572,23.62006961474053,23.277072753808845,21.375280193288653,24.24759897398771,28.867344681995164,28.585861989472765,23.250797785306425,20.30873402410694,23.65180961997076,27.949220723872656,26.46230060018651,18.616522154801636,9.534917928410058,4.619511304614908,1.7343537109208893,-3.6538594035487035,-9.006544023569317,-11.585532706216014,-15.911426595296318,-25.153862879439444,-33.136766474292415,-35.683170481529395,-39.27295726235001,-47.94260671349611,-51.83133860426334,-37.79612163883923,-10.538710683267151,11.261712541787459,18.72208599477373,18.32723322820706,20.43743866172296,28.310921580860402,34.65704777254882,31.67592797712742,22.838589185841368,18.379011525416015,20.611223303059752,22.2636364835774,19.874807514146077,17.818234381222577,16.959384365188093,12.758706742212153,5.350116756242438,-0.8246590549524051,-5.024846773127831,-8.912617891353177,-13.291054863372551,-18.93687088423711,-24.851170000287404,-29.20955960133143,-34.8746168786155,-45.40554807910457,-53.96801816497702,-45.21370269458083,-18.481218500374744,6.998506128680745,16.249551019703343,14.94172974596799,15.987959929281185,22.727733031011027,28.90710938509936,28.939751461632998,24.00724936142471,18.561325895710766,16.716180000403252,18.367700346354923,18.966742511839364,15.570703946915703,9.370943679180328,3.6586740376530744,-0.27343602272009904,-2.924118073462659,-4.84382789015582,-7.967387824312959,-11.213301131127912,-12.173746731870533,-14.697349934085665,-22.557602761040386,-31.875375558248713,-38.31106306799783,-43.99692224496335,-46.97359350187718,-36.70491486518285,-11.374081444534367,13.710764974695357,24.024081070624156,21.687729378651454,18.69301284535133,21.34941722477873,26.282764906398224,27.400343614367213,23.883089645177595,20.698934704809236,20.525405355055987,21.388187116098766,22.848729715962982,24.900995541447827,24.276748466396988,17.66633471933258,7.755394186222412,0.8078040092503939,-2.904421282057002,-7.636533398418307,-15.219177633934953,-22.746212325795394,-27.003562648775052,-29.89795782588417,-34.856879593745994,-43.157429644292336,-51.02964738791413,-46.0435147766658,-21.452581068546593,6.865485817749106,19.29056492298942,16.42980301285524,12.955984352603823,16.534488801748157,21.97340538823929,23.913737600335843,22.40046916590242,20.08237066455953,20.703538531810967,25.02109438915319,67.0,104.0,74.0
14.708434408837853,9.229087482053078,2.131611703725532,-6.013198488353896,-13.890339910024947,-20.366633928637246,-25.74901523384758,-34.18013508770471,-48.11634155720463,-60.228079296277826,-57.064164819917394,-34.139447996796825,-3.821495656503309,16.65524598753037,21.973314928991467,20.797526273167332,22.322323854478825,27.0841069857471,30.134959958502378,27.7859981547207,22.449012492760996,18.70111265917228,17.805927129994362,17.773797656467668,15.784960240751433,11.833250916956112,6.580025365027561,0.35307407285542647,-5.863680657341281,-12.477722112020404,-19.361298094347216,-23.376994963872484,-22.393763599034717,-21.939112443398855,-29.6275861343179,-40.16161441156187,-38.91046713636985,-20.449777033082235,4.1255387908510714,18.64572731830001,19.801271572041426,18.904747114680056,24.03376181123523,29.922330958274532,27.80248095192518,18.784448488415595,11.29846035624627,9.75716921341512,11.889348089192865,12.19646342294356,9.028801438671936,4.416336635001212,-0.5006834142642969,-6.302199087030443,-13.132587594004157,-19.26116780668245,-23.05846074860333,-24.78665538242283,-27.016110503281034,-33.630393915699514,-43.21031711712493,-46.01316115943379,-32.43205872843939,-5.9093824450661385,16.702536255533346,24.365428112165997,22.426568738573245,21.69195447986685,25.713023536520403,29.49617346569934,27.300497154414163,21.81671153376306,20.708951627583893,25.17437910690199,28.269630332927267,24.70575201271087,15.809814477494186,7.602976741117427,3.860953649855638,0.46083425706253645,-5.438981349703442,-9.959998496188375,-12.359226038492292,-18.200502717725918,-27.968771558163365,-34.303989795140055,-36.21808483136809,-41.42850332260921,-50.27358696462433,-49.87069546459585,-30.50606574455469,-2.942077090217906,14.816771607330088,18.919392883192163,18.327355412841822,22.276003655390426,30.775927016568826,34.85251557688554,29.273084228375897,20.74468650529642,18.570179330437693,21.49165511731767,21.870889988965416,19.042813124544267,17.625627382244886,16.243392747195205,10.746207457475325,3.3070633073466005,-2.1660994675918284,-6.126272188483636,-10.100996178845113,-14.768076061132488,-20.745636523878606,-26.24581683696221,-30.47997527270624,-37.433351608615375,-48.75913697389677,-53.724019341560115,-38.71893536740668,-9.996840684324859,11.466320100194684,16.313153613165802,14.61694172202342,17.50903248244178,24.934718849231682,29.610600848738276,27.850322972450243,22.27236102700204,17.545893352439926,16.996177286448066,18.857231429185266,18.415859435825606,13.927278859530496,7.547960741631764,2.3621663484692816,-1.165107872366779,-3.4810664428231037,-5.565406536559587,-9.062671265320649,-11.687008006126582,-12.45700428536297,-16.455324430810165,-25.396073630561382,-34.03400679671751,-39.899077028735576,-45.53566059838296,-45.79301533792326,-30.50589477940239,-3.2267486040485114,18.454087144759857,24.158856296547366,20.403655552227224,18.88473209898439,22.84018612827675,27.178816610170013,26.703417968490783,22.68499125563233,20.395504200751176,20.747212208229023,21.70805647159778,23.461030528150918,25.20021206819896,23.009970780040284,14.84500547445933,5.266062357180997,-0.41780139798349947,-4.004225323683587,-9.576222969149045,-17.612698753503818,-24.322921457846363,-27.80543497649701,-31.011063189793305,-36.9338722224343,-45.87753728931543,-51.55445502187502,-40.665524253492364,-12.557521442795027,12.511601422116048,19.470040587752862,14.86053073372328,13.334203289294967,18.261776026144187,22.967632502363475,23.7531677987268,21.642214893966496,19.83274311293543,21.668899372440144,26.47299174639075,29.263737323211185,25.45554900775762,16.573611611671897,8.659004344673804,4.101822267082988,-0.2642051115819297,-6.594847804184248,-14.030614119854611,-21.874184290570817,-29.963307208719947,-39.00146733277933,-51.745482085098104,-65.76085900490011,-66.22584606624356,-42.24021933235033,-7.603688428447487,14.948305526393622,20.18119558362899,19.572934658678918,22.605507100670845,28.736835193812624,32.069594080330646,29.813326716911615,26.67360539431601,26.352556255474774,26.368638373424382,24.64465385490326,23.253504768460246,21.755316004123728,15.81539616428696,5.044269126739394,-5.482688025527927,-13.357894421437253,-21.495988713213407,-29.831250990604516,-36.80018583456498,-46.2740635723342,-61.55700708594553,-74.20190049110153,-67.02802516299127,-35.81718332384928,0.4338086492366215,22.129767089331356,28.81521319739188,31.223973098974536,36.51379374469836,44.37490950433498,49.67759028414323,48.20424591948534,42.719166271866406,39.097368370922666,38.569368576185276,38.34727067393864,36.06837591235882,29.7033641121687,18.961855492376696,7.673617440123121,-0.9146208407414708,-8.717184399887662,-18.518803115491774,-30.07985205054054,-41.789527319846364,67.0,104.0,74.0
-25.49221029858831,1.8155700272101285,20.487561414861215,24.275497845347893,21.736130788920164,22.465615637804245,27.167609884686858,29.558324211362535,25.699917567383405,20.79862212489232,21.642432871356217,26.56101079464444,27.988537263628373,22.46981799124439,13.070997194590621,6.116383563383852,3.1164758465356592,-1.0833450353827554,-7.079925093045629,-10.678636887389331,-13.461315390305247,-20.890344719092617,-30.441836635015175,-35.0233620599443,-37.08933153126109,-43.9928656737907,-51.819499745093964,-46.15715964828515,-22.478774244125194,3.717671316626274,17.142768053748487,18.726747477248903,18.772660118817967,24.56694135880335,32.84318173835323,34.146712759730676,26.601862288504186,19.269139152381914,19.23806395443607,22.097693949079872,21.16337928724421,18.38726500312404,17.460501412489002,15.123911559014006,8.560489264790853,1.4689318427743212,-3.3783994171178153,-7.239136808491313,-11.339103019070967,-16.379470319867803,-22.50858081380439,-27.492632200828314,-31.986460145651634,-40.45546478309497,-51.622108019504964,-51.650677339108086,-30.963207664748037,-2.2128820794668878,14.39171600026621,15.83738491861104,14.759370204440659,19.464047256836288,26.877400679399994,29.73026961104049,26.432668881813566,20.613713682414048,16.918663481140406,17.500998618488904,19.128268260636737,17.500741468255185,12.11725893118469,5.849022359602238,1.2078361159413538,-1.9558440371860673,-4.0030653813321,-6.445366116164748,-10.077449713757355,-11.946455659733381,-13.041200969077261,-18.68559974971251,-28.18461942454484,-35.90565963793886,-41.53820195074729,-46.67678430006688,-43.206986515127795,-23.18999142654456,4.391485895870586,21.734356136988236,23.469260209745652,19.377154663197008,19.59167243088998,24.363172231636472,27.623025180178416,25.675952953793402,21.67317747356025,20.33501698959594,20.994204154458192,22.102320037941745,24.100191698318866,25.160362365884428,21.190200587854264,11.895712165416908,3.166408371597684,-1.4578280385935793,-5.294754596098574,-11.758204745946049,-19.87954175816191,-25.588802461733664,-28.59004270528449,-32.366444065646654,-39.30155816724847,-48.39853978985518,-50.606434938661785,-33.67082170700141,-3.9654478265164523,16.476599444090635,18.626654215302484,13.64411155073767,14.328398677127296,19.934824207371722,23.602352866495433,23.33921509306033,20.90395524454729,19.91841504749054,22.913251651311224,27.756535739384113,28.91721510185645,23.165575099822277,13.945928351977473,7.079293862690027,2.9886993298028988,-1.8970140303705965,-8.685275735768174,-16.260219649594,-24.193240268693437,-32.378346486951585,-42.201231548260196,-56.106518700921455,-68.11139557468165,-61.68825773711214,-32.19988819869368,0.838032301415693,17.896908582736952,20.002380756394047,19.927248997554603,24.28084054500576,30.251925833561177,31.89429534108399,28.712168837970697,26.312468370079237,26.500745177436848,26.00265545937228,24.113678692186593,23.004873631577357,20.65218076840839,13.030414092050568,1.7363635616117201,-7.943198040471669,-15.568248180846366,-24.01635776212318,-31.921510656045932,-39.011697414446154,-50.18258329325455,-66.21218892742796,-74.81705586575453,-59.98339569334609,-24.73289813816281,8.605718624984778,25.181563282067845,29.489206163297126,32.341533151352266,38.69013636588359,46.443585139835136,49.97453290534705,46.746048378013654,41.304089638677496,38.7236752031783,38.60125152889908,37.98659505865648,34.7301539905126,26.951343370487727,15.53024954650755,4.90893358829112,-3.081265112118754,-11.301706402905172,-21.739206508535588,-33.53881502925431,-44.880311350491745,-54.257404257681586,-65.14171004080096,-81.2735646497266,-93.64722659118797,-84.46807938136604,-49.925380633619945,-8.986832761790351,17.43831362219937,25.638290682534592,26.71608426322995,32.83563672323563,43.05457363073595,48.1264332651388,44.79735306626324,38.84624816978745,37.82259915072523,41.28832312032774,41.01136069206324,34.15945078480361,25.774455299078564,19.102303456654894,13.165182562194373,5.598540973315657,-4.834340009639244,-16.345534062838738,-25.673301314939987,-32.605443119031754,-40.22818280359631,-50.82718804134855,-64.59011111026815,-77.62102774944206,-78.4896233908524,-55.65093095080835,-16.29406861699075,15.529242123438854,25.232656090509384,23.618735514698503,28.843417334456053,41.099315311129544,48.110625896835344,43.89647508987032,36.161354150673226,34.250707381905706,35.97012959190511,34.73933512776823,30.35417278370313,25.50472620415118,20.301982032514402,13.251728820422823,3.6912649647626745,-5.72206598476839,-13.322098337406528,-21.753533349611462,-31.839466109011216,-40.7772188184411,-47.22447475564749,-55.93522994016041,-70.17359001930575,-77.98183796937977,-60.51383541555265,-20.961275369011446,13.38785272610416,67.0,104.0,74.0
28.388268929197242,29.302269522404607,24.799990901668583,19.145463601177948,16.6932747772989,18.09897014045037,19.09744478060773,16.248110709977464,10.236149461588644,4.310722618632576,0.17046859318577232,-2.6414958673619884,-4.557542143663005,-7.466244529693523,-10.909951559655942,-12.097891823016981,-14.059549605216993,-21.28061660575938,-30.775353978697673,-37.57594697808424,-43.22708756726416,-47.10593513768683,-39.10283555393179,-15.17190852904697,11.052927572612187,23.59798541331194,22.296742726945478,18.78846988753599,20.722442286455884,25.74089303388324,27.579971136546984,24.46131074916759,20.936343940954124,20.441385270669354,21.257529143211343,22.591211475117568,24.68166454787384,24.674299708364778,18.87247878264349,9.012793587322182,1.4686296166662696,-2.4389388255430786,-6.834305783615255,-14.108304240155265,-21.910328828544117,-26.599675130066117,-29.451946610697387,-34.00198358421897,-41.906024511656575,-50.39327069350702,-47.91124731765491,-25.478846300391,3.741709275300848,18.76109696893543,17.18035495431201,13.01480819865072,15.773526877446862,21.398660590263717,23.889834721855863,22.728426436065252,20.29289119074201,20.371501137771492,24.337973418490968,28.717504485274464,27.9416038977423,20.56646181218268,11.560017923456902,5.762485049814265,1.7844724505920135,-3.7056110685943384,-10.830484242446229,-18.52123151965806,-26.52462606888468,-34.91041765938793,-45.80015205472535,-60.407265372299165,-68.83951409775166,-55.02506272235659,-21.871835458510805,7.782771677160137,19.513859640085382,19.70072200226859,20.716576569827353,26.11419805449526,31.365013539312084,31.261852772746696,27.71347012505101,26.208886223685365,26.567286639569154,25.491554002828988,23.687198147252957,22.67224027454096,19.060713199213428,9.90771835160096,-1.3935372234079013,-10.201498436520543,-17.894404281305153,-26.480840647912835,-33.896326573502606,-41.58927130725766,-54.59804139910535,-70.28957318530351,-73.33031975930481,-51.078355383577616,-13.875500177568052,15.227615886479462,27.174163123401545,30.09065665974312,33.79814698674911,41.00923833331432,48.13988667700442,49.64803483748021,45.10166696427796,40.17316669993174,38.57118944691299,38.580368253543654,37.40977380756888,32.995773561571454,23.862169369476423,12.188041537422858,2.4034716484028533,-5.2786063667887,-14.094360360249986,-25.074657048830485,-36.96648250387584,-47.763881862341975,-56.96251711362736,-69.34687350656951,-86.02049799513426,-93.84339738593249,-76.59576223850272,-37.61384427064354,0.6747629013506403,21.38020099046143,26.01080559351585,27.701160370040686,35.765610603315025,45.3840481772197,47.90992024287496,42.95553875272607,37.84528699182209,38.67343342457583,41.92714100050628,39.55478286438148,31.647763032201848,23.662879709664725,17.40701900449636,11.248759463622061,2.8592584334975544,-8.199366161185562,-19.36916994224734,-27.80902944343171,-34.597630853603945,-42.93548602266543,-54.535747635031946,-68.7850708062816,-79.78442533681337,-74.49530638323593,-45.04361614426696,-5.255564822923114,20.59056866001605,24.967021759288947,23.99788618840611,32.13918333403721,44.18601437661123,47.92970655552051,41.469934210942256,34.8674232862236,34.72520118323248,36.06487068068386,33.66021891960556,28.935778665578507,24.095902076222508,18.525355145752076,10.694957801966513,0.7912080727875384,-8.035291466081514,-15.544952144609406,-24.58304157305658,-34.68532858937228,-42.805374933548215,-49.1912758430482,-59.66259774860924,-74.02315624994658,-76.03051775309285,-50.366437017047716,-9.24978360996761,19.22022572225255,26.48621788437903,26.251297564834694,28.78080586069104,33.27110889290598,36.066750678726585,35.283984822167305,31.61348191478402,27.82283064903304,27.34642545162614,29.33694569072122,27.729329665614937,21.950306260391066,17.067587618930524,12.282927932163938,4.023606027028007,-6.9929247183810315,-17.960712289058343,-25.127601247762787,-28.298400512034917,-33.18991462670964,-44.47638889001797,-58.49040718517371,-61.48283313686603,-41.59423526189782,-7.495236520956232,18.756030861950467,25.805335142321265,21.838965305274826,22.04736746074257,28.492187657948275,30.593675890921165,24.772100811478975,20.395430120465168,22.397467779530523,23.764172312982446,20.73893305809697,16.528978137687062,11.753167665910851,5.292660398661855,-2.022446109637539,-10.20513052753148,-18.6271766955723,-24.727816798084987,-29.60721186816904,-37.81104265609991,-49.069466203053686,-56.26001929183759,-48.51088013927836,-21.551137044761266,10.011954845742638,25.92992368073747,24.984056581329433,23.085491928655475,28.753272424437228,35.24839823362122,34.86272778575136,27.93417197093485,20.676570051907994,17.87051246619936,17.95828497102125,14.63757180563616,5.116243638848134,67.0,104.0,74.0
25.81501795598906,29.21830072743117,26.36405972201299,17.831714444839285,9.495396367990834,4.609325685602476,0.42473585641571826,-5.657650056095065,-13.01334396548762,-20.81073366433435,-28.871242206196772,-37.64550042164882,-49.794229632277045,-64.26178714110463,-67.55947045554824,-46.58643964512237,-11.910755135795686,13.069562659905126,20.1310098541686,19.543517811001255,21.92548828718818,27.942917335634004,31.9726723605507,30.31115421440501,26.937465546680347,26.285278329840693,26.47517535818062,24.911389593717324,23.372055577778216,22.120765183775948,16.9535218565326,6.592774272336785,-4.258933863111334,-12.362988999291249,-20.340268543867428,-28.81267792337956,-35.85990677243143,-44.665266698855994,-59.33928237676085,-73.30437455420795,-69.54858197833465,-40.826679725468615,-3.812565042645987,20.289217196903923,28.413202410016037,30.81217384253048,35.5884477853588,43.3388970588045,49.32830777781273,48.765474750823195,43.44447655666336,39.36391918470085,38.55493992583649,38.45368371953098,36.564250890821356,30.839456393327136,20.538190704627063,9.040244254641266,0.10159434248284269,-7.592996396913812,-17.082759513102218,-28.489305394012202,-40.301114647566514,-50.462293771952226,-59.95415215938219,-74.02469323902872,-90.06286662111336,-91.7968469575907,-66.7585525179889,-25.413991667323263,8.7335162715238,23.899633475498643,26.162149899824794,29.33618067252869,38.84734758661518,47.05640266543439,47.011532861642976,41.1085901123308,37.414318488897926,39.76819219196483,42.023112419306344,37.5961656649752,29.166408827702867,21.71622397924397,15.725749758421749,9.13186195047542,-0.12498789631466634,-11.578978145802843,-22.131395336876093,-29.792817282029482,-36.732519431298705,-45.926661708939854,-58.497533725881844,-72.76917008235432,-80.5673270136169,-68.30885014726903,-33.49333333342309,4.493463451649664,23.67164599739419,24.27415742113424,25.300181901067848,35.80557232913586,46.49894042872392,46.80133911935665,39.06159787585766,34.21106165203889,35.31647397818805,35.78995446900337,32.38700311992025,27.53282524441649,22.629330827277407,16.552687573643713,7.933304246874912,-1.9919941033516475,-10.209517310223864,-17.92772261389223,-27.52081526079879,-37.344391924476426,-44.636091585615446,-51.536669517482494,-63.8462035014794,-76.85231988408331,-71.54805619491538,-38.800023066184124,1.2426801620728345,23.106704347044694,26.479984660903895,26.59298486214566,30.044963366784234,34.387345393575316,36.22273149097279,34.43082038812114,30.369440429265083,27.23966780539208,27.906049600070567,29.465410370855217,26.260059515731033,20.31771365349927,15.885759214402972,10.29901417511509,1.0203149445755972,-10.32752210699048,-20.55890593342841,-26.27686100122647,-29.232906771512628,-35.75156851850663,-48.692131548089,-61.239039420378944,-58.1756545293472,-32.25941149191044,1.7646403838666993,22.74039722848491,25.05998662959498,21.009672637806087,23.647778137321104,29.99949171025343,29.463245204079954,22.873393898794845,20.493321170160254,23.223359253039064,23.24353477655759,19.515563862976315,15.288884265477515,10.043851128704887,3.2325844339443512,-4.270039547066548,-12.724976171685618,-20.69922900032929,-26.061081031419505,-31.49671563023034,-40.96049418935812,-52.00887343153243,-56.02408100651653,-42.41896390406818,-11.869683531910221,16.769297860672427,26.81396609615388,23.825257387827914,24.038197957469322,31.008092392882354,35.98797321990628,33.32075377689357,25.560888854313546,19.35017841552467,17.829183117145053,17.639712727553803,12.381684037293388,2.006659042310782,-6.25644661995131,-10.126450914371754,-13.123588552492016,-18.436240514100028,-26.79566428022807,-35.53185751015503,-43.50486419770918,-52.63203890819181,-58.65602555638987,-49.99145588859794,-21.764006648349874,11.417179179064217,29.52462742957973,30.683751346067723,27.768407686642057,30.507455702041604,37.51154018918688,41.42575803113407,36.81857304829926,28.287955702415488,24.446173640738458,24.485403426597298,22.82890610742382,19.703110741561524,16.796646939174533,10.677286744303952,0.30376978389202514,-8.006340134505216,-10.632373129562913,-13.076891447792471,-20.977005444780392,-31.69435982014923,-39.717474566636,-44.850534216176136,-51.45737463754774,-59.381490927809615,-54.94342057265637,-28.8582579188048,3.6160441725347385,23.520566362559876,26.91130585709794,21.712454495660037,19.348950048592723,24.139974967389353,30.292055487546016,30.319852604322026,24.53075804425694,21.109564432377216,23.758224851955422,25.838574280979113,22.134539060703435,15.98529631251077,11.496410641929604,6.376773708130705,-0.9574011207715069,-6.638177404513447,-11.36058645019126,-19.99653417365245,-29.745157265735745,-35.37720277459326,-41.05825755738394,-54.05463811178027,67.0,104.0,74.0
-43.48034821727877,-53.05838108080898,-63.38449163161466,-78.98043881871605,-92.89032198541932,-87.33662396363083,-55.45920647679456,-13.915648617039897,15.082803734414687,25.285464662956866,26.451966339320325,31.60780517928147,41.805086495796274,47.970170041777514,45.58187022053285,39.474520978927714,37.570525346719926,40.85822543316441,41.48059794979163,35.2916329528987,26.807072524467735,19.904037547196346,13.996648550175362,6.773434122954135,-3.312917391952573,-14.877512471063941,-24.615782919940667,-31.71482967817342,-39.06979677563182,-49.212766092783696,-62.64509257317979,-76.26518583767397,-79.60513028172673,-60.06175395637844,-21.65780255113527,12.502465978660156,25.05054313613004,23.707805335239616,27.535237267502772,39.491992194169136,47.84360780611811,44.931319335364165,36.96246599732826,34.13210173270663,35.81699108138974,35.146875556244865,31.006469008911612,26.145008881949984,21.066202053583478,14.3499612573373,5.041245626414843,-4.592116625479402,-12.332815999142818,-20.502674871229264,-30.48709782216214,-39.75616820382913,-46.39288247038235,-54.410460452383894,-68.21079813511699,-78.09059813385025,-64.53420151437692,-26.585070724683156,10.010375594321442,25.335199167476265,26.29019495722219,27.27344447314937,31.384275110433148,35.276674056025364,36.06061133769639,33.3758961055702,29.19878307596816,27.01937394200221,28.570280653163277,29.125356601258247,24.54314861336739,18.879141276936206,14.59841586080091,7.972452584762959,-2.15914090430445,-13.579180250446715,-22.739869749448303,-27.158089688793023,-30.489976235262837,-38.91609254578267,-52.94448179593955,-62.636945873702146,-52.782919638748616,-22.204660720498616,9.816761087227993,25.03500538666502,23.77443217195929,20.871420263197148,25.61762021366089,30.83570787932379,27.74580076772695,21.410673088663888,21.093152217693962,23.75200562130233,22.37880364182211,18.292434748877767,13.957466065580226,8.189145036595933,1.1317748544398103,-6.613828207116125,-15.215969223738508,-22.510762076984197,-27.38715469735826,-33.77564168242936,-44.27905698912384,-54.38658221606569,-54.24324209046117,-34.762298746693915,-2.361553014867024,21.795730202923878,26.52949082471621,23.043058135209172,25.650025627673298,33.0601528380973,36.031804628694225,31.322056246836652,23.34683206943606,18.460018666120746,17.92656332644243,16.85073318070995,9.6317406419595,-0.8761796606359571,-7.709001921021707,-10.911426329680706,-14.323081040344793,-20.606584354127182,-29.426624848772555,-37.825627970774185,-46.016708312977926,-55.137174286873886,-58.17326151395542,-43.57790817041573,-11.643586693615571,18.71981979790541,31.152187470115155,29.63510613440938,27.847680385775437,32.367457233656104,39.31778680763248,40.99270089605447,34.30077907898615,26.510201134220797,24.33775795645529,24.31555688597795,21.921559968344425,18.915109521093196,15.55061272005732,7.937905973464217,-2.6427002611667745,-9.244713696235715,-10.994639251026605,-14.753036752157756,-24.06969458498444,-34.429557650401534,-41.34260756178703,-46.41195154878947,-53.9669625763733,-60.16979609162629,-49.38016892009904,-19.07941562264937,11.127980207270856,26.011389804826827,25.762047790321958,20.332456116830294,20.106678388498374,26.17316819331603,31.12147145331607,28.95685054155586,22.924710665344577,21.402740804349655,24.806515336685255,25.350317078297312,20.337823372879175,14.503351163700813,10.2751951041132,4.360627149316891,-2.9151392294400345,-7.848745550627556,-13.382130627096696,-23.023475135788544,-31.8283151915392,-36.58841123168786,-44.00647463959192,-58.52745409139108,-66.19842151771998,-48.7844309666252,-13.770405676909071,13.866345467732124,23.924660652432756,24.640867854423753,25.084445531515748,27.566174644346308,30.028653145863075,30.02475781556729,26.874375742169153,22.391428831477274,19.849393874163923,19.994688565724157,19.833017346527647,16.851752876313537,11.162522825866096,4.275296180521068,-2.031028343410158,-5.908131531652764,-7.349470432106366,-9.668519717962784,-15.277430703471234,-21.218775089552906,-25.906988648048355,-33.90723928243535,-45.424699753503674,-50.62495845846257,-38.71553500891504,-10.25303345023588,17.761735321968214,28.655579049497884,24.285399893292954,19.414622825053275,21.473454953373306,25.120978458110113,25.267245628572134,22.22228783662965,19.0328209251019,19.86573919825075,22.25890952666312,19.805795801526706,13.142843170188065,6.645518138049277,2.069209391452243,-1.761009558902268,-7.486643181702606,-15.713794468799618,-22.889968729517296,-26.006748294486037,-27.6102569886734,-32.619553647993655,-41.100430760159455,-45.83078543787843,-35.98057778554707,-11.79780564905587,10.392170879358343,18.869205240318173,19.06944460332431,19.902256648500153,22.728570472990423,24.736312395335684,67.0,104.0,74.0
16.78368439621769,26.321860845718962,26.204560303953038,28.251053711387193,32.699129429543646,35.887781165300936,35.59401826943064,32.18621439918147,28.19923193046866,27.16789226677812,29.150673383900756,28.278784517706022,22.75469852887129,17.614564732024533,13.083154876180759,5.332500946672903,-5.453758643283345,-16.64214104613242,-24.473389604890446,-27.92999312919659,-32.2109627249186,-42.621950986442705,-56.88767621506368,-62.301420366364006,-45.49442483831399,-12.04662357140987,16.32825792400551,25.845060248617163,22.394056378542135,21.507683393730243,27.636971216740147,30.861465920496098,25.720558310961366,20.561645917443325,21.97069225620536,23.863540328130235,21.28634571519684,17.086028674055665,12.486194513482662,6.224643433421027,-1.0133372135006309,-9.054358829115108,-17.592745998497264,-24.074182698478893,-28.84950844624702,-36.45418801655596,-47.59589734846124,-55.92009101030934,-50.73292383637299,-25.904337357905387,6.382500521644055,25.020155424943354,25.54167051215344,22.899508476062397,27.7181428610009,34.68758328500802,35.381671296721706,29.034568574981527,21.431543023337092,17.97630350131486,17.9912146984493,15.478839083631517,6.570535728427057,-3.385461060258745,-8.837622409902213,-11.724053729098422,-15.781231486368615,-23.014879003419846,-31.992657919560706,-40.0857452690124,-48.673832767527166,-57.176189940526584,-56.13738980206388,-35.56317788482693,-1.6744615967115355,24.3609869897226,31.552322549834013,28.62249926572672,28.529807059982424,34.45390184691784,40.65721481735957,39.77277518275576,31.69585211115618,25.290523188763316,24.412398577781673,23.886473177828776,20.981652527735164,18.138551802129506,13.906671965463469,4.898177871549642,-5.204567900007028,-10.015729309196017,-11.552040337503746,-16.960206470042955,-27.245126058904862,-36.82893062405158,-42.790987284916795,-48.23133344261077,-56.480116696410974,-59.438223982915254,-41.99851245936377,-9.366908947315459,17.25161002759054,27.174868682683286,24.174475256359745,19.45791850256262,21.45288540058158,28.10165688473225,31.286979395143604,27.226548789086316,21.759910145537994,22.17756743122218,25.567731220386904,24.33914854097936,18.492658901317366,13.209977466028802,8.877745081958066,2.1943656601536428,-4.612573494212674,-9.100037756575565,-15.8286406670912,-25.964208682179656,-33.48843195263531,-38.02850679524063,-47.6981838076577,-62.479927684662925,-64.04044860233083,-39.398907000532446,-4.101773135351327,18.414492892857535,24.576392237978972,24.572124169487726,25.636579793366288,28.40872365999721,30.353761662427132,29.406114560981095,25.575438252419175,21.335789250587702,19.705797799907618,20.13638558430182,19.303590122623994,15.427050533817651,9.225192865460787,2.3025724341715943,-3.457762990536463,-6.486605602526043,-7.736493220692798,-10.99158428640977,-17.15659455899179,-22.571428757497557,-27.66569866363591,-37.161779064361355,-48.139932193344094,-49.239598188330646,-31.69598750464963,-1.1439380732432085,22.99055929144665,28.388508972001095,22.303891191491193,19.380822472077302,22.70753026699839,25.577179433498316,24.634803655363832,21.101502118539734,18.782889901898002,20.726220417400643,22.187872353242174,18.10677481456565,11.103155476892635,5.133865756789478,0.9921849501236643,-3.1139753388909925,-9.69918877466797,-18.104518147563926,-24.209369663775885,-26.383147416373877,-28.571206908590355,-34.892254385539594,-43.34960077093867,-44.832422823991976,-29.942077983782543,-4.350560724814908,14.284433335022179,19.284168145130245,19.03478844626148,20.617992284836482,23.52614620993501,24.76250949197722,22.3555726160741,17.885787683736744,14.014193258975807,11.075789186689159,9.331363739769165,7.166581556327827,3.718269338892431,-1.5415923921716108,-9.449750052541187,-16.343048442531995,-19.476690335336684,-21.173708441270467,-24.003405837008422,-29.153115566947058,-36.128823939482565,-38.60706591327872,-27.27768965092374,-2.34591983553458,21.02180903586421,29.217720899259312,25.15104238438923,21.423977659588537,24.224043282020457,28.307771381394268,27.11840735764357,20.935414399462264,15.610313697576172,14.526368218260528,15.5775661889357,15.135223358619951,11.703194902051692,5.636317986105272,-0.30139470403867685,-3.188213584768265,-5.414634653153056,-12.708040948551423,-23.563389035732488,-29.945328623322634,-31.41431330428589,-36.615589385037666,-47.858898324363984,-52.69728008799875,-37.04560025954761,-7.450273039328509,14.246940879416764,20.984693484541598,23.159570877530893,25.76715076629603,27.826909796486984,30.434924945022292,31.113675967150133,27.520271646281284,23.84076850537525,22.26190207697632,21.99524478536459,22.299246494585063,19.557186918767353,11.36339743074148,1.422657295389312,-4.499293045746361,-7.944349068312862,-15.311420876218975,67.0,104.0,74.0
3.42358220539214,-5.452602009005176,-9.749224494904675,-12.643765123910995,-17.52994174944251,-25.583581170178398,-34.44322998486907,-42.398807394782246,-51.39656222669898,-58.43279237850285,-52.35055998477556,-26.31043092869676,7.553536178875483,28.27642280801851,31.085165074632755,27.92652623890621,29.772830034943347,36.57689972388925,41.35562248160487,37.87198432103608,29.27696921203564,24.60749753373254,24.490986339581436,23.207965885214747,20.088599836087685,17.266740773471,11.802822586625753,1.7405020264523783,-7.251841946260971,-10.473111072478902,-12.484552026403174,-19.62714495921669,-30.336688175589863,-38.88005029877636,-44.18708947025872,-50.36913952043699,-58.634633719413266,-56.830088695766655,-33.221217955047074,-0.2590035453031889,21.887232662935162,27.208122682283044,22.461713225567415,19.224744749194407,23.230521366999156,29.710111874819408,30.771131994664664,25.36392857430314,21.171950999413188,23.238356236153095,25.876254941348883,22.9021595719447,16.737330197822715,12.031859278013258,7.227938437194727,0.013355044270880634,-6.046674962961328,-10.568666739836095,-18.627429808321835,-28.63890681567784,-34.822916184362875,-39.9516445416364,-51.974125341262926,-65.29801392763206,-59.45856673018864,-29.067822644722398,4.33044836052396,21.503734004714982,24.748997401590703,24.6382727404692,26.352238136033957,29.176098725251553,30.423901603514228,28.529408444920126,24.234582267598583,20.527334056010112,19.75560841258921,20.15814878964108,18.502090736162323,13.804175716669228,7.225580929394034,0.4273000073984653,-4.640138925577403,-6.88954729867659,-8.313207150656648,-12.60107585822432,-18.936948382918704,-23.85330144619195,-29.856269620739006,-40.60505365140015,-50.013390616988495,-46.198136364028166,-23.47578561406513,7.372194672271415,26.50554395094933,27.106373579277083,20.686033440703707,19.94282551906552,23.864392752883237,25.68613821823247,23.770634247127735,20.076283922098092,18.95925804025125,21.549623842383866,21.58481675888951,16.162545313748296,9.174352766669733,3.790362796849343,-0.07291984894179196,-4.698466093183441,-12.09318119126401,-20.2833557889649,-25.156614174871084,-26.75844767447474,-29.922690958408396,-37.39177371090119,-45.03407143255113,-42.351154145549145,-22.907445326126528,2.4222002210134326,16.91798577555399,19.285617707396863,19.21324289721453,21.454428790029162,24.179605919691003,24.456194849531073,21.116562006437093,16.6669406823954,13.054470264529252,10.476476571952226,8.841265646056819,6.285112913590552,2.4688694271454765,-3.629385412195066,-11.76882044487803,-17.60127637065597,-19.960128444255236,-21.815798563036015,-25.207296183563873,-31.127747967742916,-37.74288702349058,-37.05142121723081,-21.013580792895556,5.398282834114236,25.15775935074503,28.783454714974415,23.52686607293405,21.63181402572659,25.643770173001442,28.649812054693104,25.63129764325502,19.047940222289625,14.868881528798145,14.791793592976063,15.713393484947975,14.469485225442714,10.147547622310645,3.735231749898414,-1.4813046620594352,-3.624714679197911,-6.8526995081795405,-15.819712683764745,-26.13947509836912,-30.55990550577451,-32.16652578109338,-39.53798542135693,-50.72021869742864,-50.50973590711668,-28.99585939453848,0.43039885575482945,17.40588961144683,21.614221728017792,23.93316713205783,26.382905358532867,28.521532580181546,31.048314338079106,30.414462543449396,26.251591271222487,23.210092312981114,22.05724749274122,22.12590806923968,22.017411581745254,17.70874104131487,8.369048878464756,-0.8261551341253294,-5.448781408487026,-9.49639970246077,-18.302893505434575,-28.158064257918863,-33.3383549709894,-37.40901995550083,-47.313417607344455,-61.804746801752785,-68.80813889625604,-54.15786969721658,-21.324844237256986,8.098387568001726,21.105976774684912,23.502480860839366,26.59235035483822,33.461448483784594,38.66656672350151,38.79528163907052,35.96380518899059,34.49550947858077,34.17891350307267,31.32129829234145,26.69351978227051,22.22491496659081,16.89353620788483,10.179101576636327,3.2886297844230046,-4.0420235249653755,-12.069657336810765,-18.859124403944353,-24.52216495360725,-32.999230970256384,-46.723734888414,-63.77080277437365,-78.37081650701991,-78.01102999185578,-52.431771937588756,-13.378589238682961,13.928842395947317,21.836566889253277,24.468136495760895,33.09518698807101,43.944150087248325,48.93683871172734,46.032563521615536,37.429560927379434,29.119641034273457,28.297177208620905,33.588802952991365,35.99857695449504,30.611241028768227,19.903512455070032,7.0648213268589055,-3.8585787613699964,-11.614282993204672,-19.985099857786906,-31.282013861582257,-43.15605918176748,-53.02526222433269,-64.3305821706824,-77.67845416747696,-79.00151319967654,-53.58254813759631,-12.635775851079469,16.549435122223656,67.0,104.0,74.0
-56.49414554155721,-66.39998205362362,-52.60517368010098,-18.51584429033193,11.2324146069841,23.383457219353005,24.690568719024558,24.895927298998135,27.172467470535985,29.802774520007066,30.216291758837247,27.43582218763046,22.943886545690642,19.9991180675897,19.912672709507145,19.989414292882433,17.431224850144396,12.02457065467245,5.203125032566862,-1.2987337923676414,-5.565795274624472,-7.20410870565339,-9.167273573971828,-14.409492434929572,-20.542805026761023,-25.210237273288012,-32.52517502896877,-43.977235422428166,-50.74558537939325,-41.455196723313385,-14.5000039320477,14.806449938642144,28.334536398982515,25.230303644590418,19.65872324970467,20.93147887165759,24.79498827248617,25.468455015717485,22.734714415523772,19.284717828175687,19.514778530367153,22.125865240013397,20.470324987248635,14.1011501440837,7.402812311669367,2.5875105645728804,-1.1994809682599377,-6.546070395462914,-14.573474148678155,-22.15156783097159,-25.791665175283093,-27.282066597605738,-31.68039882004983,-39.95530050742819,-45.839593878680546,-38.33048933184677,-15.331636531774533,8.15991873950031,18.45843475487658,19.133271079156295,19.633036974133134,22.332011330722484,24.621278823444932,23.81356797128251,19.794187514266465,15.534586270412222,12.172651490585409,9.98090482449855,8.250838811989704,5.310569989927436,1.0252290144660121,-5.930843114645324,-13.863899162532068,-18.53639674216198,-20.416282980393294,-22.589047239091215,-26.63676916024876,-33.21025892786959,-38.75584398388176,-34.118337751964624,-13.783313774014816,12.525973999577943,27.817213006129027,27.57482059931055,22.26001342688471,22.405960263011128,26.958276700845673,28.434303691538965,23.817916789463652,17.398128861943327,14.5047300955226,15.138497951077348,15.650069747978868,13.538451332916285,8.397262430938657,1.939825257221197,-2.3539781269419846,-4.141952945954461,-8.846614447189458,-19.072000558430847,-28.134939945112514,-30.893098225255592,-33.481656582202596,-42.88431309397116,-52.60104191322305,-46.35463061838389,-20.226781506819155,7.099225095731845,19.413707698605165,22.183549944239378,24.72113349484559,26.952639288864603,29.29673034444299,31.36991164006451,29.370866159981155,25.123005143183093,22.738788777387768,21.95449165426591,22.27173078391192,21.358797963833645,15.392925720873476,5.387373685853975,-2.620947074505844,-6.336890725101785,-11.52462538587117,-21.40056158219229,-30.174527173141062,-34.263047573678,-39.51139783535922,-51.37561593373883,-65.33849914310956,-67.13488363525587,-45.739201019235566,-11.508042452594855,13.567160446630497,22.347925161711668,23.955200373754256,28.35518644357874,35.40033838636675,39.22151716157956,38.08238821331574,35.267416089387346,34.47128359054682,33.68549847231176,30.033592902710474,25.384940849902407,20.847148604528787,15.049165521595667,8.171150610968942,1.2720322161274003,-6.353248813377154,-14.240417834614469,-20.480541125833412,-26.490713561797257,-36.44180199266508,-51.472403878193425,-68.6494279814536,-80.49372606321512,-73.20474012494128,-41.4032735153784,-3.3976997688464596,17.82025333865103,22.36932119415444,26.260157047137184,36.420166704022286,46.20677181826886,48.8594026083011,43.962409587623306,34.61859227871136,27.949861548541527,29.54091089558314,34.97171949963823,35.21696643876916,27.903544784168567,16.266568166602024,3.5324310491809996,-6.306475459181838,-13.785222580836372,-22.968075091661674,-34.84463261585317,-46.17408368770715,-55.90967094058777,-68.30922552668584,-80.20584396192986,-74.5228446087145,-42.12855156955658,-2.031283631127726,20.785753358254098,25.783369995558747,28.54241968370209,35.36779943155722,41.80374018402708,42.28462120671663,36.07128319666273,30.2037917997056,30.023074569262356,32.3830836803934,33.072771738052964,30.12021684615408,22.815131980096368,13.067633144307536,3.384575172286355,-6.19404723858265,-15.968389407764182,-24.594795880847194,-31.922026720169335,-40.883380134502886,-55.42643581027059,-73.47611654157458,-79.47516965549963,-57.26213866159883,-16.975819892613448,15.126398839833909,29.540498515585718,32.902371760817864,33.43157178615966,35.50754632097669,37.96301417349737,38.261426666920606,36.11271105640119,31.29770033082532,25.803903448202423,23.9672221451033,24.490539126772962,21.074031140277135,11.91390106820819,0.7075763659121033,-9.005281704353514,-17.424453959931906,-27.64677589410022,-40.43423270435618,-53.02619709221758,-65.72309788250095,-77.0917027825034,-71.94403321029137,-39.526826135739135,2.4425645102391265,27.13971187466722,30.890359534273323,30.172427236832824,33.97959331927638,38.29720898473304,39.969100186941326,38.97022921401093,33.96294664361759,26.97706748020993,21.82922011091223,18.489371632294375,14.263391988867332,7.554586233199522,67.0,104.0,74.0
24.79018008479354,22.87133976160186,18.475297983145012,14.478675652617332,11.393930897578528,9.537283725059037,7.536803260305644,4.245519704162637,-0.6682241392022601,-8.340084768955508,-15.642769027958398,-19.22063774693836,-20.915275082960687,-23.516429143478653,-28.30607736889354,-35.253569677950665,-38.90195276519524,-29.754149792147505,-5.994586788972199,18.634182167430367,29.066817916841956,25.945828489123585,21.542171625877696,23.59294351428351,27.978675721204613,27.65469094268322,21.847591914599953,16.0858045393633,14.461287233548957,15.461792965059947,15.354938690018098,12.341552263988163,6.520553339858749,0.3448564411418387,-2.9662907603311908,-4.921080328809463,-11.38266434607052,-22.216718985683404,-29.50737207318247,-31.203713333549203,-35.46969485885478,-46.339735686514366,-53.06254164855204,-40.35085946224675,-11.380969125858678,12.33062844891717,20.608463605475297,22.82758383242526,25.456337408396777,27.53668654128413,30.091521554152184,31.29513733159256,28.121388048623043,24.196434432527862,22.388908022382143,21.959174024050007,22.33289749369863,20.24048932522893,12.697669262613982,2.5992288251973696,-3.987088966660646,-7.368466055118159,-14.024090235064893,-24.386581710546434,-31.71923879710788,-35.28971176381095,-42.239256529058366,-55.6847782485734,-67.84854311189115,-63.35739037836437,-36.15219259572904,-2.5851957739056144,17.55993569029419,22.989400231976447,24.722539446990112,30.38125466163209,37.03073381563856,39.32928050484881,37.221245946332786,34.79080479957019,34.45478186624023,32.905916281291944,28.674832135981276,24.10932459206541,19.34629433955476,13.105911746452632,6.1820233899710475,-0.8171197268562784,-8.70158035127514,-16.246209754140928,-22.058542106444694,-28.814772400624694,-40.33499683493349,-56.42245967146477,-73.14383423787262,-80.97192057091695,-66.15970403592344,-29.814914428417083,4.992022540962675,20.200387916121752,22.9307910106238,28.680497622141917,39.70441439611423,47.821748028667564,48.13856452144486,41.486737072201,32.0353589991135,27.55019473864337,31.14150008921288,35.86442765400352,33.761424949533755,24.85092853761503,12.515897092498658,0.2830571205458894,-8.529799569918202,-16.124628118258656,-26.20968606023257,-38.34741238113654,-49.0046065931332,-59.068678848073134,-72.36691688190241,-81.2192553196234,-67.5814534879595,-29.986574952876367,6.930272106855694,23.41290630588528,26.230904732683765,30.18903483589916,37.548990469225494,42.73055369853735,40.98758754458843,33.943306833586256,29.583438147926884,30.68161107548039,32.866646399845386,32.65654321776346,28.429602360997258,20.107037154121528,10.214363582421115,0.6477946529718795,-9.034263268402167,-18.64396388254697,-26.76881011152285,-34.15154449544126,-44.402376193840404,-60.69704538462232,-77.41517738892789,-76.13695360556086,-46.291254323257135,-5.961140525853643,20.952624672406778,31.2482580721771,33.04856843304796,33.83124275733379,36.32184150636571,38.31841818052884,37.88828895713807,34.99440806554443,29.575651625223212,24.7850588215597,24.14556032600722,24.13183275039172,18.913472279553268,8.678879586287595,-2.323970494821101,-11.458537354245308,-20.060705045206795,-31.181786352347338,-44.18186095161406,-56.570279658865346,-69.54550212040509,-78.18811634133529,-65.14545839061968,-27.02705847325562,12.113770174755354,29.789281625275326,30.41194954583917,30.852587315562715,35.42885007493447,39.04655091611741,40.00270631409237,37.955875384820835,31.937642472559446,25.220200499043802,20.777810971052553,17.47685022657627,12.594988374360831,5.134829944221047,-4.429904219263656,-13.900783012474996,-23.02503752087246,-33.81297848771453,-45.0663721410012,-56.28651552643321,-69.28703308971838,-76.77705351928178,-62.32220047865701,-25.915989197360883,8.673672834887679,26.393615236471998,33.62546972628643,39.807082052508086,46.876043902383834,50.255150530159796,46.96793611396678,40.22186621438341,34.28197603882401,33.40221766777796,36.39667923960618,36.21291305840777,31.693165384666568,24.915089776365566,16.518015590186476,8.3501242323861,0.2569013271536532,-9.407403455243706,-20.412856257850628,-30.070478623815116,-37.98494011705327,-47.54029486190114,-60.467993667783944,-76.48173827682592,-90.20313951590019,-87.06192116993473,-57.8891431712517,-15.742052943230371,16.390694610222393,29.35316237511698,31.456379477458356,35.65415663465521,44.827983203950765,50.43976576096225,46.56376042029864,39.40661509622879,36.668928976560416,35.56717468273752,31.06378422946931,24.834722189392984,20.85292901452689,17.364748868987462,10.02909241036853,-0.7095601326840021,-12.512820179739407,-23.12250086564165,-31.055603967944307,-37.46588318681253,-43.266791116920594,-49.35945859982765,-59.55272380900553,-71.08615849880866,67.0,104.0,74.0
-16.89763985159637,-27.065882466409388,-32.884741238948024,-36.63275404390279,-45.58491063854836,-59.95062730175313,-68.910319054573,-57.50108568472007,-26.009847692218298,5.06390341505893,20.242426065956213,23.349514025011057,25.904281749451048,32.502088885120216,38.25450802505058,39.040421539375984,36.341358455311855,34.544472293399046,34.31523167264343,31.868587179291733,27.31155411508532,22.83009552444782,17.700799187365106,11.107248688645178,4.20416093112485,-3.0021046582554343,-11.025202090756423,-18.072261690835543,-23.705451093188,-31.571109300397634,-44.628288815724545,-61.4592633199332,-76.94894381849653,-79.45378112165685,-57.136136363642706,-18.39449326683159,11.541840901215316,21.483523087737918,23.856348675348368,31.61857594390536,42.70907193554798,48.74506784463913,46.82314564162181,38.73958934563459,29.900339666561937,27.905470763932094,32.84338514651757,36.118623244334984,31.720138291326542,21.518671144466428,8.761682965740345,-2.629622334045332,-10.642931983794046,-18.703949372640125,-29.65190215951623,-41.68842162105264,-51.74938475904269,-62.587184070638564,-76.1513793706146,-80.23321546810656,-58.42299001612748,-17.945276389244825,13.969468424241098,24.849572133517018,26.88608803845381,32.16655227430976,39.539923470102146,43.03817927445761,39.18862907433038,32.08678236272735,29.476334440273753,31.41283179109521,33.139270880279504,31.898557303744038,26.373162612004446,17.27465041603486,7.409139933615735,-2.105880242817333,-11.882260753343687,-21.176190139649766,-28.86132837203514,-36.61703309786008,-48.48159857146723,-66.11354870893517,-79.80964244359373,-70.1745364296774,-34.40447883304462,3.7516407534602365,25.329008296726393,32.25638994824192,33.142378885376196,34.41244312626377,37.08868321034957,38.45175271002282,37.32177546078233,33.63570470591451,27.896065348363393,24.174440835080546,24.393913512845206,23.286474859113035,16.30640816612024,5.393886900309102,-5.171140185500216,-13.850390069671207,-22.939665012884202,-34.89324011306507,-47.834492741095296,-60.199463607850646,-73.13204769243573,-77.36943218778659,-56.02823466002784,-14.457525682199858,19.775433799910537,30.925122559604688,30.03506979754746,31.945538034489747,36.75548277974894,39.56709814071618,39.803020232718296,36.56517608726843,29.861289189349776,23.684088204863073,19.83483965037641,16.313977087838108,10.706697248845066,2.521194252882312,-7.278697881834307,-16.46512115301017,-25.953025577524134,-37.12260339559586,-48.20859662634591,-59.89862133246871,-72.7205456335437,-75.4256446154052,-53.258955646578116,-14.59997356061864,15.527126940512176,29.038617008234045,35.27790984640151,41.876833075716995,48.48750710692109,49.93098189407698,45.17427621102379,38.22886196109958,33.37719725732478,34.171633206580054,36.893746490608265,35.22411035858538,29.944525907758823,22.58678667250455,14.073892997006324,6.085513984884402,-2.329901563281462,-12.538340792130224,-23.46363295053454,-32.408361543979865,-40.44290874499707,-50.914459504658055,-64.84906384844571,-81.183064698112,-91.75439261690846,-81.17570729507541,-45.97340331504982,-4.633713313499592,21.992276373088597,30.446080796460997,32.04655249101135,38.04020054699591,47.27288524571462,50.2390431416504,44.35066343301961,38.08593848177151,36.4932126061605,34.67519331490845,29.224262208693446,23.387841940425517,20.03009173425877,15.723834911564818,7.1571178144867655,-4.095092450114832,-15.813510229885136,-25.67854612996557,-32.98574725135914,-39.211742622471036,-44.8602864425027,-51.748102258678315,-63.25908652044954,-72.52353827658327,-62.02947327387181,-26.794740255583367,12.525041324910616,32.12077687167456,31.99652837814703,31.104591579637162,38.66862227088345,46.442127161470495,45.660162080553214,37.46592240807438,29.84052348049504,28.37269785611352,29.91063362340357,29.348614197860392,25.763870831233238,19.656223702919142,11.196643954636581,1.2948646575590497,-8.292207551399365,-16.532271776532347,-23.731112489936603,-30.26401605728407,-37.58902618013312,-47.348815554829315,-59.305435217378985,-72.94374339529288,-79.78774364032817,-62.578222843667454,-21.33775238893846,17.502848534316794,32.90563203238665,31.622106187351047,31.4113558624092,37.64629367266328,42.617530585769615,40.64240329567181,35.083449875246934,30.364821714743915,26.28915455998069,23.945287093757084,24.214244797421507,23.25747517186143,17.459098240639772,9.4010578740096,3.261384801636585,-2.453046418626943,-12.203678034426638,-24.61388259455849,-34.56577463334238,-41.9746246557456,-49.721799174637844,-58.96328645738439,-64.97204431811559,-54.85258214386129,-23.359096370524966,13.024717329511349,32.51320547418668,32.124552213451466,27.545145354984864,29.401031342193324,32.95509986163901,30.564005403328462,67.0,104.0,74.0
19.05370918276523,25.56808413720807,27.920505570156138,34.341439258133086,41.192858472829805,42.676286343714686,37.08159289730919,30.675622055237746,29.78109708349155,32.10320325911553,33.15912328912959,30.770093824873026,23.9982686252589,14.394687495498559,4.648093535953,-4.8948804227521965,-14.696281739535104,-23.55067496125648,-30.942415205098033,-39.43499795193339,-53.119787916171255,-71.29717619249055,-80.13602106825836,-61.80687134959214,-22.372110595695567,11.910457902976766,28.45698146429735,32.774228753787916,33.30756358072948,35.14046826585865,37.72827857127924,38.368436445678675,36.546708130039086,32.070026189709694,26.3977876660301,23.957169776876736,24.522295104376177,21.898030845260184,13.35654792176194,2.1595778096643516,-7.833175128572999,-16.271356320063344,-26.097771064818247,-38.68546428153488,-51.39867169876646,-63.95645957907218,-76.0832981037732,-74.23338604640783,-45.044406254902235,-2.596251701883766,25.294271010085392,31.039592171074435,30.02062634764219,33.308162018287966,37.86799825212086,39.886118941071075,39.31169743013672,34.843408451387035,27.85346665435179,22.368445439303667,18.92250164655416,14.95906205606485,8.599274711955662,-0.2464370782044033,-10.043793628635974,-19.050273653595248,-29.05612809567198,-40.39937148920774,-51.38804348328763,-63.70108394002703,-75.35990829624416,-71.81150823086926,-42.675812620025454,-4.152164915943263,20.865823143785928,31.106930573675704,37.01423734493799,43.989376481007604,49.63001436665397,49.048335798825015,43.208777913841665,36.40052884102488,33.00479756988655,35.129249057222424,36.9514928651774,33.942710004022494,28.02862419087859,20.14749938856051,11.701048418552421,3.7856129991926073,-5.083295357094466,-15.747722166828998,-26.314672843661647,-34.652572032670875,-43.128551490803765,-54.58138037810903,-69.47673153198107,-85.47662376266044,-91.45412168301345,-73.0587757694433,-33.53260888220954,5.110097311864004,25.974170016100775,30.967871449114227,33.09962255557984,40.76223070754673,49.13981850499777,49.20507794654507,42.13832239485692,37.24189435154612,36.27749858554185,33.42599504094049,27.35449473881659,22.204713626236376,19.124143199869508,13.682464979156972,4.067832172246621,-7.5266115462935055,-18.946346080934433,-28.001362365270005,-34.83957905154364,-40.90211892758363,-46.528473316247926,-54.59976794889245,-66.87435941193095,-72.22235041331002,-53.89391665686551,-14.552244040268036,20.77791405619796,33.40222090240402,31.006187067898026,32.5668440805519,41.430566754372954,47.23767179620504,43.770840231456546,34.81234677633017,28.77263300076718,28.790497092180242,30.08160371332467,28.590924245180087,24.25335802973374,17.435486514468952,8.414553681769066,-1.5865060492588192,-10.808092313958591,-18.70433270604134,-25.65604708511719,-32.197020401102556,-40.14568354722792,-50.5884467122067,-63.178629326974026,-76.3675152589008,-77.87539178749465,-52.29815599702294,-8.484446192100421,24.56549369040019,33.414491982383694,30.86686567211909,32.75863455409239,39.62901954024884,42.760542057298274,39.118850959680245,33.592842709818335,29.13670625169119,25.32651271359081,23.838788482137353,24.306731901677452,22.089868261964554,15.123379096994222,7.36072545657239,1.791569995050247,-4.757678220088882,-15.765550339755862,-27.872201248158774,-36.83619331071127,-44.07512777992914,-52.277680182395414,-61.496214847676136,-64.30130418793087,-47.60317082546075,-12.238452917837362,21.015020453661997,33.93121204194446,30.462322105715753,27.391616851800183,30.68839308671344,33.017470829810144,28.732322506881797,21.942573664030604,19.11763462549401,20.167748871320768,20.627064294725564,17.758743443980464,13.848504116226039,10.385637768104473,4.266254608693171,-4.298300672433276,-12.57870278380349,-20.60747571494802,-28.549562443633295,-36.38487950518701,-45.37850274634787,-56.084505270643376,-60.14993348519536,-43.23473235866055,-8.10307797754584,22.657173995721582,33.67056414446003,30.739104427835155,29.347166538054008,34.23120958674623,37.54135894599646,34.17259680272303,26.65976103177973,20.124423592448206,17.92566004169361,18.966092564192195,17.207867587666215,9.039508918088154,-1.1618776305336962,-9.089745281651739,-17.439567409263464,-27.642940122358524,-35.41044387148539,-41.76938920273651,-53.71012250096652,-66.00216281713612,-59.63711281294057,-28.23798001923542,7.441291945228434,25.14270545089241,26.533894519772463,26.497906206167286,31.308105109070457,35.722367745509,35.37587569045648,31.615492011088456,26.917700469507366,22.60077432745489,19.278830539496234,15.479469595102373,9.971025904292246,2.6669054415071693,-6.062267051710784,-14.623175576827384,-22.73675487221096,-30.157520402707437,-36.21932156155029,-45.164733057543025,-59.657578204605166,67.0,104.0,74.0
6.2760320974507176,-3.1038894477977985,-12.704120169146744,-21.73560472882102,-32.29349469492451,-43.608531491495036,-54.696124414453216,-67.55793664476903,-76.71746655677111,-65.83721651170329,-31.25635208038496,4.979021969035667,24.897300738338327,32.86218065010512,38.89163782976627,46.01502188028637,50.19961330621998,47.70725218766756,41.16554295767951,34.86037689356104,33.167168300054016,36.04703269867755,36.54541749874826,32.44408742841917,25.937424442221786,17.66160967853496,9.396987144753771,1.3988235450304973,-8.006657812085116,-18.95758664275891,-28.935578009067637,-36.91027773361367,-46.0825302209074,-58.542858325339225,-74.26310505539686,-88.97696396748988,-88.98406330178256,-63.02844313869988,-21.21367922408827,13.22887576678783,28.554329979677544,31.285585977176083,34.717652501926096,43.576542525683706,50.231011467104445,47.50507439506186,40.17633267243483,36.788323463623215,35.86015357289717,31.864393043804125,25.585738623509812,21.24548478414216,17.993498334072882,11.259653358648144,0.8242129958895771,-10.952593671812714,-21.860677894967893,-30.127727307369085,-36.64610025007839,-42.53136699669845,-48.39490459229577,-57.90560645654922,-69.97019369141023,-69.79665723197758,-43.824501153850505,-2.69749742458642,26.931806149515694,33.34130300235191,30.483710988278023,34.73997722897919,43.89429367524597,47.187410741826326,41.38820367770248,32.44224806870295,28.275590637050005,29.30176449354677,29.98679683887476,27.59901029742733,22.53635519117954,15.023257120735572,5.545893378668312,-4.392542386689124,-13.20678220456826,-20.80003143488963,-27.5337190475979,-34.25263346273672,-42.92683530334619,-53.99508440680668,-67.18954090795532,-78.86541170487456,-73.50984109613823,-40.32949387642623,3.339087901607858,29.404792195843825,32.96084460871976,30.605907249794196,34.58922408272055,41.248433892238076,42.27340105984113,37.46129240777889,32.22350200558945,27.933802436636405,24.574005381197445,23.934300242649584,24.15500101936533,20.473676829661247,12.731347198352047,5.554460646720955,0.2444658836972655,-7.4945595048427665,-19.426167282913735,-30.815960725670358,-38.96079607399904,-46.269326036616,-54.968472776746765,-63.55557484829346,-61.898633607489515,-38.635068499243985,-1.3148415582413664,27.13615662279618,33.882044047830064,28.928870937331567,27.87177923423691,31.875231550939816,32.448696524299564,26.675399037661453,20.57492197714521,19.19591097769426,20.56273927445967,20.126784503208505,16.56598567476619,12.90001313168356,9.008239016122246,1.889525029245586,-6.763384449596904,-14.894497850000405,-22.924639039006,-30.801798566507255,-38.771216160522656,-48.423423771860676,-58.61967270610611,-57.8210003959479,-34.13708677508487,2.2828387388268925,27.994721623867235,33.56694935285864,29.630830619771164,30.348073356973025,35.73768188469464,37.2553228962313,32.19843894213757,24.468718054339693,18.980208403700903,18.100238888385334,19.04038074674734,15.44903070563513,5.990764369798389,-3.6746953588255225,-11.26393974240325,-20.337709106574113,-30.30028573601902,-37.0713310068319,-44.4892072592341,-57.96936664956769,-66.87068216187156,-52.651661513432984,-17.069415401299512,14.819915763807991,26.591537663346966,26.102508704384064,27.498774920026047,32.93118668204194,36.13822632186073,34.50059727633612,30.2911902898033,25.572878956303587,21.570318112182182,18.315554957568008,14.077216739935839,8.044176256728193,0.23704406803950825,-8.613866382134493,-16.982773408588248,-25.020524309241626,-31.980236921142648,-38.20342876823994,-49.02796784690523,-63.325618196236874,-63.921984275756074,-39.537173673433735,-4.273463963183511,20.34675947821184,28.95053988328042,29.46671414272004,33.16755294171774,42.183018720718486,45.00632722140378,36.55945099459966,26.869873383860234,24.906566798931138,28.467999590392306,30.147525414350596,27.09640435832773,21.832748094609915,15.230506958727759,6.082674874829814,-4.081784925301022,-13.49537922523261,-24.093099997608963,-35.85059982495987,-44.406759107858285,-48.63579111392981,-55.27528586884915,-68.03636546027381,-71.49079915084413,-47.57475651635647,-8.040046929602815,19.326848634962257,27.098625637070857,26.266601610981883,27.050334123133602,32.45835869553598,37.65857059455462,36.68976821452168,31.821510668228548,28.79893161064954,27.71398504996803,25.55162475763584,22.738987185978974,19.483715953554114,13.537245334254449,4.993206970441158,-2.810204443554172,-10.07219092794988,-19.43233724102143,-27.857787418818983,-32.16760741150687,-37.0700365165743,-47.960815269321486,-62.72957898634749,-69.8459184065116,-53.68126857660162,-14.780097406212072,21.34547460052104,32.74939457724415,26.783703305088252,23.435916027127323,28.94353354246813,35.78080036263056,36.19440784414232,67.0,104.0,74.0
-72.04895382416214,-65.02740987394003,-32.36222559056169,8.079541652872505,30.946518913487154,32.493375592099895,30.711689043583945,37.37900310855787,45.80255644958293,46.31550950108802,38.72437285404004,30.53301876406997,28.257811821350156,29.75503055052581,29.612558147963878,26.390927875821127,20.612426081765804,12.438664401109923,2.6364922792003624,-7.09009311851935,-15.503568673737446,-22.822413904489547,-29.396929432755652,-36.48716381198097,-45.911514043951996,-57.584264882979014,-71.18219427488899,-79.92441483419879,-66.59220423282605,-27.397448261012936,13.500730776887169,32.20559629959516,32.05846272730258,30.999452678308735,36.67291565159829,42.33007227692849,41.25260413677978,35.81304708299191,30.939833618652816,26.785277214845582,24.080516804119835,24.12819064933665,23.64021531200813,18.476963546691792,10.414704709372065,3.9528054533951473,-1.526067528858457,-10.639406961861646,-23.01991176771742,-33.446250307363485,-41.0236177661869,-48.59676887152422,-57.71624231106217,-64.78909655834987,-57.541267983343275,-28.373985632274298,8.792220195506493,31.265309411645383,32.81914092103697,27.84138304862186,28.845047933392625,32.72719101550721,31.27817775922774,24.60269401346555,19.659208204129794,19.51696637662423,20.78617613611269,19.324424500704378,15.394567483559637,11.963263477389518,7.310955783791487,-0.6112700526589392,-9.161656622659377,-17.2126518435395,-25.225621425241894,-33.04910345316881,-41.30743792271921,-51.59857937569248,-60.26094401381364,-53.40010872057381,-23.872741393129864,11.659165494350678,31.502874354061873,32.64311544140498,29.02969495642738,31.80180706636361,36.8650275023014,36.374671375651246,29.998289339317633,22.480617872702922,18.25636668348695,18.459143106429927,18.698169131764274,13.138726915002394,2.956698420308599,-5.9613556648012525,-13.600954984431379,-23.348849493016825,-32.618842691383826,-38.75889512730501,-47.84946314175239,-61.91850078481652,-65.65465226531613,-43.69091965426668,-6.286698555382456,20.32740449501103,26.97995282559329,25.929278202548524,28.898559435382307,34.33111376989766,36.112323501411865,33.420109529626664,28.927925465211256,24.29406144616244,20.619826195783116,17.25875529750593,12.519831755175213,5.96877653169211,-2.2936464807933574,-11.102786024368402,-19.328623812742855,-27.211846795433154,-33.69133910274365,-40.6082160328712,-53.32559057090714,-65.80954092305565,-59.284679623121434,-29.36718066989421,4.547183152219246,24.27131656589331,29.42442991657903,29.803375021738898,35.58212151070804,44.19049757969024,43.472460188306314,33.3096862775595,25.399478022054595,25.694415656283855,29.4171752169441,29.68741197994105,25.68068453752233,20.127721370541696,12.850199245745964,3.1157180763667753,-6.851530445793209,-16.324034791414245,-27.529555491556295,-38.838817837023015,-45.909002716345974,-49.90059837739834,-58.61036359678916,-71.08910082415092,-67.56345772933669,-36.45109570704646,2.001940194856081,23.241785785190824,27.177280438791424,26.042182630391228,28.216719943867442,34.33339388737986,38.09296012628216,35.389996860532946,30.613119027697397,28.445517414424405,27.250116513315124,24.73596700839037,21.92450745976159,18.129465390574826,11.204604721435198,2.547662125160208,-4.804983893503232,-12.565607987299318,-22.21726383376115,-29.45960791428328,-33.19163749545839,-39.5251191003583,-52.156386071604494,-66.30564242247523,-68.06235356628582,-44.003090607780024,-2.6639696438538887,27.43165166242707,31.86159714178671,24.90262639873059,24.30688418997191,31.22109639075484,36.73838579203857,34.90598114051592,28.515968276233647,24.536029865111516,25.120199780093895,26.035841296261417,22.188062885564186,14.7486159090313,9.232823217027297,4.822867645572058,-3.3144960810494246,-14.31052949950355,-23.244902029007687,-29.23352830360948,-34.82135748078199,-40.44921715764949,-47.375982208953154,-58.51514110296826,-65.1376599941513,-49.22884740386257,-12.589089487474052,19.14296559832871,30.79662146440696,31.393804913849454,31.83409365889526,33.12100087216996,34.5550034643402,36.34933986712296,36.35930326809996,32.64660526383253,26.72034849458491,22.430844657029617,20.69092890286089,19.497949532642195,16.735285633463715,10.2591038616039,-0.9446511881187741,-14.624495744157253,-26.422123137419106,-32.63967338943445,-34.199275449450234,-38.42352490039868,-50.469510711213815,-63.32032100240419,-60.337586721826845,-32.87683465082687,3.8595180986839583,25.398715883005234,26.59184083840217,23.34042470815529,26.584903010731715,30.65641018294549,28.704048643048097,23.4095845865939,19.53669156954089,17.983780266558934,19.086118129157068,20.91603241853233,18.427482382454276,11.211947636171514,2.7095702814437366,-4.565479140000208,-10.908465444843413,-16.90466814150703,67.0,104.0,74.0
29.61716809923289,22.70983927476504,19.19437094334698,19.958273511617165,20.748561699770814,18.288018046491757,14.312061195096744,10.928272667283474,5.291760979019926,-3.14146084197269,-11.507572025984675,-19.536230229402975,-27.505559040418078,-35.31903200326598,-44.0431035110189,-54.7295683768599,-60.57019176784651,-46.887019034250436,-13.075318738302606,19.579910445494153,33.32470676780145,31.344997388984797,29.089708662039122,33.465957231066184,37.46545005511896,34.96901921562161,27.709058440829608,20.78620277360424,17.944412469951615,18.83660823243666,17.815899370177487,10.399883584593937,0.08334724081883774,-8.111042511098802,-16.17178816979829,-26.325666904987433,-34.59394495909508,-40.714539288171075,-51.773352815461436,-65.01592695527326,-62.09018302246513,-33.31044049248321,3.449132660920145,24.006030300748886,26.739897537445543,26.20108493779228,30.530981692824955,35.379855748010534,35.68719644860184,32.20572288859733,27.55005114902198,23.11038216728,19.704327586286624,16.074343425840496,10.809732514998196,3.7427763714106304,-4.872768051234091,-13.524620054058573,-21.666277664120976,-29.265006818564817,-35.394699992235545,-43.58221377473445,-57.7233660405673,-66.59279084377386,-52.50237368062187,-18.884416083014287,12.039320977861198,26.924770827868354,29.48405582659872,30.689207265599347,38.32159098265776,45.31199087560453,41.05683459839306,30.301744960788284,24.695304063256277,26.78090919110087,30.027637248854813,28.842692648465697,24.166957118313658,18.28306234041904,10.235159387966434,0.14178620999214622,-9.547688948670695,-19.33495889965837,-30.997773663111488,-41.43305754457797,-47.09310458858349,-51.61456536816064,-62.42647686625862,-72.75443066038706,-61.06473989514996,-24.68870170177299,10.397109523620163,25.640828977662668,26.869608691018634,26.143478073025882,29.767210548998086,35.996578016099896,37.914230921910885,33.919048063710854,29.676921384310546,28.17573678546185,26.641958187134772,23.914726525649296,21.042911089230945,16.483550583337312,8.70882110491814,0.257066656283815,-6.833075618104321,-15.27398799486305,-24.774509339045956,-30.704038464755303,-34.45730060984459,-42.56215830796124,-56.544077679205024,-68.86351577602427,-63.959621236601926,-32.71543465398639,8.401544916068573,31.144052039864597,30.013828792040517,23.686587814236812,25.87219350061326,33.35576618993502,37.016823109750504,33.20486598071883,26.885398967534915,24.327291430746513,25.630243578764464,25.52152100119445,20.155053930036367,12.808981376463905,8.091139170527121,2.9640949279585334,-6.413637498781853,-17.26686542024955,-25.166614025731732,-30.815861530128554,-36.46487867970143,-42.14320401022453,-50.200426798123544,-61.7238410381121,-63.39348739805894,-39.86384989013376,-1.733023125852983,24.505497507038623,31.436468806942777,31.347619636284755,32.19841965136781,33.48569248586319,35.08740643247607,36.663321704538625,35.6822961770158,30.992744382035195,25.183803631321602,21.732185349908995,20.39121822117915,18.950519157652458,15.337152643060513,7.476031431672004,-4.820373409468245,-18.42812566944444,-28.87971043152811,-33.338979761090634,-34.75923315083663,-41.1415333275849,-54.751387766849014,-64.82304113594219,-54.717886074198475,-22.029549462115757,12.409427547628722,27.350509726113955,25.295108703428614,23.619198486987354,28.129922623233636,30.759047049159538,27.244134688551355,22.04664419069782,18.851055466356698,18.01687891990946,19.765316138440713,20.793893362129214,16.69102781187049,8.73807511401264,0.436682267004449,-6.430043233110653,-12.70550237710945,-18.445032732291992,-22.88484898662794,-27.645954084566373,-37.23788293692014,-51.32386904864689,-57.77728543645846,-42.96483659369598,-10.148903456091665,20.23310320112468,32.612995232616136,31.110612942048657,26.938188011312732,25.74782129662878,27.500630192769417,26.35595671793739,19.72501697774359,14.195685017377476,15.327156478823262,19.273284681314742,19.10458205258725,13.51175222013368,4.4376916970467875,-7.411827839045691,-18.92791417895071,-27.4666300598633,-33.26913447363779,-38.55387427791339,-47.983415510076114,-59.55465470653458,-59.57668979619513,-37.35500731245842,-2.4563095807829263,22.66740839796345,29.033102443725742,27.90291152079451,31.236083393736465,37.8249679403042,40.37929435553685,36.5448746502292,29.398355761044876,24.375345323793297,24.653248899822813,25.558986312332838,20.279672052214504,10.377969534349807,3.6036899582583573,0.596496208851507,-6.5457142463901885,-20.857453042049798,-33.423324964942246,-39.16260660579894,-45.01735722563954,-55.63396671022327,-63.7763589844743,-54.229650171852114,-22.92148791993671,9.311993766918127,21.54362514946885,21.246733170846486,25.332502904551106,32.75205026485373,34.14050228528091,28.91553810386885,67.0,104.0,74.0
-61.74767586684641,-65.28815372278154,-43.94054073832353,-8.710351618915237,18.065297158182116,28.512072546067316,29.438121706989147,32.23520738373388,41.041948073255035,45.360315233130756,38.05017620550703,27.800129606774235,24.699945040876383,27.95416522781116,30.213493534850997,27.698531090730768,22.585701789824817,16.246077112592598,7.4254845990065474,-2.7710207597514533,-12.235470239588611,-22.54971390887327,-34.367636967976246,-43.574269822113166,-48.13805999645976,-53.958885526359914,-66.3429604148021,-72.43470505096886,-52.264682997787716,-13.108840298040139,16.937964703476837,26.848205170830653,26.44198927467311,26.660587898812672,31.58045178039226,37.255857500916896,37.18103635676516,32.4533823718834,29.02000371250389,27.881744996280784,25.914434391266813,23.1079349620836,20.022099116186546,14.532863527688113,6.157683899278226,-1.8715100643211293,-9.0020950757272,-18.11422148589451,-26.979703340581118,-31.723835666197246,-36.128796738136806,-46.147387340705826,-60.85729271803938,-69.95516303442069,-57.45637157774633,-20.50288723370026,17.74983667089037,32.673387959211354,27.789668863726572,23.312086284553587,27.912552486865835,35.13209142113987,36.60310398436274,31.287759209837393,25.615839453167325,24.481289840908744,26.01349834361474,24.510914431312916,17.940260518853492,11.16135926177851,6.917278383624048,0.6951175728072723,-9.649252109618228,-19.93008781129415,-26.890768009737943,-32.42434552301508,-38.08841292138377,-44.025574778215145,-53.436483090838614,-64.14631859048977,-59.33475642330772,-29.146883710416525,7.963750577816601,28.103401136150108,31.54746167112201,31.445740708357526,32.581582576308456,33.87882392406512,35.6389026363884,36.75259942973968,34.66772388641106,29.234912067218573,23.878085793600203,21.221011056554033,20.078725876351335,18.225914402175707,13.571445158762765,4.296617400632341,-8.812488965296826,-21.960926358435046,-30.79751641793864,-33.73839934363764,-35.775432256986626,-44.55823569990786,-58.79018349009733,-64.54415372367747,-47.02522190168289,-11.033834436565487,19.145459177341845,27.767498365342487,24.133399004917894,24.52479663977902,29.476842448636024,30.275914735498866,25.659964105138855,20.87975629711006,18.35078882175524,18.29647787009829,20.399672619478366,20.19015321969808,14.623936281802612,6.244824164873992,-1.6900739246171326,-8.258096548141994,-14.464817461531053,-19.860373314717208,-24.05413916178742,-29.740200611302704,-41.169463613946675,-54.71877181040503,-55.97645991691211,-34.61257889239625,-0.1181808954466631,25.838766441897366,33.053206128501174,29.817636198942786,26.16882313594464,26.136502972115544,27.753914524134625,24.852377320646365,17.617929183197376,13.836545356597767,16.52885701846955,19.839851940147245,17.950199420023527,11.209291766129692,1.2302829637179633,-10.962485626283145,-21.71677952626452,-29.38797381594257,-34.651956648047566,-40.70208307284409,-51.54656634015065,-61.47094555791927,-55.47116533458157,-27.60701535529169,6.658266744377736,26.203933778112795,28.75861928067985,28.203646646590787,33.139087741892084,39.219994624042535,39.86082348619514,34.60552544032419,27.47802226991884,23.962151529854076,25.217302112604212,24.816167516659252,17.556339484125832,7.843916817128059,2.6171791029842546,-0.6736854279493805,-10.172722457402143,-25.153936492064755,-35.61953821140685,-40.45497124253035,-47.67169595918872,-58.86652534947831,-63.44871197992433,-46.92421623710471,-12.399533674224298,15.138171158691458,21.82497149240046,21.62521001679318,27.607995887174734,34.005887625224254,33.103738280088336,26.942161699374946,21.192131473248384,18.650999538109218,18.27532452061042,18.58640602365713,19.554556818432673,19.368730667033603,14.128633538020607,4.04090498413028,-5.3358322495597115,-11.397552638295227,-16.904870724263198,-23.277790074206518,-28.981344267310035,-34.43297601425383,-43.140788030649816,-53.19918756723334,-52.58997059851054,-33.17912306052358,-3.625189913412468,19.783910578156256,29.194328920904834,29.150754175350052,29.005647379154986,31.8988687531201,32.98806507074641,28.632026296256605,22.03447652644434,18.892088419598537,18.960740239187526,16.78272114345965,12.379743416691024,8.595667243630393,3.7459161452969347,-3.1265018592890503,-10.32581295841015,-17.29775157929042,-24.1101609854167,-29.698143702713697,-33.829872726800005,-39.59175779819214,-48.28283084516368,-52.48373635372997,-39.72519910119178,-10.073544299365356,18.47279170843783,30.567670806763157,26.823065011898,19.813423883869298,20.404660917877084,26.183046507085223,26.296311779321453,19.03687150756163,14.030230398119228,14.292687434343637,13.568399114466507,10.891518296668327,9.111665961087795,6.618660745131686,2.418953191460223,-2.100058987588301,-6.83865936684838,-11.39223112688696,67.0,104.0,74.0
35.56213813581952,29.358081021609102,24.77434805122826,24.887177974123748,26.117642770978005,23.01831840055291,15.724138498741624,9.792784384002696,5.553035947113519,-1.970372515957064,-12.870240387702507,-22.270182690368987,-28.504688751970043,-34.06161543576024,-39.6990877594613,-46.224956422129296,-56.914392387847826,-65.23166109601922,-52.9234725722405,-17.80887824464741,16.03840601427718,30.217857899291033,31.44710311194494,31.68660978422737,32.953871764335375,34.32699889415295,36.148751644838484,36.557253745215775,33.34461213435373,27.489647765130883,22.829377766163546,20.83976681170294,19.704186489725206,17.26998799676076,11.401234625804676,0.7738954508119461,-12.810449799749536,-25.118193705569652,-32.17452658425956,-34.034556691811304,-37.42174321529912,-48.523378920367904,-62.138828779483504,-62.17831452122012,-37.632374983392054,-0.5913284943003336,23.883855310500568,27.112198248507546,23.443445084912746,25.87855418145956,30.408382668968528,29.29023084044287,24.094499347668513,19.91552823397186,18.04913982494564,18.79838235853428,20.828955199189597,19.091115601757558,12.324311507056125,3.802275276514278,-3.682537508737827,-10.07394980917479,-16.156217778933264,-21.153202239431025,-25.327006716689894,-32.3697556792351,-45.36705063488763,-57.06394722962893,-52.13535357175613,-25.069983267444805,9.111523303334828,29.72960290766367,32.629416826294964,28.533912976037488,25.735906823302287,26.70455881321454,27.579040889395266,22.920376625288366,15.841983309888729,14.087354583856314,17.778831876522897,19.919710829609606,16.386144481890877,8.651256794621013,-2.19574147508923,-14.368497307979908,-24.236735037176256,-31.092163160750687,-36.08185509687799,-43.32451091751062,-55.11216618643855,-61.9958451290993,-49.37228553158204,-17.277793597817325,14.391760366408148,28.199812379744085,28.274827657801445,29.065457183567474,35.14717414223804,40.10937816136081,38.824288685209076,32.49657419257155,25.886404525889024,24.011522752559934,25.63483950926365,23.422184314204873,14.605134594014956,5.764249254996276,1.8385645735278535,-2.5308679659216997,-14.344177239199047,-28.99145256797369,-37.270856801297796,-42.001309075933484,-50.74461512795493,-61.58944041991759,-61.23331409646676,-37.92880677334143,-2.5504842342211176,18.990079830013084,21.555019092682187,22.68120970088308,29.91872602092993,34.56781098324629,31.608843829580234,25.02589075869105,20.124693772893117,18.411105940356332,18.311157347911593,18.809875630530858,19.789943871072204,18.504160476558283,11.510863177488021,1.0150071855572718,-7.362393932939536,-12.901689731588958,-18.70223186843281,-25.06041371089593,-30.442708701161685,-36.4973862082716,-46.29612382961885,-54.736831948372576,-48.852266147253474,-24.944941000386006,4.370235969238866,23.94209970541011,29.726620081815334,28.791996564387023,29.647400293228735,32.674189435190705,32.27166057154817,26.679715503921447,20.607278736013118,18.81900998604921,18.72438082229845,15.55942411418018,11.220406042389639,7.424697544522494,1.9059500611223072,-5.236680748606714,-12.34691647875476,-19.308061069132727,-25.912901460499384,-30.96038094061349,-35.15731910852165,-41.93433431710991,-50.52753702746635,-50.945368286686005,-32.314931265904804,-0.7823086127060073,23.94453714628919,30.695565428360595,24.475966663230064,19.024559072421088,21.9973211790633,27.18618447734324,24.61381051547562,16.954889118703264,13.791086137323022,14.415062264863396,12.826165039784108,10.273406614895395,8.59120417355161,5.5137680793034,1.1241177031363412,-3.455474035084328,-8.179422697182464,-12.744360011891748,-18.401432308286843,-26.41661166334972,-36.65366717571443,-41.39114497815139,-28.392994218781773,-1.650086964839172,18.757925456669845,22.540976291592255,19.504794588473068,19.032840798984807,19.725280171230004,19.3102552012542,17.892332919643188,15.250421490565545,12.132179072612065,11.452347992396056,12.854985387097997,11.981514595863109,6.780454893796936,0.22519561109993472,-5.365086131404309,-11.79136008747002,-18.769048117037826,-23.950363745796587,-27.594933012006877,-33.753865283435616,-41.815977473062254,-41.1691531922185,-24.031965042953512,1.6430934992274648,19.37066682867055,22.395460696599475,19.55574316442504,20.32956936697901,23.838442617008123,23.621867138676283,17.43326892218383,9.931044163799053,6.75764168013573,7.347286386219567,7.271112455211353,3.3935183840649956,-3.5801998974860476,-10.219289619647974,-13.741012039050485,-14.465226566526303,-16.633531022222872,-21.237960651656106,-26.363169405788966,-34.291536712513825,-41.122210636868445,-33.04467996405548,-7.771385899575387,17.243814992016883,27.938575390890694,26.90911591131443,23.591977536260213,24.10875227960064,27.059084602937343,26.288764153395622,20.84615957831721,15.930554418863535,67.0,104.0,74.0
-17.749797999171264,-22.350503055084324,-26.833819731677835,-35.57541620869909,-49.524654723648574,-57.95317682368882,-46.28572970445675,-14.890586581038864,17.07854092528828,32.02556485201497,31.66245988734032,27.390258336741603,25.664447207482553,27.283070254547507,26.871533063785296,20.74574073400754,14.575937082977665,14.84791707590981,18.871817457542434,19.47918637019198,14.485285795495228,5.829452037443075,-5.756004228401852,-17.549697833853966,-26.503030947422392,-32.61289741169974,-37.702313611909055,-46.421388977203186,-58.31504034758616,-60.786259477891285,-41.48886127405943,-7.002776081111481,20.460961504205677,28.976191763060584,27.935486210840832,30.452722102663163,37.043563515695354,40.42859365973421,37.34756565754102,30.35545666726203,24.737026912888183,24.404187457331464,25.698159841108275,21.39769522779603,11.665705018986229,4.1795969923335505,1.0400744280272871,-5.106133975123701,-18.796793806004768,-32.18667201936796,-38.59384783380513,-43.95570505167088,-54.0768721973624,-63.38252528236282,-56.92821901393825,-27.79008537297028,5.968124470929341,21.071214908467148,21.266112644550354,24.379918716756187,31.966396994575486,34.426655830168855,29.80674790040478,23.28041591909146,19.344959490799614,18.300492829068375,18.384203762414984,19.097697355876907,19.846872345418724,17.11693805065774,8.571398472812277,-1.7916065892367188,-9.120142041363279,-14.456566862784252,-20.5610625764935,-26.734948243225173,-31.941558826836715,-38.934578763419246,-49.41088733061996,-55.00659971695968,-43.482922042596485,-16.245046833312184,11.466055352691766,26.871408940344885,29.687357275068894,28.64636914136429,30.518548880498457,33.12887014692775,31.07249078549135,24.68389273819593,19.599317629458884,18.908558840357596,18.1657656023921,14.245101924299323,10.146828173318973,6.081944698829157,-0.0803727696802053,-7.327764273290965,-14.3580788560772,-21.298894049068974,-27.5730721927603,-32.12319487114934,-36.73004778167406,-44.49880042891147,-52.11041410093229,-47.68425551957287,-23.717963252987733,7.864553349613181,27.80211989598756,29.67585292067062,22.2396894722571,19.04323217584887,23.810780311001885,27.43363698175805,22.448198296413853,15.342190129661867,13.911447329256257,14.27807954014185,12.005849688924231,9.769966097796068,7.925321414132169,4.293394121030778,-0.17294771185971117,-4.83266720308732,-9.489500335998677,-14.192404121635645,-20.435931029414423,-29.26543778406429,-39.20862153024708,-39.73742352381193,-21.313031913366586,5.7710469883945095,21.402031967336406,21.7254694480002,19.026475232568405,19.280678983571427,19.72905827075834,18.999185464275914,17.2716327393665,14.284699070371772,11.584125967160844,11.810925951329846,13.022258332594424,10.870527931136055,4.832149766168494,-1.4467373325822628,-7.065020374003106,-13.856667997692927,-20.52747019082121,-25.019301126432694,-28.948222054629785,-36.211682205480095,-43.09055364361927,-37.881473080055216,-16.770382355994954,8.209438946895437,21.583705104891894,21.60600774602266,19.244964427388933,21.332699492966817,24.40321921760485,22.346234578935817,15.090278818369136,8.451538348155154,6.726017581715059,7.581428714784368,6.598265141982078,1.5584553858501087,-5.683195901819376,-11.63316965818937,-14.08926582968645,-14.76358730990701,-17.840482399926888,-22.628783366623516,-28.27461121383269,-36.92284080523597,-40.8588988981536,-26.98406851627672,0.4060926598071272,21.968146175717838,28.43855214255579,25.80176875297813,23.249846725288762,24.97187249260653,27.43243024881619,25.020150303775356,19.11519791451631,15.281311121819712,15.49150664802443,16.25765924725827,13.720900555380423,7.121138419016715,0.36148084542960296,-3.285654502440922,-5.770195018125374,-10.807710561925969,-16.654249906804417,-19.15287240594292,-21.53499192758062,-29.927160208067058,-42.799365171314264,-48.55829201547126,-34.73257753426042,-6.043580636748073,16.890974162134064,24.062787899395495,23.569374834273905,24.131251218398333,25.683943410028416,25.07391712760378,21.646869093256885,16.152195606437772,10.527098188190886,8.041647643807046,9.800915863039735,13.475636403878108,15.639629601140605,13.39397402090568,7.842281975956963,1.6525107818100504,-6.078178219071386,-14.88767512670364,-22.824911851103884,-31.63904424548617,-42.25938502297508,-52.44741853934067,-57.67484331615105,-48.30963809683619,-22.894600696045796,3.7375169235383856,18.809029203777264,22.489727646478183,21.736009976787532,23.218870085786424,28.142826630266832,32.047888039940936,31.762658358080696,28.874034014406753,24.61189840090626,21.073359366539684,20.194842817797685,18.73629771584663,12.860052814459376,3.5668915392867167,-6.5377693486005946,-15.661228666444188,-23.286980505625955,-30.376628757430527,-38.455333499895765,-49.53777250611718,67.0,104.0,74.0
27.852829814889375,21.784838233782235,18.81999117396544,18.271278279120367,18.507696140100578,19.415178435253782,19.609249623392866,15.189215780985347,5.474338735347201,-4.294097242390798,-10.700146568021875,-16.107661357459328,-22.42914163736079,-28.293960209483803,-33.59047182797971,-41.74288596434102,-52.15875078493762,-53.73838892463379,-36.69659092943195,-7.5297416484674065,17.44196638245483,28.68498748313188,29.34276391358358,28.814021649851508,31.47565888632192,33.14654108903374,29.471755354350307,22.812328062981962,19.025249509596946,18.98055440865554,17.282627568065248,12.949519249877946,9.096034104614153,4.53138814463363,-2.15542984063132,-9.386811361460317,-16.36956940665372,-23.241235585856423,-29.06653165431476,-33.27389806465309,-38.61309874677791,-47.12003332858441,-52.66853766049712,-42.63266037126403,-14.432772125372004,15.435826267008812,30.047296601001943,27.84063728085819,20.433299584325468,19.82568733847466,25.519588229021494,26.841705146092227,20.097263190401605,14.309799636705996,14.178774539816345,13.851161972330798,11.219848551822448,9.322510894022171,7.074101195515569,3.0151965944496237,-1.4855817538038398,-6.2100257273662836,-10.78774949062975,-15.778030378604386,-22.688821212167117,-32.28606287569853,-40.98569469595073,-36.34013544587373,-13.429175140522384,12.103423116795737,22.63574761211123,20.728564415300788,18.861854270145727,19.52060849823852,19.62512507982663,18.612459091750324,16.532335971999377,13.326164528473544,11.321996928890078,12.26928534210467,12.8799465547759,9.39844486801707,2.889449684828914,-3.036436928976064,-8.897019568412226,-15.915715644351298,-22.077097317995275,-26.014604664637993,-30.63783173355522,-38.70886560715004,-43.2963514480377,-33.1427906350217,-9.159415506125718,13.700870666488752,22.58169187524828,20.65964101113259,19.383224035439678,22.43640083728238,24.490957328064436,20.593414915495906,12.808263000484086,7.4389120669406,6.917677038162132,7.648826906500642,5.5543125168565455,-0.46898984528735704,-7.6708543344646465,-12.728395086398193,-14.261502187938454,-15.311825023460436,-19.191466538660638,-24.045831628223144,-30.52238679119679,-39.21933565211442,-38.96787619403287,-19.67049564455057,8.003731437433201,25.319757189695387,28.16618318800343,24.735781522075087,23.32167352204671,25.91723538216728,27.33675833280368,23.432322882956775,17.58320901949129,15.015462746474757,15.857226090351519,15.982556552076321,12.134739987359094,4.954060430219082,-1.021504235020781,-3.9292508178502246,-6.8919079708103,-12.661700400792522,-17.74539952673666,-19.532086631503645,-23.202649527361427,-33.53486380971322,-45.87674256149468,-46.825789957184696,-27.16494964034805,2.033490350916877,20.452159759452535,24.17206182980434,23.476438910496356,24.634019020817664,25.816397786615653,24.34449572142776,20.225604841272524,14.400981294874809,9.360510868423866,8.173114411731703,10.807687020626261,14.420155264124558,15.493223914871901,11.969984368332007,6.099120992015818,-0.35559622262177626,-8.639625502615111,-17.260352394849782,-25.160635550879768,-34.592124653065824,-45.369128000485695,-54.81833721736477,-56.881879262072935,-42.16822920522756,-14.532917477999824,9.495019148882694,20.790437019287857,22.376624393382244,21.74577185253269,24.416068199806666,29.617259245738882,32.380802648396454,31.101816382604877,27.751202189203276,23.35812981493308,20.591488786679037,20.06980265126297,17.536628073311824,10.3989028972744,0.6357080210014538,-9.329375284137786,-17.99673077109914,-25.329458816643307,-32.525684594452954,-41.275062916188304,-53.38504190258704,-66.64206966973174,-70.83039468825686,-53.54724310230857,-18.02385849443956,15.57262766908363,32.354621280376925,35.37588755858339,36.23133993597299,41.227424904541465,46.90742212734012,46.004855253004024,36.453564878201725,27.017238119101513,26.537784837814396,31.15577089883344,31.135144309971555,24.501719304162393,16.018234248691115,8.15612718312552,-0.827579805958078,-13.163215717332182,-26.937055532080123,-38.43095318492364,-48.30010810871663,-60.68390367288286,-75.42003056994191,-80.37667712858293,-61.128143319318816,-23.552821962417095,9.233214103227384,23.35182920810258,26.60219359850968,32.36999784771565,41.71212503663324,45.59891738179837,40.7259224322867,34.33882777559698,32.59636564951958,34.30498303429325,34.17873712504863,28.555942083212166,19.49049256827067,9.377328271737039,-1.6940196735910584,-12.076469990576882,-20.506936878536532,-29.74727210609438,-41.93723256495057,-55.635957123350444,-69.74153668327685,-77.80609473997177,-64.8076443593596,-29.210270565460934,8.56909000634829,29.868443191360097,34.55632940987147,34.81455473266557,38.81336184005666,42.51241300150155,39.77012707242231,33.13089859758908,28.584074205627413,67.0,104.0,74.0
-12.111944240987985,-17.530985511661783,-25.182445405546872,-35.31962448343507,-41.59707439821694,-31.24986397663074,-5.3094611960661995,17.016823977510857,22.75613920170702,19.832825608196757,18.942057116373345,19.68509935304579,19.42836706710661,18.141677493572164,15.677130645506342,12.467649878913619,11.351567073598599,12.70067431362535,12.358744024396698,7.6494914539273,1.0369484234541804,-4.61737359353314,-10.855769784521941,-17.8987468821815,-23.40597470760818,-27.05937612146038,-32.694642237862894,-40.95635391229118,-42.177373017050996,-27.141844456682637,-1.6561019824100267,17.897927489493398,22.6164748179999,19.835706173202475,19.94884144325355,23.451651095161655,24.02721517330442,18.483792691442126,10.758323417477664,6.880029389733384,7.21065073526134,7.462328772663807,4.150126343239419,-2.5936668262245033,-9.470773969893203,-13.493217346823286,-14.38564760698235,-16.152221683441788,-20.592690302125607,-25.582390727487912,-33.06318048946075,-40.77264704269677,-35.31363941518733,-11.595812295361538,14.610655518787269,27.379033818582855,27.377767495159613,23.879882524832382,23.785030744669385,26.757782601686102,26.732000385853446,21.67226231701661,16.36508091037484,15.06597766157348,16.153944401263676,15.351022661370695,10.234411573675672,2.913032454376254,-2.111688096581012,-4.575315726476886,-8.305345589080884,-14.453483143983755,-18.492327516455383,-20.071875005526266,-25.4967908457766,-37.37558784403213,-47.986595633211145,-43.21240769998878,-18.721166567769057,9.069041646445589,22.68027093082296,23.957511124075427,23.600272257171017,25.1394764675412,25.70253097523188,23.39488451357647,18.648549246797742,12.707774035718645,8.54081967802691,8.643122061793518,11.898446509041726,15.147836918206206,14.924810822399744,10.354319837298533,4.3411101727226455,-2.5494878251088435,-11.22519842421659,-19.538663036341106,-27.650933997348137,-37.67117063401017,-48.382484080711464,-56.624666771940014,-54.578665860852404,-34.844530894628996,-6.541767790877273,14.10115684658837,21.937240615280796,22.090840517829214,22.077474746293444,25.85868466518831,30.85793879417171,32.34542196104035,30.28980918661536,26.516422839103786,22.256478749742573,20.338899134267955,19.7618425170735,15.91350374392846,7.72283392479617,-2.3078173220477196,-12.002207490431804,-20.21158468286889,-27.36066454576258,-34.79698050612342,-44.40169223977219,-57.386122177407024,-69.42284193072878,-68.34186917240628,-44.432936731599895,-7.153438481521037,22.331887643958275,34.15691681241996,35.371232805912385,37.24982416926308,43.1148861077692,47.60244565565299,43.93067530869345,33.16426841073796,25.860596563307737,27.816199767162406,31.922156198219547,29.729263110770958,22.034556781984232,13.700715118608992,5.811193831092671,-4.030184998130793,-17.19310474248839,-30.573205813464345,-41.283794590280486,-51.458759966791604,-64.98559805975484,-78.66230804203333,-77.55822319814953,-51.25076826248382,-12.57830382343972,15.24905619785021,24.702120032912955,27.666575739799335,35.026244614484526,43.785335123422044,44.8973561133544,38.631916109561196,33.2852944351149,32.932680734653786,34.70855202185646,33.12968195177854,26.114095435947256,16.669704222553264,6.246216669544998,-4.875585641444916,-14.664585833268443,-22.916504280756225,-32.996059233201514,-45.80800380928392,-59.741944435143985,-73.29824365063176,-76.78015421984001,-56.21374731962568,-17.423694160500446,16.79595829085691,32.489953173226695,34.51110532219658,35.55696110540533,40.28866326603188,42.45256588203547,37.939260481902046,31.473657321218898,27.716042644321437,24.10553387769778,19.231733326710497,15.15766458321773,8.787048158724856,-2.8151985571096807,-15.538107622613394,-25.31655840683411,-33.452662542433586,-44.397319276847426,-61.32173897506073,-79.56709815729516,-84.20411533823346,-62.54242465834101,-22.69826585029438,13.54926040870261,33.79104664450318,40.871079766737274,44.00339506907994,49.580702242141015,55.338551101517794,54.44348016094815,46.847403899529134,39.72105071026259,38.03068323688241,38.686245229687366,35.65088905156521,28.712592804578943,17.598942326718262,1.4852831293140936,-13.588295399413735,-23.646042947312242,-34.10381612041374,-48.475504804376136,-63.73529765255133,-79.34685552385626,-92.57765518846007,-88.17877156506819,-55.72663941860042,-11.514269663953966,19.0269058711155,28.433844194360972,28.28607033565293,33.14481210432858,43.0561492031077,46.700235739531635,40.04941503308003,32.44897428870686,32.870773773087386,37.26113402777439,35.68709094563562,26.77267674727877,16.739445563012204,8.156386645829,-1.415194564174768,-13.315697916359364,-24.795860540870738,-32.496492151737634,-40.86547651041272,-56.680706543022055,-76.32146935795616,-83.67602495848799,-62.47429416064606,67.0,104.0,74.0
15.53079017509714,15.330103998645463,16.281068693220586,14.326891469786174,8.126319402747978,1.1013634757574833,-2.9568138464171674,-5.344536039399276,-9.976165544528843,-16.031194124873064,-18.978133339630208,-20.961668820973575,-28.403903386500584,-41.16416001958132,-48.74994634829225,-37.782915021498354,-9.994212530672664,14.759864470292397,23.819664252108655,23.672496164799146,23.92782225764117,25.55006381864773,25.330389429578617,22.24247020575555,16.95594238657764,11.163540982569849,8.10813358461121,9.386670758908354,12.993061213161711,15.5693008033207,13.957547886316027,8.643256390885586,2.5257531432072704,-4.9292582168161365,-13.755193294717781,-21.781092167098066,-30.33522871494476,-40.81030386348593,-51.224250178554534,-57.59393177584969,-50.65518350162394,-26.75330531122182,0.7144389671125811,17.570268719267865,22.429698624213124,21.81518650125539,22.775085305678044,27.421847941105234,31.761390972240186,32.003251597397984,29.349620858799476,25.21426384438137,21.385260790622887,20.22970526325638,19.14773488439262,13.901529784515724,4.900584040493748,-5.218381532856431,-14.538990128020014,-22.332126220739994,-29.41349397785037,-37.2479622142483,-47.84761340177907,-61.369455025272465,-71.10644397982927,-63.79412882048919,-34.113120442277356,2.974496607914656,27.49072328987459,35.04855861468112,35.48521621233659,38.66181728341512,44.89865052040304,47.56231339554912,41.18233302336041,30.201857659720467,25.582997906261607,29.279324047673352,32.085465651797946,27.836458176348334,19.54876675331891,11.444503023218765,3.2978128531641664,-7.550127865454467,-21.237939769593577,-33.94660255477484,-44.076202839700315,-54.94222877171396,-69.39949052110508,-80.64868295650143,-72.44820221945764,-40.26407792666332,-2.631021547018535,19.57818424706642,25.530097673455337,29.205441283405907,37.8492453866799,45.13882384643323,43.517552688710715,36.65571352850134,32.69665329606021,33.46538327274371,34.80853675534486,31.580005607994654,23.493153773735116,13.77481512295449,3.0379911560412896,-7.934292865963393,-17.088598053547265,-25.504157261138058,-36.49446045127192,-49.75382911609452,-63.87948935141678,-76.07468091501848,-73.58285394379877,-45.967509818364135,-6.094395338615188,23.335849166099177,33.916280190164656,34.447455489282326,36.69629693151493,41.52687985108357,41.7624139363295,35.94576018381863,30.110753142226073,26.84403875033143,22.719783401633993,17.978637080507156,13.80370803285894,5.901344856070145,-6.6452562703160565,-18.703682411569496,-27.669253878872247,-36.11140781906511,-48.67238529896683,-66.95666725034638,-83.10197688332921,-80.76347237882918,-51.9760604012161,-10.985570860696315,21.15017444985182,36.81028370518917,41.7792840764489,45.277704208120106,51.546272408224645,55.962606402814245,52.68708676945997,44.395905215535855,38.64943524675024,38.29963891667388,38.3136735337024,33.970690845541334,26.04989963092054,13.319241609151424,-3.336600451592256,-16.89672964205262,-26.309627400848065,-37.93500850368788,-52.916887653724196,-68.1462683254634,-83.86398894205475,-93.9580953526513,-81.48979365524013,-42.89364846105728,-0.5068872767633261,23.66748222817099,28.601351569603914,28.81360972914434,35.93037625076527,45.21084667537575,45.61639500540329,37.37654478640007,31.660858220231162,34.20615148562499,37.71735498072723,33.63169007808768,23.73551095958292,14.176014543847971,5.617773550579723,-4.655433714167925,-16.889799618308547,-27.40075650978754,-34.45083584234035,-44.57427558106264,-62.46490143301404,-80.63933567170584,-80.74330604639133,-51.408913874341636,-8.861282472369862,20.59854843678086,31.000728246734415,33.60905732574008,38.405621779474416,45.40470628438496,48.3925117502541,43.254007894230725,34.49318430500072,30.01029428044286,28.54130679403363,24.787627854458194,19.347860457683215,13.639113719569188,5.166372665506608,-5.17788809933337,-14.157737218025842,-21.418707536166178,-28.65053560726931,-36.76962646930542,-47.01257167823161,-62.25464787254349,-76.889437379722,-72.37850663309288,-39.375644216940024,3.5278732604049523,29.435303601724495,34.30402712342896,33.46975214681843,36.460890696691294,39.06204954987236,35.96365980550185,29.57722108616828,25.408104352018416,25.37396784319114,25.912778497119273,21.789929519123074,13.479470667177067,6.479255980155889,1.2099546267415144,-5.805141971755332,-14.9328371703528,-24.10732076804262,-31.914697480811803,-41.079653423634326,-55.01094160267311,-66.78214735819552,-58.13584822595302,-24.152632762340083,11.935639242853334,27.628354701752453,27.78916326727785,27.968119302475763,32.33274617059529,34.04706819765699,27.89015996496489,19.62178173954752,18.941763703386577,24.119410372383676,25.431008534268955,19.10082843032056,9.830085984856778,67.0,104.0,74.0
-51.584296214713156,-65.09437002592071,-71.31983991312742,-57.213181801966485,-23.139753856062068,11.926978628536366,31.134372562465337,35.348661558535355,35.904491665208795,40.37436794613023,46.380471295574274,46.69214586033968,37.992065380280664,27.843528375186324,26.09077255937141,30.63733089722274,31.58527247086959,25.603789071971267,17.114064999430603,9.202781029596308,0.5414520475630469,-11.344294295644112,-25.180668484125235,-37.06561410655654,-46.92970853041744,-58.79143432136188,-73.63411886969564,-80.92747643289283,-65.1499614081747,-28.8093425844353,5.872574167256275,22.437068850037555,26.23001386942418,31.262827464171075,40.570533542007496,45.652071652067264,41.668955159604735,34.97763210111084,32.54112805802138,34.05520072830249,34.48934148804639,29.5925757548244,20.76958032359188,10.788207319296175,-0.20405027075391696,-10.816037729494704,-19.427894285660418,-28.34344384515559,-40.186674885883626,-53.76437513670589,-67.94451573108829,-77.62818903704509,-68.0917805009937,-34.630086522672784,4.248640118702921,28.177458934963916,34.48431854071025,34.614342486251175,38.11556595744314,42.329845099860414,40.5056044514664,33.98135012124702,29.019041065178836,25.858098532537788,21.270023983956648,16.83275378429802,12.105254933616866,2.576031806149124,-10.408084595866523,-21.574436923432113,-29.963744615015123,-39.13066693770859,-53.49127960534929,-72.4843060844557,-85.04244071170265,-74.93588033601888,-40.34584806529953,-0.12164103626618006,27.283011616583813,38.919045737720005,42.59752431751824,46.85282271337741,53.368550986257,55.87396645263138,50.47567319653162,42.194045206760464,38.08978374661025,38.59711203402167,37.520314852312296,32.02558886082384,22.972386560613828,8.648707499091225,-7.84639797329877,-19.794549316861485,-29.209195659315533,-42.083817891487456,-57.33302580439811,-72.64106825043356,-88.01882967022595,-93.35874649021284,-72.40378593081776,-29.761100557206397,8.820498418884824,26.5930949500264,28.39401508683513,30.04976044931434,38.94351128899902,46.53342649872355,43.72346233486248,34.95956251210956,31.666258844447476,35.63041042839112,37.45229567689557,31.06013675903565,20.776872647820205,11.719059474690509,2.915728315050151,-8.089441924135558,-20.314225370146822,-29.639612257274393,-36.67771086755573,-49.01906891610293,-68.35588533121489,-83.41716780019274,-75.12958996934236,-39.16147067217292,1.7657208843316614,25.21410950166178,31.96234749867733,34.57219156672916,40.43081846868346,46.97347822232757,47.73195558039788,40.68086363759498,32.59123808618658,29.56803541758297,27.789847011541152,23.244247156420254,17.80646912469744,11.553183426653234,2.2015424869852067,-7.9913649143723475,-16.374589921768628,-23.434431332445385,-30.900761795969068,-39.37269633141445,-50.86453955093943,-67.21134045502295,-78.41694632273455,-65.46733857364156,-26.630540253251514,13.51470828455653,32.47062228047376,33.93849004337778,33.932883504828396,37.60510481358627,38.78695355433774,34.201767006236814,27.95179986629596,25.0399144196918,25.72999458977433,25.342427286667554,19.588299380568458,11.14301828535074,4.945857740748329,-0.5458398356359377,-8.292211525062438,-17.694598221896584,-26.464032125980673,-34.218127110752505,-44.612529922110866,-59.36114181809213,-67.12452789949553,-50.339721050343776,-12.540836095863924,18.8637626507531,28.51805203745094,27.357636609306464,28.987473499379945,33.480224158489456,33.05156236078121,25.20846641512625,18.432178417624606,20.25478851604279,25.25260339348444,24.296242492525547,16.415157230957142,7.491223215199954,1.4950810312809244,-3.284878111002367,-10.660757333180463,-21.3626571477684,-31.838806636739516,-39.11950706191561,-44.59580302018348,-47.045740117229485,-36.47578550148011,-10.502009263941392,14.173508666618822,22.500824023302584,20.425566361291263,21.63411032173954,27.55533494240511,30.67189723830337,25.376018191226706,14.709920915477793,7.328317582698823,6.9350436240728515,8.232135587515517,6.0234359910351705,0.359580348122588,-6.207628622846549,-12.660841644185387,-18.36182889018193,-21.23947145507749,-23.530087151365677,-31.260892756260905,-44.289404446211186,-50.00736828022693,-34.14835076062907,-3.8365051405989816,17.3511288528101,22.231752087561457,22.011322336632563,24.95227674929827,30.6132538605751,32.42995966064269,25.504724523330022,16.481086002199767,14.635125585947144,17.839197483922383,18.20413542580104,14.39915991082584,9.781405104329771,5.0712969068159115,-1.963880626925285,-11.778626362886918,-21.234406456973073,-27.635209375682766,-31.635979455264376,-37.505324828017365,-46.79297020744444,-48.2361261832155,-29.098901981497917,1.5681182923445172,22.2589465416922,25.84279189703023,22.215736271791066,23.048433192799553,28.660708552846184,67.0,104.0,74.0
28.10890863965528,24.699055517124446,19.852398124595766,15.707272184993272,9.950134736433697,-1.0692179860186493,-13.97944366720402,-24.184199380451297,-32.31515094729847,-42.61394773697899,-58.773158382214845,-77.52608153106979,-84.9867799773487,-66.89768765976568,-28.259287301235283,9.552050698027855,32.02871070914901,40.361939203476595,43.51101916803908,48.68253811801425,54.83559729297485,55.05363083736857,48.01004517383309,40.39042990974202,37.971720603029,38.72744273927893,36.32327135021137,29.823982265228057,19.411250418645963,3.756309540782476,-11.89544247819961,-22.448614578976258,-32.46683943939173,-46.43496966352835,-61.71608851224169,-77.22427273867496,-91.40728437069382,-90.39974889205953,-61.33448867509887,-17.052805650657362,16.25434349036857,28.106252928567113,28.238408775403506,32.018941082833884,41.847826642490496,46.879934691135965,41.27678360286613,33.078959548098865,32.36621966068304,36.845994843654665,36.41528991891309,28.16391853501504,17.973329511436127,9.29028693989864,0.0038584094238590105,-11.653880324694327,-23.463452378796664,-31.620613954123016,-39.39768400887303,-54.13601673138659,-73.96175911586653,-84.14628161514021,-66.9817532931209,-26.509500501122748,10.742944829948938,28.362656157192017,32.622198468366705,35.881726370114166,42.53675521109836,48.03118401967529,46.346985647484836,38.021264599432826,31.20433549780626,29.222168825345836,26.75314285611115,21.64683753450714,16.225088852269806,9.160462171654414,-0.8312605165001736,-10.629236727272628,-18.470598540172784,-25.499603417936626,-33.22194611841264,-42.21449155222524,-55.21056077350309,-71.82767355531317,-77.79878988473314,-56.18448514414837,-13.794293984423328,21.520508222624358,33.961614517873194,33.544528257160906,34.790572364876674,38.50955663966605,37.9726909246827,32.29765011435892,26.64066856311864,25.007268589687328,25.998416265017195,24.266338180846986,17.139124894642286,9.05721223729486,3.476419051509007,-2.520500622220491,-10.926589942086805,-20.39339081669836,-28.70247824606366,-36.74349449155084,-48.61175559225944,-63.193541963988906,-65.25968600518127,-40.58620055502828,-1.5696133277925677,23.76554375727386,28.50308393888544,27.267115624208312,30.300417985545767,34.17845916063786,31.347367984144473,22.619251077444076,18.07074642362047,21.855532838280258,25.823741893979125,22.531202784476633,13.661074740390559,5.440647298513487,0.16448620330175698,-5.0215509203891795,-13.51189310755648,-24.61135721548661,-34.2844487499933,-40.776542392371624,-45.94029513137159,-45.79625177408801,-30.10680524824422,-2.270204095917486,18.405679253120987,22.2713155083073,20.08213471716685,23.131418978534136,29.105955420385772,30.060318313924093,22.48506847002527,11.892939660685009,6.603125338524155,7.465126851070969,8.036043260216012,4.644576310000179,-1.5495714842675976,-8.065949141060651,-14.489518023285495,-19.509546032635825,-21.705599153641202,-24.989110973718603,-34.818949198775925,-47.48091773734047,-47.896168676264594,-25.851207591472917,4.053888755789898,20.100818558973575,22.131312761444327,22.427056530308903,26.497334145125215,31.908139720505538,31.264053211586983,22.583504649063237,15.050340986411097,15.419982661036265,18.46648172334006,17.39462819689415,13.03060278208493,8.507674052174883,3.3727594226591244,-4.604782569530171,-14.71638032195892,-23.442338953343477,-28.903882118713483,-32.91411086783306,-40.05889943384096,-48.7975522656251,-44.92836039474402,-20.43854495492757,9.303465741162304,24.827511537755186,24.906714092529338,21.70588127412819,24.52042518784698,29.832373050429272,28.30835302664241,20.302093618025424,14.39004141076808,13.114622789917572,13.54995874377352,14.979669919933315,15.611026045545202,12.357495871854804,5.599268884124422,-2.608949564198281,-11.484861854634943,-18.756035948539612,-22.33939023019593,-23.37585057397901,-26.115301400858915,-34.19242394558469,-45.47411858354212,-50.293063168368626,-37.01881711844129,-8.724311189898419,16.177906404077483,26.32885363300576,27.347703494518758,27.398746647435043,27.6368510664205,24.844258267626163,18.877324591793073,14.068496972859016,12.35834828959946,12.702752101934447,13.394439413858562,12.371665804317821,7.419891355768651,0.8063253447155408,-3.430352216101012,-7.142416117842636,-12.974109400457584,-19.19402608848209,-23.08847233698245,-24.812124182678364,-30.37314145014326,-43.01145223700424,-50.858547570455094,-38.50360600362211,-7.829165986679525,21.16442664465515,32.93547760455959,30.603142107158142,27.03142384416674,28.047174571258093,29.61457342469533,27.976691281058713,23.217363207684194,16.79194276655608,11.553539577184095,10.690590016201323,12.560473132388708,11.920253827080073,7.809547601829804,2.733485764885082,-1.6835982077589524,-7.140986590595785,67.0,104.0,74.0
-56.70221235571494,-14.218389733321203,17.90499606442433,30.365787951486606,33.260710325177946,37.540541793692775,44.55385583157173,48.44448702337846,44.34078476297762,35.52719138374617,30.29803002015175,28.799870936716037,25.455306181136795,20.06459297920715,14.505895917022007,6.480698893040248,-3.8300439807216016,-13.084320683942986,-20.494674549541894,-27.63814184291588,-35.624676416741266,-45.40010165190138,-59.97177332229082,-75.59359067719126,-74.69349924437441,-44.99746155965098,-1.6484856476117158,27.411718048744827,34.358511761022115,33.40309613843099,35.9095552546241,39.00419427465252,36.685718647857406,30.40547724610218,25.70599548256956,25.222932669138157,26.023092913023657,22.678820046080514,14.61829891214896,7.239327499616948,1.9556759812035076,-4.720127147551042,-13.657476143426521,-22.970148855869976,-30.893913887192593,-39.61232034370824,-52.957061349978964,-65.9899859306669,-60.95296282886893,-29.500007077492175,8.075539333600442,26.78492226307909,28.040420976438273,27.637497838611235,31.711260521546073,34.253856881943385,29.071624221105406,20.426744361016876,18.508117876078575,23.456747073058004,25.719421119016904,20.266961133205044,10.995178616735913,3.673038451978834,-1.1541148906190384,-7.065614284221321,-16.60768158833174,-27.724095753654485,-36.42681999148903,-42.36639773376762,-46.911694670998585,-43.14071892710375,-22.58815051372608,5.283822085453543,21.068796519959566,21.54136556508033,20.290703002691554,24.903708482347948,30.20758865816574,28.666391926518155,19.321168095284666,9.575362221705143,6.452976579057426,7.938778367359081,7.476710858232105,3.020152762199613,-3.4610583033256606,-9.928834153965173,-16.20830552868324,-20.3761674322734,-22.244882994792253,-27.062439630312948,-38.70104321018894,-49.63383589182738,-43.70361185832492,-16.83852259072016,10.601213055220962,21.593289989900587,21.95702933302955,23.20105323481685,28.199936279062996,32.65859626131721,29.332103461815827,19.7790779495998,14.37938516252671,16.43565893063296,18.683058849022245,16.297698958597277,11.679771858092858,7.197002370651408,1.4134415641925517,-7.448309522788708,-17.522363904203313,-25.354552520950676,-30.024759485197137,-34.48874813950152,-42.85953905982817,-49.71191424862695,-39.70349593239218,-11.313504797703844,15.703230454045487,26.014469988013115,23.72042015795309,21.796738913203054,26.249425166654824,30.3510926370051,26.309075381660545,18.0654410105589,13.672843337258955,13.142944873232093,13.873629445475395,15.40314363417508,15.142386441295658,10.648060622171371,3.3411161651931263,-5.167419220042639,-13.882239286741118,-20.1927112641042,-22.75572660820544,-23.768227925655005,-27.85743157747587,-37.40474664487835,-48.13127165863393,-48.59183982090776,-29.711585344099962,-0.3363294915785498,20.623194694277903,27.100902018631704,27.271446186842038,27.562218040205188,27.27336517759477,23.280405912734643,17.198200620061034,13.272490410370303,12.320831328447902,12.942831827733077,13.393749294310984,11.370763776150136,5.4376059801280165,-0.6985926289144163,-4.368196614509833,-8.615692411514399,-14.8700761982279,-20.64052781768163,-23.65381017164663,-25.671978771098907,-33.52505507593128,-46.59383532325103,-49.732893203895124,-30.839424705745383,1.7139404911543106,26.545615560001533,33.17137818255566,29.196829425590757,26.922273743670214,28.696177872733937,29.513699722439544,26.875347031709847,21.43885961595933,14.989528009102877,10.788632224727465,11.195076523390986,12.789021929525578,11.00174927529233,6.319061591866459,1.407376296827933,-3.0371143797450104,-9.168924766384444,-17.03263479184909,-24.306011497362864,-30.370865102214413,-37.09547767167881,-45.76295785189795,-51.84189578026205,-45.6205192984979,-23.305335896065365,3.0048335792685053,17.964791241911595,21.34818817954122,22.622674522506248,26.13474419121782,29.432690136068402,29.403836478764596,26.462718455774485,23.10474094844269,20.188847320046428,17.63771771077822,14.97788976262393,13.158799711359835,12.338804566492865,8.68114271879591,0.48705223158479904,-8.541465883700193,-14.770171734180062,-19.625736760248717,-26.47327317441718,-33.59290345495155,-39.238582818812446,-44.80252165891578,-42.85699025648202,-22.466332653408386,7.553934511403363,26.679531655499662,28.6380963356863,23.196398796285276,19.814680436268063,19.67588418354656,19.87613134549955,19.203226675224652,17.473259319809234,14.375307284693156,11.72136551072819,10.754739729872602,8.68623886494431,4.086927107708995,-1.6905305235897545,-8.24582324629631,-14.64317404881118,-19.944788659085877,-25.75897690269275,-35.10945755462658,-47.10668564712091,-54.12263875804182,-45.519864537970705,-19.771516580327344,7.716823768415661,19.92188283031949,19.37655394942364,21.20019091256429,28.863647801667348,67.0,104.0,74.0
