32.0668668441422,-618.6624304168347,-806.409601440473,-684.0317400481612,-580.8535725884851,-557.2793720438385,-532.5666693922601,-483.9217046103143,-438.60179911707775,-412.3032689111684,-401.57660240987906,-396.1551778557557,-387.1865728461462,-367.88013971781226,-331.5091825324009,-269.9051793250214,-182.37549360917123,-91.52572997126623,-24.025591629623737,19.968557133401106,55.95269045042945,88.50368158706947,112.30223343548809,126.698492241244,137.8834530653913,148.4354241718843,156.15202407326396,162.9153184396496,172.61174735978938,181.66173085856298,182.33046650728105,173.21085472323685,160.64856826884574,151.6391675052064,143.37943461726542,128.34449717299225,108.11490632994635,89.69298150317121,74.45823393802998,58.357734702997234,38.97193618896529,16.16555282821805,-9.813533246992472,-36.39037444461297,-59.542331589291486,-73.61502753136696,-68.28200373315072,-39.17621576410206,-0.1267949247895827,29.7138609855895,44.23046368616445,48.8328526637865,49.979122715684845,49.34269828180711,42.88619521530103,31.34901547712089,22.470895028739907,20.808627378069698,24.02716863553205,26.56717584975427,25.1666904093586,19.422455135613962,9.292839923810174,-2.462261667775559,-12.06579390171883,-21.42324351804905,-34.71071391997628,-48.650851043776484,-57.880099567889914,-65.05258666958824,-74.67300560930772,-85.34873209722501,-95.26861522488176,-106.92631877412136,-120.65507084017791,-132.93722463509823,-137.3610314589528,-124.2501521285882,-88.99170748559854,-42.65734341991787,-3.5571096653914425,20.928220785938862,36.67405488540247,48.974364568193984,57.396564988594896,60.04319873652915,58.43619197958985,56.36606515591495,56.471539109562144,59.09743702761093,62.291598787332234,63.28026700842887,61.692391374619426,58.69196860443703,53.424403860206986,44.45408664729009,32.47431708437888,19.29309920123635,6.509654576366503,-5.0106421148998965,-16.182302268891327,-28.922112142039992,-41.782461505808925,-52.81877419103901,-65.56768474072483,-82.22544058320229,-93.56789511749656,-85.06858294248364,-53.21696413525158,-10.008806678887746,26.98693816447826,49.91669319746762,64.53553694787017,75.22472222189515,78.29818179955787,72.44450263232198,62.10254328537214,51.886780843372314,45.57902895609955,44.15773663166804,43.33601839077771,39.225923941592725,33.12194051722037,24.567710166478296,10.108287033798748,-7.507606790244446,-21.480946169651215,-29.70749511571668,-37.29496827020366,-48.71666052278875,-62.74474090616235,-77.85779361115414,-94.4761398916914,-110.47384702042994,-119.50178341064654,-111.57398621940224,-80.35697479384643,-33.64992965051932,9.698950206039832,36.5980137360958,50.58799275317142,60.57915239172616,66.71636989763923,65.0858280660882,58.701827558713035,52.88274315698621,47.919761861347865,45.442734570150506,46.811820427640725,48.543180069643995,46.60562322994056,41.38658584881472,36.304952368561956,28.716854825922887,13.839039401882362,-4.617824994165833,-19.03363273888693,-27.49321479611473,-34.72298417082752,-46.62246857634809,-64.75667647422046,-84.61859177760319,-101.68735889298704,-117.53792565641798,-127.04063057753024,-112.35829645258221,-66.30487809175399,-9.303285305422525,31.814074530577383,51.65053618564939,61.28966494150292,68.39224798413794,74.35335768234356,77.13374874648763,72.70556376930178,64.11851462637507,58.88762491508738,59.00058534237787,62.10372950967768,63.345011332712865,57.16932221890331,45.78400514564821,33.63723263521803,20.093001722811064,6.180554120085968,-6.986659896863262,-21.30432485940998,-35.382687079122434,-48.40864873190146,-63.38320016508565,-78.69607825532262,-91.87755843105184,-105.92128754743885,-123.04998650936015,-133.32259421872016,-117.40825559512554,-71.34905863957663,-16.7441475652371,23.37677570691713,44.417627400701974,56.413545161466374,66.89025226523282,72.87677816479216,70.51078689890653,62.64060470337654,54.98396345098419,53.02301160473261,57.65615495271403,62.558782209429154,61.29237718721397,55.524169504834234,48.26100134676233,37.59189575045235,23.507755004483958,9.269843994572547,-3.299576819854228,-15.387567896023576,-26.639319754925864,-35.10887609323726,-42.498271583498386,-53.89357456297748,-71.87543009296327,-91.61817301008337,-107.07321067469275,-115.48112600491991,-111.60982729566882,-86.62268806196522,-40.33626471639008,10.630079307754384,45.26874321713081,58.679111740393274,63.376958474846404,69.41614353398073,72.94279925280162,68.31687686769206,59.89483493330445,53.67367917997014,52.277814725834176,55.57809655296776,56.37183233515631,49.60715082982736,40.026718001221084,29.429862509621366,15.031710869126334,0.25347539555844456,-12.882139522878681,-25.240004353373187,-33.509886968436085,-37.679723176196894,-44.058463618159614,60.0,121.0,80.0
5.852426240115216,-5.517441336757065,-14.548490548415913,-24.82657743616625,-39.00085332759374,-51.84766831131662,-59.88850542374461,-67.52794231059616,-77.81478796473434,-88.2291344701054,-98.3446520611825,-110.78938292200878,-124.56656823845019,-135.40807071696182,-135.80402602559414,-116.16641650120687,-75.89689377742035,-29.967601393042187,4.9077214522107635,26.022459814059655,40.51437299390836,51.915967076600495,58.77070617176278,59.85423408373022,57.72873426594977,56.11366327619969,57.01571252042447,60.09719000394926,62.8858160866058,63.02472622732454,60.95865137935446,57.49018680026824,51.228531650591684,41.221829784870366,28.71462512602684,15.495406030574863,3.0524623989198325,-8.179756979784171,-19.671295703605814,-32.786185739389836,-45.10375950707301,-56.08555784342201,-70.14104237474788,-86.73497410296487,-93.626979560948,-77.98135093663343,-41.098457351034746,1.9687574590540589,34.97669108072935,54.6215947006167,68.10059399282778,77.09396395818848,77.38852580484603,69.68461133139266,58.96275706272247,49.52322473327766,44.771571787804305,44.118080165856504,42.508289371562114,37.565661514675064,31.084607942044745,21.03655568546651,5.038954602561352,-12.166567172475714,-24.3185872174777,-31.67120997556419,-40.16080296852899,-52.63144670732087,-66.98196716839291,-82.51810125350801,-99.36280109606004,-114.18976181869971,-119.41384804460264,-104.91767168779798,-67.71356163271957,-19.93021628042919,19.31195310488855,41.48966709356537,53.68388762980135,62.95851760099808,67.08754138545754,63.41457515061415,56.881296740010036,51.36985521426017,46.8022231546157,45.524356005332905,47.49338658254239,48.45617966046712,45.27037241094981,39.849085573328196,34.67126480293948,25.18761570201243,8.510636226905335,-9.44277847819197,-21.965399227260765,-29.419654517931875,-37.49013176611915,-51.32101338634112,-70.6179949094822,-89.84620054313676,-106.32591712158512,-121.5891892700702,-126.07945929437892,-101.8558942491586,-49.5716502283809,4.955326685346608,39.35450178347539,54.97316343879919,63.4751098127061,70.24414063467424,75.68561359973162,76.6601023142525,70.28798709523812,62.03667131219742,58.44075230788361,59.73571505153013,62.959095536105465,62.412131214748584,54.129728240393895,42.31874187145526,29.907327507185197,15.985310906678421,2.374060949223203,-10.97203978583758,-25.537592316817936,-39.12795238528725,-52.4734077798335,-67.96973632998977,-82.68332921834464,-95.63161377202918,-110.68747991817146,-127.55208194079054,-132.1280662434121,-106.6028595627029,-55.19334000382822,-3.062780696578953,31.122197451761185,48.28019481777108,59.568399227636945,69.35221805166117,73.04652000649368,68.55658385812401,60.14655334333169,53.647407936248605,53.852455106962644,59.42803595789789,62.91847468976816,59.85903475914734,53.60921297684079,45.623701621645594,33.75285736715219,19.263797877445295,5.483564729851383,-6.780665237090303,-18.834226861071993,-29.390996146284987,-37.161723338674626,-45.14696593406019,-58.49300183668702,-77.73287916234067,-96.68087990075497,-110.34681881290976,-116.01030852279507,-106.86948723467691,-74.99556643476892,-25.052059480099384,22.967291949382123,50.966038260074725,60.25259824286766,64.91406783423587,71.08772216987619,72.42810804593576,65.92702468133159,57.726834646123244,52.681658650140285,52.938531954728155,56.47694097306612,55.11322723691112,46.85797080267887,37.23662084719791,25.63139933503369,10.576746637426702,-3.6305641071565433,-16.60951031074737,-28.215336367646014,-34.905177478254814,-39.03066363643167,-46.8663976920666,-58.403997601149975,-68.39088855409967,-75.54541200099449,-86.71742575359815,-103.41064954599143,-111.70694160792928,-95.6949110243289,-54.97446970681132,-6.9499668663536935,29.5070352377957,50.56029625165128,63.38747319590331,71.59634886038461,74.43413565461891,70.94716045400946,61.0392872801646,48.46961204082844,40.69889360029043,40.968539116955874,43.22318610018129,41.128596999067085,34.80963750056049,26.543670311039858,18.987176904567825,12.802742603471645,3.9186363358776637,-11.195910583521146,-28.77564935149035,-41.8091994647132,-49.065259741261755,-56.425073356294675,-69.72490581895812,-86.9483688571357,-96.86241090299089,-87.77511554947283,-57.8151787905299,-14.725289995634768,27.038582460004434,54.11025388898376,66.20417034407933,71.70143713858624,73.85367939856914,70.62218412566693,61.779244361115296,49.447758700175335,39.30428956939218,37.9241517901029,41.615095419223366,39.82597519646671,30.016819132262526,18.925609864717437,8.817542341880236,-4.299693387897611,-19.517572288938275,-33.09264172602439,-45.99363451015363,-59.38422807444275,-73.16805357457056,-90.55949451933202,-110.56546155676816,-124.21355805637047,-118.76228817319519,60.0,121.0,80.0
-0.13980126943102625,-16.354893542399132,-26.70875756510361,-33.757120517937096,-43.403626385200525,-56.68117021496187,-71.31053668200576,-87.31585035328021,-104.10630306982401,-117.1311869614837,-117.63304238353099,-96.25237836999705,-54.131907511195784,-7.002499296600708,27.37439058785965,45.55900232520243,56.61346152902041,64.91341117907048,66.73289644873603,61.52203394519458,55.186783163204055,49.898733217977586,45.98322289453959,45.90935040878803,48.08325443682708,47.983709238206316,43.73425436847158,38.40222469883915,32.663257343036136,20.98346116916577,3.0729943375906026,-13.758165402497374,-24.43823500046353,-31.400454901555797,-40.7789581974185,-56.51591906635306,-76.45337164586242,-94.79123018627955,-110.95517645303858,-124.82619384885228,-122.57840427536337,-88.80996327603236,-32.684507823663864,17.344251470298545,45.26012459717727,57.76681386554987,65.54071702822161,72.00874446909353,76.65624801506078,75.49491976313388,67.7105726098858,60.397542229461635,58.414364694725855,60.654512770873204,63.49733559503052,60.75396572032039,50.816709766172536,38.842183400801325,26.012830690583304,11.925008420076585,-1.3916848797431314,-15.103667369434003,-29.658589059306845,-42.83138952183821,-56.77646003090099,-72.46716582720036,-86.48288639742293,-99.58376988697913,-115.71230242119134,-131.07564937962755,-128.24727615955865,-93.47334228026581,-39.040121613260524,8.976528076814276,37.37107571839068,51.713755450728144,62.66894049336431,71.28031591207618,72.48141296406416,66.27379493999472,57.81003256162686,52.917159269388705,55.17785827448622,61.00620922929657,62.65880461596864,58.18516767576847,51.58286954533158,42.62717843839598,29.680932040101172,15.099251282632975,1.845230045259511,-10.272710458456118,-22.155755755390945,-31.876059561301187,-39.21439816202784,-48.27495550914147,-63.643160728848116,-83.5468329260595,-101.28005289876621,-112.98830544059985,-115.32448711905788,-100.13871484468616,-61.741326072210924,-9.938690641863897,33.48238547071671,55.00474782169312,61.50770181435476,66.68201590573337,72.32156739050005,71.17860543118148,63.422098707551896,55.83590807404989,52.152410695192515,53.93584622651715,56.913772167588796,53.208719719860625,44.062933916915796,34.288160833937305,21.480193725800465,6.24253424343054,-7.412248183908948,-20.263889736225227,-30.725535274261333,-36.05215687866396,-40.74630527010899,-50.022980869550324,-61.66673613882742,-70.5555085900416,-78.0155419614212,-91.33638415267865,-107.51906068477068,-109.99056150880939,-85.94955052169107,-40.8533580858789,5.290967306022747,36.9168461986333,54.81165945543531,66.23912826487239,73.0161814051927,74.11302675028968,68.6815888921399,57.37764165121059,45.41850482842637,40.0695559881772,41.80942146538683,43.159026873766486,39.64076572817955,32.51110985621947,24.176645372565513,17.161049602424583,10.758782693584125,0.18322586168030275,-16.36356226123352,-33.22108765108393,-44.33991387709822,-50.835362479517165,-59.55588281581301,-74.65301423649893,-91.18957911935856,-96.49636581899958,-81.06473863835112,-46.18538300349996,-1.7827824273093373,36.678165941740026,58.803582242799095,68.15083239900387,72.73802623537796,73.54222537653835,68.58700162459394,58.41603289620035,45.92925480527924,37.89938136620358,38.95139198864447,42.012738044743834,37.6061744646405,26.636165846693338,16.07108582476006,5.4430476242808306,-8.684699242988806,-23.66750395425791,-36.761806428542926,-49.86410589580403,-63.22154440176141,-77.7010738458219,-96.34402780920034,-115.69542118027118,-125.16168009753876,-112.14327200536252,-72.98763879808959,-23.12194386341221,16.027691173951517,38.08401424259963,51.448189363450176,63.69732697039764,72.37495034469472,72.41274990863491,66.47425910498492,60.05292248400094,54.44923718929336,50.15607547917492,47.93788671636607,47.4214451394535,46.54701463095073,41.36033437974784,28.540898874740535,10.63377284680857,-6.105585148269118,-20.346219349342334,-34.9783885354104,-50.446144873390075,-64.94137068670804,-79.17128160727829,-97.03489812515625,-116.64674936156085,-125.83260318872038,-109.51503508950404,-66.08437181825846,-14.458720228564529,25.34197040446593,51.70457345039744,69.7435609319817,79.78859554527003,82.73350923437935,82.32268869673193,79.03966971399932,72.48311841319558,67.18267961505713,65.21396846784391,63.41257414635727,59.738143625559985,53.08354892619334,43.86206554002794,33.44155530178515,19.99554691283019,1.2683261942620694,-19.016007613042962,-35.764291804212874,-49.665382111527144,-63.51770402272834,-78.41146802793702,-96.4050437119008,-117.92395143196919,-137.4875881326549,-147.37095093203587,-137.9848714551299,-101.89731537554985,-46.54947458478597,5.1678828058106925,36.57070513835269,53.04414416692398,60.0,121.0,80.0
-33.61478292498317,-46.61051857043718,-61.27231648257071,-76.782097845575,-90.1780921932711,-103.83991973839743,-120.78439727467472,-133.070271578894,-121.48896104141386,-78.60208273828792,-23.52994788991326,19.24157827225502,42.410916797365246,54.948458482608075,65.61973448983495,72.54270970751372,71.26145893174541,63.80400661101138,55.77816240867708,52.84045882635281,56.83526062883112,62.18984213924115,61.83294601526669,56.3819552657123,49.368912904725796,39.26095916076907,25.4695399180904,11.071669046054657,-1.6894655880876424,-13.776912040568837,-25.280501722071026,-34.12944098896569,-41.40309117862179,-51.9784343697938,-69.21383187263424,-89.14651954689101,-105.36969178349608,-114.89284962154103,-113.16878082067767,-91.3524212856058,-47.27400305752247,4.415825431442058,42.00937235779083,57.74239329198669,62.75006775116058,68.56406705186266,72.91828314337802,69.32422856024411,60.97141916913075,54.271109025681504,52.12342811123323,55.07325793363767,56.70913426048687,50.81842970670544,41.29588813352499,31.048381576672995,17.091928752587137,2.09813856338971,-11.157645200074782,-23.73642147049109,-32.73876702807092,-37.141833338630605,-42.90719842056639,-53.39807040295595,-64.65294995039918,-72.53944946308154,-81.05754695142329,-96.30362568536728,-110.45281785858579,-105.92815880057597,-74.33720962280671,-26.679087999546688,16.190273080047533,43.13700367610261,58.57828292131073,68.71645958807852,73.95857456013579,73.24152096421483,65.89033997360532,53.64088132915629,42.96890181859821,40.09972963732895,42.58580579753169,42.64391437729703,37.85191582219776,30.105888846297095,21.942194363453822,15.42181041885793,8.345887286614772,-4.112990173022129,-21.558221399357148,-37.13367585572259,-46.43972478597009,-52.81323597699745,-63.28094112710791,-79.76267815253168,-94.46970881923693,-94.3171687416132,-72.68182055778597,-33.71335370362641,10.631657977687563,44.842607949620344,62.39936214279152,69.76580951314,73.47549573494373,72.72620794651729,66.10778702595539,54.82607092960451,42.78700028413714,37.35446105372332,40.1614352405984,41.70523522904543,34.78330388814692,23.36419060872387,13.233363544163922,1.7179101463693602,-13.140489716173585,-27.612351668818004,-40.457762818262644,-53.75108977105527,-67.12241933277845,-82.6371060055567,-102.2357140550971,-120.01786889553449,-124.18002217188487,-103.19389906380489,-58.61625126519413,-10.048424020910675,23.95334438042826,42.343344446109136,55.02764768036463,66.86655781712297,73.33462381423007,71.00708552721093,64.54605361993978,58.343130343454995,53.03493413038823,49.285162402171245,47.67365517782869,47.34339561984515,45.699575973076854,38.468330702174796,23.608025625393463,5.469826484731309,-10.355321202829911,-24.442435480609547,-39.42584487029234,-54.80586684619872,-68.90487294437078,-83.85651354250697,-102.87415157030618,-121.11150078616143,-124.20532507207218,-99.24697610845966,-50.87310308526641,-1.318680426414731,34.0544524928621,57.67640139305902,73.5085260394519,81.2127074420321,82.83436867096387,81.75914656530912,77.35708650606489,70.59165695161714,66.3719886155619,64.81503168308375,62.59183485811412,58.15535473681841,50.60136636743205,40.97257230724401,30.036582413512583,15.087245648843936,-4.722888478494884,-24.307993843069095,-39.92293384597976,-53.604456459837905,-67.66286907809724,-83.17062381638863,-102.41161739713618,-124.10066604352026,-141.71519275222818,-147.10261618958,-130.35851486590022,-87.04069567563263,-30.141743396496285,16.491321016682416,42.22186237207171,56.970946660932576,70.35721445426239,80.31671075121217,80.89591178740415,72.39703439349263,62.109392649829545,55.6227158280618,55.20616480577577,59.603887097243124,61.22033850751038,53.74409922210814,40.11828514838399,27.198721421799345,15.542296918266794,1.123699918503388,-15.824398273254602,-31.783883038783255,-44.35065570597179,-55.60495970401518,-70.74183729738877,-90.16351833526899,-105.23887578415263,-102.36706282190771,-73.5569225228589,-26.566544850147864,18.06545460111928,46.902287586718735,61.91049457167579,67.4019825762891,66.17826283722293,62.91106639682962,58.37827455256932,50.31843132909738,41.65595863281328,38.05901042920846,39.39503056703741,39.63999782055373,33.764765105629735,21.543822516643015,6.723718259860821,-7.382230715681189,-21.488687174117633,-37.49423864180816,-55.43117603848306,-73.42149955804673,-89.43496301929754,-104.97705206538915,-119.33262668553596,-121.51575911909711,-98.58948499919323,-53.157521986463756,-1.7653710589947296,37.929074975415354,58.330650187987935,67.03862866003693,73.45447580639696,77.02241840406894,74.51050408103798,67.56946303936986,59.51172341960731,52.75429489460615,48.79114152724035,47.98089326440391,60.0,121.0,80.0
-45.52205222524773,-56.83877415069411,-67.29267675643206,-74.54623635452367,-84.77671162594515,-101.25526047702701,-111.75986975746525,-99.46253653204249,-61.310691437811464,-12.979414816652408,25.637317313028255,48.395747639440984,61.952591029398356,70.78756824011971,74.40276429468736,71.80294777789072,62.65127083587082,50.03226871419269,41.23929101447613,40.6217486613023,43.107032854082796,41.697500586686495,35.816414136987184,27.662582621781283,19.879031709079864,13.659904388129858,5.444157169679969,-8.879939132422408,-26.57425399472103,-40.466150794447124,-48.264580639786,-55.17190695559749,-67.57671186339256,-84.76771734095396,-96.45852565955038,-90.2672651547079,-62.80827296010394,-20.754312739393537,22.132891518140255,51.513919797589054,65.15092936032949,71.1411629175144,73.83519655321415,71.40077838804122,63.22774558964703,51.13667848544426,40.23330097967114,37.59615989126099,41.24133394848479,40.60297566727443,31.567372164473333,20.28297840608888,10.266234085116432,-2.3383118764195,-17.538445857784534,-31.388471618218976,-44.22816848149478,-57.614094343766766,-71.19760924801135,-87.97785584221972,-108.01219213462569,-123.21251324233403,-121.00986564116015,-92.12986868264525,-43.923897687655504,1.6734418707321461,30.496221769220934,46.17162960383466,58.61225197730246,69.57795983635276,73.48619377309473,69.26930433846188,62.67067790317353,56.70147780134523,51.75059561206955,48.604617484157345,47.52544963256898,47.17168238207398,44.3729810424656,34.88730610004039,18.389407749627424,0.5546813919959912,-14.44790529206419,-28.641554421176853,-43.917667156920594,-59.025304956390954,-72.92504978791148,-88.94047506759682,-108.72119791322059,-124.3090341923534,-120.11173598163722,-86.87952528340344,-35.6231253870573,10.487674311695123,41.79664645829779,63.037865249083715,76.56874559616024,82.11345492207553,82.7524374676779,80.90390434431153,75.43424314098878,68.95983861121563,65.80972868789974,64.33692685826837,61.590960121168095,56.292872995529144,47.94633307669139,38.00698855713145,26.283737319647173,9.721030332699279,-10.683671853734294,-29.217335417810467,-43.925595488833636,-57.58938508706714,-71.9098990582463,-88.26804818550498,-108.66359127578602,-129.93921120046008,-144.94218811049564,-144.96111663410167,-120.38197336844193,-70.96138183331803,-14.690121141451629,25.901636865645393,46.97544114519163,60.87752235222716,73.87734347396666,81.61590861626816,79.11755863028142,69.26500633950207,59.7136436693709,54.82444209758385,56.213575206276715,60.771367532535045,60.04574652862022,50.10777520367062,36.1137286053716,23.888205620122665,11.762866755645078,-3.65100398453266,-20.695896126553013,-35.778292182741886,-47.509500418656884,-59.40326679383128,-76.12357981920299,-95.55089594293678,-106.81226189612391,-96.72399836506918,-61.04475160872065,-12.516253959446638,28.147836541548084,52.393620510393376,64.38386504532238,67.53750584025667,65.28670028041815,61.84729151099312,56.42918939044625,47.583183082200094,39.95639388557882,38.13515879264682,39.88452810359439,38.67148922451531,30.77527421550518,17.320173892536957,2.5326058659979,-11.353498766995669,-25.87634038251247,-42.527157434569865,-60.74756797429827,-78.25904963695068,-93.85749668164472,-109.52539658717777,-121.91945250151117,-117.74123506451184,-87.18700555512274,-38.067533638539075,11.528499866312698,45.71689317660191,61.486345404223705,68.97012017659416,74.98198495283451,76.94109694079161,72.79882357318266,65.23566184743068,57.33793776715274,51.28543053392891,48.248756082645436,48.19935291898367,48.41156393850664,42.063156455931846,26.636891598337794,8.228844104006777,-7.945706918943254,-22.423652830611225,-38.20748975863626,-54.17016076894428,-66.42167198389858,-78.34223257538599,-97.27972776984348,-121.16024517490033,-136.26971784684997,-124.62374898921883,-79.97237219064182,-20.831265126196673,25.24405430165544,48.70015234837505,59.42846753228606,68.43294712814772,77.06910114723681,79.7630085010414,74.87121429346787,66.39610789556953,59.29755985882517,57.13351522915901,58.35753529881083,56.88628786899838,50.37584669838106,40.78189206339729,29.680147349388616,18.27292695548105,7.091246134218211,-6.190992847177884,-22.331105984543267,-37.616066902665764,-49.17742419122337,-58.95714018793949,-73.15218076512937,-94.87220032787154,-116.61870313314577,-126.91551631918387,-116.04985608519526,-79.75376287863608,-28.96254534847989,14.495321972294946,39.93351448690857,53.521170743935144,61.860673138245204,66.57291409603774,68.2009629840338,65.06759189649412,57.88701949276774,51.21592906973626,49.00789264044739,50.51406614641228,50.29076799023531,43.593940227790384,33.642941835192254,27.595120621112752,22.830816835660016,11.869020531364402,60.0,121.0,80.0
-115.49111522390248,-79.33225014990032,-29.51747229852136,11.861480461876468,35.8982351590094,49.79865261600466,62.132141944530495,71.6623769597486,72.89700141734811,67.36877057782489,60.863340606952455,55.138535896470025,50.61977322266835,48.10905855418425,47.44815962577309,46.80925576888681,42.46134651697823,30.670410852659103,13.070650731352055,-4.068574592542807,-18.481527574847792,-32.95477797743355,-48.399841762041724,-63.10019674535371,-77.13363868929446,-94.40760533256893,-114.2800765765694,-125.81552302080101,-113.44528701833576,-72.90358912888928,-20.921412898300684,20.94613344577501,48.738323393275856,67.77754963881979,78.92704602910132,82.60917663058486,82.50231974937725,79.70856899781946,73.40788054164123,67.66303954644236,65.38982775935874,63.73716404049433,60.37829964278623,54.15479210792059,45.170824872424355,34.923542651310576,22.091946252115683,3.9928282888960633,-16.45462201722446,-33.76862995856771,-47.85748991924519,-61.6322383831345,-76.31095974836717,-93.74902834232616,-115.01195522509997,-135.25977675828108,-146.93644627053658,-140.70846931186568,-108.18934100055365,-54.26984350024016,-0.6946922548073502,33.55470065742016,51.19536121525919,64.78737220989396,76.96122585288246,81.99831629207564,76.68705761528206,66.19560035915181,57.71587319756587,54.580419654037435,57.53505457162246,61.46119257688116,58.03078475988165,46.127940500485494,32.32156942121588,20.59735461655191,7.6639092416706776,-8.571706605449698,-25.39040222195838,-39.45515536624371,-50.66844449156918,-63.65563412012773,-81.79425214218874,-100.27544791214406,-106.54626640924249,-88.81823710544312,-47.39461355177951,0.7766187845454636,36.76079628843104,56.88961504660478,66.11663873040999,67.2058393405871,64.3418746090506,60.62690986860996,54.13635500165409,44.95335645148381,38.79224296961297,38.54495250482539,40.09865492606088,37.11484543736897,27.295984833420043,13.00211902668795,-1.5520199101251853,-15.38210828224295,-30.45644344069484,-47.70325384565367,-66.0019355935067,-82.89953435328557,-98.32556342874507,-113.88294985826182,-123.10496080746768,-111.62241200397557,-74.17231789670348,-22.95067676922837,23.447367155951152,51.85873952485642,63.98762919210484,70.85599593988546,76.15882187872026,76.30998753688434,70.80617301861709,62.878323948391106,55.32573507376384,50.07458485659213,47.96979953821557,48.48012751836996,47.556825530248524,38.3710085436054,21.290821042799017,3.250191324679257,-12.166443097532015,-26.768243819746814,-43.01388956997633,-58.133958457090856,-69.52613299736412,-82.92596550736462,-104.1006283313828,-127.23376491638034,-136.334581743001,-114.76124352018917,-63.05080181508289,-5.266490792267278,34.13344947009852,52.49178669602212,61.936080160914926,71.17253389526773,78.67852793129893,79.01169539224101,72.56363364977716,64.00017328150653,58.09775048761205,57.38692994756673,58.4424693427916,55.46486908666011,47.827058960261084,37.682685141798906,26.353182771421668,15.073055941087802,3.5965436779774773,-10.665729529983572,-27.03852836196748,-41.34679578107546,-51.975676155455254,-62.29456126117995,-78.79720332089319,-101.67538617202587,-121.23480003381646,-126.32025351166371,-108.04584852531772,-65.64388255778556,-14.786865987227005,23.626847278168057,44.65599878041592,56.35771633897596,63.54222551624156,67.40477102387976,67.84980208061873,63.25150637714121,55.67364216268577,50.045492817365336,49.23693469805576,50.92218187095645,49.068807899879964,40.68317843285304,31.353919614800898,26.49123956407557,20.433078038742327,7.589892951363479,-7.665928818287201,-20.443676690771532,-31.501628023351174,-43.9988503044456,-60.615919259149855,-80.44909336914077,-99.7018284307621,-115.8841452850129,-125.18960819913859,-118.50544248439476,-88.6029868512104,-42.774618272855875,1.7385410982618033,34.079959884246335,54.32800374963201,66.33627578354051,73.07298725960635,75.23655274850212,72.0986172163683,64.34330029932055,57.02080442837078,57.22471823161867,63.46753266006412,64.6943872257431,55.81228302112815,43.152657399378,31.586343505211016,21.563843636864355,12.489499119057303,-2.0849524950093272,-25.843834162094613,-49.34423913172564,-64.75063165464583,-76.77239006478916,-92.22547466850466,-107.21864461283278,-110.41989487524852,-92.66254160275068,-53.22226402365206,-6.6389059787800315,28.344493279011292,47.14371076411969,57.12066054455497,62.41523145587101,61.15861763814087,54.04523654903712,46.961880870146594,44.07748110175778,43.82651038445827,44.01733623182942,44.512034319215346,43.30731655788815,38.073510432527804,29.105777929438794,16.21070408099047,1.0037908412686156,-13.193323233258912,-25.90770147403942,-39.6563825485663,-55.65675764816971,-71.18402338056244,-84.41169374278982,60.0,121.0,80.0
55.16827193911929,68.63651384367438,79.43034384760972,81.44876023930239,73.81137845365036,63.33191501283478,56.169459844708676,54.889429287436386,58.96966636296239,61.47774961832797,55.248443891529604,42.01085517796119,28.767822063551804,17.187810488806722,3.2514344650174576,-13.542592102212817,-29.834541604927978,-42.854778214639126,-53.98285561535166,-68.39707412765759,-87.551689199471,-103.97643703898298,-104.19815494772622,-78.80499076590867,-33.16323196050082,12.923563543802079,43.992543158038295,60.511980584385384,67.14668065482917,66.55067443766927,63.371871558497325,59.159586318349305,51.564503896541,42.603920633616596,38.17237164814329,39.12313153725432,39.89951918947243,34.9574615641127,23.426615121225748,8.689686019731163,-5.552909290400503,-19.526278182510698,-35.23064328760922,-52.97991281507427,-71.1220709310681,-87.39196306719457,-102.86715682157858,-117.78283771971796,-122.49445905317702,-103.19978307678348,-59.97446641785777,-8.268219552870226,33.755530291807666,56.56440946739949,66.12000632710982,72.66792537781045,76.87189129583781,75.17875506304158,68.62061258001289,60.55552284892654,53.513779855534544,49.13300567705259,47.93017780968227,48.67640985322063,45.949809393024275,33.968885121181444,15.897223433745108,-1.4710617980298037,-16.31034674267583,-31.29794622837542,-47.72974926912725,-61.71326167968112,-72.79394446147309,-88.25004208677203,-111.15188078205071,-132.15264921111338,-133.72048923410614,-102.19727595676261,-45.62203942197782,8.591288945331124,41.16212718615754,55.57633532881131,64.50127546970279,73.79941030925345,79.63558294489559,77.6676899245513,70.08160457635803,61.835780001209386,57.37794968099568,57.80973553120447,58.14291010321975,53.63805063018788,45.07985431556103,34.48246909653887,23.037035627820718,11.883419075288403,-0.1602012128829633,-15.345758208881385,-31.550862552365547,-44.7385246991339,-54.71605027665587,-66.19612725033419,-85.05292123202607,-108.19941075392923,-124.63205269932342,-123.73087107741429,-97.9000376323023,-50.78031191309584,-1.782362643600727,31.20978970909892,48.64433522053885,58.83945999984747,64.94760718424263,67.97387947958235,67.0427952000198,61.166217103722936,53.63836706116945,49.31387111589924,49.70332129765103,51.01630601405705,47.230959573633136,37.687798448687246,29.538648735262473,25.284609538259623,17.379138241208647,3.1142314914413194,-11.670522097402877,-23.688781752590195,-34.815762278332244,-48.32165008573141,-66.17659128881661,-86.21508360904821,-104.78201213187765,-119.58200672709836,-125.38798744037597,-112.259305882718,-76.2785002939484,-29.065447946307433,12.490167516627356,41.007126136008424,58.483737261816565,68.73996108118212,74.20215761094988,74.88878514834555,70.22024092987483,61.8274762510957,56.12210459232185,58.81145570803779,64.8260812752087,63.016652731276096,52.191933192520786,39.65919461692491,28.50531465216069,19.000797486101074,9.229494107601846,-8.218449904886308,-33.22439800044007,-54.62991895799863,-68.1615181507521,-80.80553900802418,-97.07324768773482,-109.84235327561959,-107.71763577394323,-83.14032466280705,-39.55333148118586,5.217869294558797,35.20228841440054,50.58787308514692,59.16483725972307,62.813392240638265,59.50547458441165,51.70520368829399,45.67614812088688,43.882310224384064,43.852054261686334,44.15749276427805,44.489929055566044,42.22290873249268,35.85502770212494,25.785135473393275,11.894424917490484,-3.301032675760636,-16.93946017790325,-29.64772294367928,-44.10911810037314,-60.34992435216575,-75.20706615234498,-88.06235849538382,-101.7988080917409,-116.88401767035563,-123.10151474433478,-105.02206451367266,-61.222472877697975,-9.769460443040902,27.944711280736527,46.798908362931826,58.14411238184262,69.94734572843439,77.24329833125005,75.3166842824862,68.56225778620855,61.597135251883,57.432963286048114,58.11402028291423,59.038919468674855,54.21343091909287,46.402918072317874,39.90660511458729,32.87956703480283,22.136368768011703,6.972810760335397,-8.531499172764608,-21.429125877453778,-35.5578783556707,-52.10008659098754,-65.99189301120559,-75.83995223806033,-88.8341875874131,-109.56407081730926,-128.60506538182466,-127.0861139285606,-92.53915697235053,-36.58056929525612,13.168575613105475,41.99967816067408,56.19978463795069,67.31138940963436,78.61991547431273,84.68348574431077,79.74445061437707,67.28441211437618,58.230010898092296,56.02033054676468,55.17202242404853,54.09529560894626,53.43742646134087,48.69173701354147,39.11069504983784,29.25742608581646,19.612066191899014,7.345652001480504,-7.234739769764946,-21.113654552192724,-32.53456585924994,-43.0960370982073,-57.16580183949286,-73.97580235946361,-87.52783667146953,-98.489094816783,-113.9129004610565,60.0,121.0,80.0
48.08383508420495,48.59830055886836,43.489956984664346,29.034812445634675,10.605081735173616,-5.949891175594524,-20.472775592987094,-35.99997594454196,-52.21349522284538,-64.98064373213481,-76.4605361674816,-94.28791046456425,-118.09921035475365,-135.4371568005451,-128.18508887234566,-87.38737315118587,-28.45846661891265,20.465728800098454,46.618455655959174,58.25827410536368,67.17262622022308,76.13771109352227,79.88555981438891,75.84158099743762,67.54830317415978,60.00496053960589,57.118159789291816,58.22132651883279,57.390656011772734,51.471066265853906,42.17030145206494,31.207093274137613,19.763545008795013,8.633785365752521,-4.218388498760054,-20.12659493964449,-35.77855331356687,-47.83245582931651,-57.559528631105664,-70.78793837200043,-91.72556100205028,-114.14755977851794,-126.57417570924278,-118.98791032077796,-85.850025657267,-35.76740916704875,9.733399921009413,37.44394854149432,52.08444034478041,60.98254244379934,66.1117692406889,68.21764523923906,65.78631378108635,58.93129819998477,51.89577772328042,49.013365761094214,50.26647440875982,50.64809247209589,44.842694165051405,34.84510410758107,28.140884626802997,23.725247417969886,13.722538186550484,-1.3753112500986107,-15.405878712727105,-26.854040815074846,-38.33364038637592,-53.04131241714877,-71.9298697979049,-91.84052137275502,-109.56775521058573,-122.57398911795086,-123.9683658307364,-103.98218351467725,-62.97894108621009,-15.90695511524982,22.086839133761963,47.00835371513222,62.04497490401805,70.7630175864942,74.9354929713335,74.08391303286459,67.98938244266347,59.53421903834974,56.00880655156502,60.730586390050256,65.44567659242725,60.51816748614618,48.47800972321653,36.29524822005916,25.56460478787319,16.47620823594154,5.270588073242881,-15.0832126899751,-40.24014777674871,-59.16805895263416,-71.51919858439176,-85.23609511987287,-101.6517975257365,-111.197368492906,-103.07349165043262,-71.91364514079153,-25.799442741346436,15.710155420905378,40.78933576557863,53.520094898357286,60.82801634908893,62.59217475989013,57.445074594528904,49.54480961872697,44.78443027771984,43.81941491444675,43.89360547395105,44.324587009650514,44.240194808894,40.77711131815005,33.342988869306794,22.117985013176593,7.467232890894218,-7.448059456110353,-20.591410919002488,-33.554721575345624,-48.740443378304526,-64.90307522154124,-79.03589842597151,-91.79686226731795,-106.22174349927843,-120.3336537438146,-120.84914654261848,-94.5002511527528,-46.064121864604836,3.188749091285179,35.00092324199126,50.25209922994966,61.52590766663813,72.90377807617088,77.55915121833789,73.58972368999737,66.44616855317452,59.953403408125396,57.17912649824817,58.722517433150145,58.292068004112465,51.973224648860864,44.375334766036076,38.095344441765796,30.259082720609037,18.12001029549226,2.2741727505566662,-12.449793435292223,-25.17320456322374,-40.25974019055394,-56.61296557389931,-69.06258403512426,-78.86548331703992,-94.16365303001155,-115.99043467330334,-131.13677442782844,-120.51876585562022,-77.4081678018659,-20.46414813208323,23.671351690297712,47.03268613846503,59.369873277608576,70.69016501572462,81.24752562069484,84.46958661495373,76.46195432849935,63.90836647545087,57.07201998835127,55.86041127554396,54.78114989931351,53.99097875204843,52.69162603900401,46.2302005052147,36.14382723658875,26.576220253318183,16.41786352454528,3.2435872705304436,-11.43545260479858,-24.68089011399515,-35.48495054796761,-46.66506920017534,-61.99843799643191,-78.4114407165281,-90.6558038708249,-102.2878437888815,-119.15439287106155,-131.31307850535651,-117.02488574814187,-73.50337572270803,-23.74561185700303,12.752133718407997,34.67076939969263,49.448173870628935,61.535192796314746,68.43772337871495,66.11889199822059,57.27610289195834,49.51466444268226,46.863954628586264,48.20441233731673,50.67077436095542,51.013726598408766,46.39786431440363,37.15525707533207,26.719251561237854,16.56568971707773,5.452763563282454,-6.817153566925547,-17.59805150461205,-25.460793827629445,-33.01009304350055,-41.75002509146289,-50.394325856260686,-62.17159128066738,-78.74309858419149,-93.40006222810428,-94.69069204579576,-71.59819547240086,-27.300752489577395,18.044360522764695,48.590622941359406,64.42588474427595,71.70852284880718,74.56198792846428,72.9836601130045,63.72186410656996,48.845547736427804,39.8887269875599,43.57623769667428,48.92297909443934,46.32864256769158,41.59325551490032,37.36086618710192,27.18512344210766,9.998156864086623,-8.174872615196216,-22.604166098119194,-34.2580352211327,-46.70011330408172,-60.752841653188206,-75.38294801658078,-91.89949679998425,-110.37475362072108,-125.5804010035124,-127.31514828693994,-106.17371165647367,-64.29008136524779,-16.79294972313314,60.0,121.0,80.0
9.598864966390254,-5.731221994105049,-18.89964266848512,-30.019471092272834,-42.13333161604658,-58.14606382834567,-77.76277906695638,-97.27320656607124,-113.99259524025044,-124.63034092499659,-120.69035814413444,-93.83480374920023,-49.17685955594637,-3.5949681695208517,30.54576748528889,52.18859057906849,65.08849821657573,72.42678105970677,75.24386934759626,72.82649230140669,65.5192894233875,57.676824912389804,56.67860175554293,62.6644662535599,65.1541236464501,57.39730901762191,44.807952769433285,33.04690796563457,22.788276741259196,13.819704026052678,0.44804772714329705,-22.406074199243438,-46.64249470423826,-63.09258311662501,-75.04385169002889,-89.9803752579859,-105.65256591273157,-111.05110864778274,-96.41069721937468,-59.34341778862175,-12.492329547171256,24.70438356897651,45.33327489713817,56.06308281867841,62.03524386669316,61.746960974082825,55.14048280776267,47.69056134766752,44.23623276471807,43.81849434627658,43.96792988685146,44.47112444906772,43.682879311904316,38.997700530133415,30.519503491748054,18.13568869555932,3.028982394518608,-11.419140085441512,-24.220223098647235,-37.67750258619385,-53.47036892824335,-69.25419065604113,-82.73100703368443,-95.69854186920722,-110.71236677808042,-122.65542550952881,-116.21775490440118,-82.012611726446,-30.857898967730094,14.543290236745586,40.58523108551483,53.44818483199896,65.00826911607918,75.24844343938828,77.09447738215081,71.62529540633011,64.38414811312398,58.628135295515285,57.349911998848505,59.1480459801192,56.97530811180441,49.65213248850161,42.50222867060992,36.14625251870984,27.261906251657358,13.751768118421587,-2.297841027508511,-16.149201844380194,-29.16785786884845,-45.10106289498267,-60.75058495028887,-71.84979436860318,-82.40425941242688,-100.14390851212109,-121.90456421452404,-131.43981283022174,-111.0419276245742,-61.05979696183334,-5.570274669585055,32.313155875682966,51.15309160650242,62.52945703895915,74.05298657235073,83.2483409914017,83.23389149849295,72.76542009295918,61.10109934762927,56.42519666953805,55.64980984951539,54.42646077281681,53.889763658036586,51.453111412779855,43.446306365326144,33.26931158572501,23.854025152433685,12.936583051409581,-0.9910960978194361,-15.503912869355885,-28.016898480210124,-38.45087600440168,-50.63976923051544,-66.94493434650008,-82.42235667779727,-93.70298512366347,-106.64664170858144,-124.11305760111499,-130.6437183170658,-106.73017822202522,-58.57540670418323,-11.471908150492553,20.301606859959318,39.34431797185484,53.213371135064314,64.2901806177859,68.7706517876921,63.906567381474815,54.627668799350424,48.203226802809084,46.958529196801265,48.93957314296806,51.134840651082854,50.26668643722826,44.06612340897336,34.12663514312121,23.785067729845313,13.518355061495852,1.9490118078439713,-10.222324445478513,-20.117705677161016,-27.514922248540003,-35.48368794199744,-44.225008779037786,-53.25065513997185,-66.62636688204267,-83.62082099577226,-95.72223537533708,-90.78976731950533,-60.27959137709202,-13.31523856668084,28.649569379978814,54.40397312435424,67.16931135253202,72.89006905574139,74.693412389117,71.19622572859053,59.626510833610475,45.05836983907343,39.843349859661664,45.672419011356894,48.93860866780695,44.80900441861301,40.55045832259694,35.27648391918087,22.737604017830794,4.54696274876874,-12.790630238489488,-26.097453041787894,-37.650938611635084,-50.65922846194227,-64.90846412227988,-79.87950703155222,-97.15375089652926,-115.48507457243176,-127.97763957290871,-123.77302714725175,-95.68738943212038,-50.371738959602766,-4.276378804706748,30.717327693827183,52.52456724728762,64.66230384034162,70.59501616612053,72.13900936807416,70.21757912058084,66.64547928246654,63.2016948413969,60.39681666589136,60.271853967200364,62.01067979551942,59.63737708327482,51.17448871804298,39.31366798523718,26.28430703025144,13.161061423700984,-0.13636578608874214,-13.359979115283645,-27.289856899267658,-43.15394906578317,-61.08402857625932,-79.0336978617486,-95.72677091448638,-113.31446749051949,-129.42438444600015,-132.32137198932466,-110.38397481596304,-63.46407285905035,-9.504012269339873,29.573513186164394,52.31515172582664,69.14920717669956,80.46276231858396,81.6366798913671,75.2811546654303,66.95170816557497,61.2054028447272,59.144039750456756,59.90122142285262,61.74499408503745,61.1608768071708,55.13178098490293,44.243265495266854,33.67619879126505,24.610449536689433,10.820567746023503,-8.15324379484134,-25.89310907980397,-39.0623088527769,-49.18666464686024,-60.28668417070235,-76.15849555968602,-96.80061903372983,-117.9495995421493,-135.1482848433787,-140.0183169286846,-119.7846951445895,-72.88089075249019,-18.10531015555399,23.24727153977655,46.45090282900034,60.108320195322506,60.0,121.0,80.0
-86.37444791455465,-99.8211507361508,-115.0365656780115,-123.40193313116198,-109.11409529712608,-68.02451567065387,-16.197045226059018,24.126843227196293,45.02982452181819,56.635735549837534,68.44096524185701,76.81088657877231,75.99226923701842,69.54004505867658,62.43670936057892,57.70596140921254,57.833199953383726,59.19034858978032,55.17033418536556,47.39540356552725,40.72120388152921,33.975344141170986,23.85144300983315,9.140760624626052,-6.630629511736773,-19.75544069472506,-33.47171950840223,-49.9263846245331,-64.44218337764922,-74.55415145044124,-86.62980549339174,-106.55199733513669,-126.81823063294323,-129.1179980966947,-98.90737032510846,-44.263701676400174,7.681315697352172,39.278299886054654,54.687226030723764,65.77743565179108,77.25057653300587,84.44407436308094,81.038642423044,68.97512667856518,58.97612945267015,56.10782300483154,55.341952997837566,54.17246428013777,53.644800537121846,49.680591851609364,40.491258447773646,30.503883188402053,20.997766871440533,9.168952023899829,-5.270046069984346,-19.3919568264404,-31.145898042048195,-41.569539938222555,-55.02387563257528,-71.81108478567155,-86.00207985760096,-96.90109181203269,-111.53236033003995,-128.20735432412826,-127.22480845146148,-94.26291640380573,-43.83952112479291,-0.5994764061355191,26.759529433368193,43.628515130670564,56.79162556809502,66.49015741259882,68.25756254516529,61.31167648030416,52.257549419464816,47.35394839899792,47.32491022119841,49.69527837954063,51.33998556364813,49.04321280291653,41.40890989208367,31.089056670574383,20.871711790870428,10.345481344219788,-1.6260170793935163,-13.415343030970284,-22.398114481244534,-29.6453286227834,-38.03459919151233,-46.6698315002774,-56.51558160958358,-71.43728293820894,-88.11055051045423,-96.61545692445831,-84.61810316329266,-47.48622053002757,0.1629333582193824,37.792542164812254,59.1280269938775,69.34267778238917,73.77723364107261,74.40006788742024,68.67611484763557,55.212123118120395,42.13120710798834,40.85924712180865,47.4689219239482,48.22876724405943,43.365841526093206,39.46647897814598,32.51280628359222,17.785841601852358,-0.8063076679578733,-17.028532141243367,-29.437498719803042,-41.19734742590247,-54.723090848241725,-69.09940037041831,-84.59250402264847,-102.53472124288734,-120.13815762286578,-128.96364001490187,-118.13317999147323,-83.68770421363777,-36.43022327705541,7.242852967334315,38.260085567143975,56.84363600039012,66.90205692666993,71.45005529125451,71.88686396296991,69.2476462541192,65.61153638544405,62.27192305839925,59.989803954763964,60.80988748752348,61.98526085167753,57.71982948913216,47.9804075068057,35.59051983998961,22.500743860681425,9.330795441291968,-3.962502111090396,-17.248143232475474,-31.636356240036537,-48.17220363192488,-66.38958936161117,-83.93299948181462,-100.6273053868683,-118.51184346376078,-132.23769933131422,-128.8511552458555,-98.93683623740931,-47.446526466668224,3.8673320379868885,37.33257711258827,57.50235417634929,73.2591684385756,81.87348349361773,80.32352992932637,72.84141232545932,64.89620715436536,60.26957741321304,59.11149869202088,60.458088965045015,61.98954289617484,60.05590392850036,52.30664742387221,40.924672010770216,31.116487543439767,21.356110255568876,5.612253308872867,-13.657641499093476,-30.178422593390906,-42.142587000631835,-52.10071630049066,-64.27253169976494,-81.78224328196595,-103.05994885011725,-123.55619072868565,-138.3839912240064,-137.20847939264186,-108.46730780795372,-56.73179619578022,-4.1995936309581685,31.572200031559063,50.898359992281044,63.59131558886738,74.52916188641709,79.44167214535062,75.43904210530955,67.18311060132551,62.678579671722474,64.56157138823329,67.83071554931485,67.99093437162983,64.40339049054185,58.34953878223968,50.231217007240886,38.963315342163654,24.769561884118396,9.379754594560906,-5.220832581888379,-17.466041799365595,-28.903816936940558,-41.71865389341813,-54.27769199015948,-66.29726093545115,-81.87870805017337,-102.52245386871486,-122.42613962580248,-131.98505771834675,-121.68813769959627,-86.57126670107951,-35.978079458126835,10.945233663216136,42.232392734804314,58.209999002290715,65.65099361097167,69.83608816307,72.08532680150466,72.83612964405533,70.44043074838754,63.06975616065261,54.906278203892214,52.70101959507499,54.96426056387072,52.52790954422646,42.34731785602693,29.44340938094136,18.80538407786589,9.772251506293538,-0.25959412137501503,-12.248917000453202,-24.522006574083598,-35.298368157551145,-48.26461101616678,-64.72334856242686,-78.60350666430978,-87.96332257899034,-100.33522159742972,-116.34081886658144,-123.77400586072714,-109.52190500340993,-71.50012706634449,-22.90764611030466,19.393022419162506,48.80044759323444,68.51792014938228,78.94101295181186,60.0,121.0,80.0
-116.74197113045382,-130.7973233940748,-120.89903844739204,-80.26968490766718,-29.83926287024969,8.852487283975861,32.33629942632896,47.655670684673346,60.116193726949795,68.00263678060004,66.95338715526727,58.54900231082635,50.27728030892218,46.93075844779777,47.893653306224095,50.39192975125499,51.208068927672265,47.33776099015951,38.52949212153647,28.086705303367303,17.938119647726257,7.029018935204557,-5.196781626656468,-16.343597540739967,-24.513948304794695,-31.913204305799255,-40.58827442688637,-49.1785160829572,-60.27102268353648,-76.43422812483284,-91.93884931438363,-95.75696006175824,-76.19385110822635,-33.769358139891516,12.684920954477564,45.49576366405465,62.935273247534546,71.05194579931442,74.38353583225148,73.57395432461341,65.43550009741494,50.78903345606314,40.315322564307856,42.624102391398054,48.64335851729494,46.998553370221,42.109304393227184,38.12554821962832,29.026930545534498,12.498536615228872,-5.923309751538823,-20.91463900747755,-32.728993028832605,-44.92365454212851,-58.84361085066774,-73.37026288927107,-89.5414189680708,-107.92718265444674,-124.07941157707675,-128.26765285848333,-110.40538965000054,-70.58180403414843,-22.845855593877648,17.638780499305394,44.74377913551842,60.46034711596271,68.69337685473572,71.96545227724052,71.36638202316043,68.20074388774229,64.61264759364808,61.407042889498555,59.88314660135223,61.40783670659407,61.449545034874156,55.33163776305388,44.57267050820959,31.818192303078888,18.716369525630622,5.483415843133699,-7.7731056653030866,-21.23184024163468,-36.17008512185245,-53.35008637858262,-71.62182432414691,-88.73242020642255,-105.68715059622906,-123.4215422076884,-133.59767292659507,-123.07227198242603,-85.55419613270897,-31.465907255033944,15.557735372355744,43.961654619266696,62.42842183611151,76.76711928741193,82.37068279119276,78.51822062117284,70.36840994705194,63.151041974333296,59.62262411648239,59.29904755132308,61.041116963124715,61.93719318937487,58.43396275688908,49.146190395216095,37.793118061357276,28.608340543458716,17.51911227051155,0.08701006943009659,-18.89511773174194,-34.05393650141931,-45.04647771175084,-55.202651980854895,-68.74071205381024,-87.74311321053428,-109.24217693627612,-128.7349989431831,-140.30959679039998,-131.9776057813342,-95.08903653245777,-40.55878260004078,8.170195182565523,38.46030823709387,54.83112761788546,67.00555737763857,76.8280965284032,79.12819037916333,73.13476738403239,65.20071280200004,62.699402146381395,65.63999578068344,68.28352450234866,67.30120092672017,62.844292678072996,56.259710703039424,47.33266246300264,35.0982423767495,20.362425393149255,4.984445523527857,-9.008917952160866,-20.704280978319655,-32.473882911109754,-45.48336742568564,-57.67232614151414,-70.24183337565752,-87.44755431424878,-108.75193976828271,-126.6847059957813,-131.43704512306988,-114.00957623716977,-72.72888270545316,-21.268150309449922,21.78053151985159,48.17084139853374,60.91986020496711,67.08349167024791,70.66601631383986,72.45988481391987,72.61579025856237,68.76790963848941,60.461060951133334,53.47671460944433,53.279579394239,55.076501268807306,50.25920629255258,38.59469600000249,26.060901822593905,16.165840379050916,7.0502612937421345,-3.528135969043861,-15.919639603426164,-27.71766069081504,-38.60642868529585,-52.83808378707076,-69.30341768053684,-81.52980970906978,-90.90672845963987,-104.96497664273112,-120.04307570985871,-122.27608103936629,-100.64072856980822,-57.717781625502376,-9.486419626551685,29.168553256505756,55.31280907395601,72.67979027492456,79.58329117195424,74.62383443795653,66.88039204673076,62.70288184878992,61.03034886293188,62.8192550379151,66.08483364442733,66.02345149217206,62.91270545356604,59.567726712809474,54.97507503823809,43.84908038187338,24.586790290255426,3.5554129614852914,-13.628882410137793,-28.812921535030213,-44.713184853344345,-60.22643501226266,-74.54206437611005,-89.58751847148088,-105.78517870150041,-119.00613519578452,-118.11754926573626,-92.10877442412526,-44.60184824643525,3.623570205050967,34.07849680161502,48.98301986916343,59.53886118556795,67.29314094733354,68.113892907234,61.2723720483412,50.68114727071107,41.79469214780635,39.70839156625184,45.85736705496259,53.169218210722335,52.41584448813313,43.397878438261166,32.32193909658941,20.750135844783536,6.082191748283491,-9.984607107483534,-25.186023028485064,-39.4083867461651,-51.64518976803658,-64.2175105016011,-80.1309875851317,-99.11365166473604,-117.62756067624575,-129.75838535767258,-125.30920794933954,-94.63232658759,-43.8754741803339,5.487523071260765,38.037030868797004,57.10030836661641,70.79025521182676,79.59301330288046,82.23877210610476,79.09950119958886,71.25336319383646,62.38084536607799,60.0,121.0,80.0
-9.933639600155844,26.860025609795407,50.269679653325525,63.463109295592155,70.08140281039067,72.15613451942396,70.62144607221045,67.13305508999736,63.641531889966586,60.67093407158425,60.08645907031755,61.883920372546356,60.341471178830794,52.55938295462807,41.00167021879471,28.03034488461471,14.919032450325838,1.634241853615588,-11.58932884422108,-25.343453863953933,-40.903817251391764,-58.63269826228125,-76.72849081267465,-93.50785707732422,-110.89187949058994,-127.73307485606658,-133.18545388216617,-114.92478031990034,-70.67477660523983,-16.170045169640506,25.523650266082644,49.80336366138759,67.10280828941748,79.49963706460491,82.03632650483208,76.35916608065868,67.98716522087024,61.74252235519471,59.23815175318767,59.67649733338937,61.55673057188534,61.5066835453142,56.28832695039002,45.80136233887523,34.917310225413416,25.948030723666363,13.065815717868455,-5.560307878733195,-23.776965379960547,-37.556244355201464,-47.87709025444749,-58.59667442134791,-73.7076921113523,-93.91768281326755,-115.25689524402048,-133.30819329929105,-140.56352090602536,-124.2107970235735,-80.13912995879974,-24.961053022221027,18.87454032310549,44.152822274545535,58.4773940360156,70.28174423050497,78.45760786045746,78.07093101393774,70.65731629784831,63.73082526928528,63.219003120854175,66.66782780630864,68.41077720879262,66.31131764904313,61.12320728612445,53.980249350366385,44.142296656663966,31.01838166741236,15.901171505605124,0.7074214442041348,-12.574005883827235,-23.958606133665402,-36.18050280976861,-49.14982203932742,-61.07001331289839,-74.61131258175291,-93.41040534133933,-114.71091956416689,-129.8402587787003,-128.9985524721973,-104.21765261680575,-58.00110210181872,-7.344218293229349,31.14817628757106,52.94386995655441,63.10678368548098,68.32618098122893,71.33999937707537,72.72525556885107,72.04824437160345,66.67175351494825,57.957838583200164,52.70026050098929,54.05501179237324,54.565318135412,47.37446515040271,34.7909363188655,22.942825971499396,13.587100990701245,4.196480428545084,-6.973295903258684,-19.527460376989783,-30.788964452394595,-42.241504534464404,-57.648735172381706,-73.46307527434114,-84.15627136633327,-94.3398623319342,-109.75221122475027,-122.6529082860116,-118.69011023430228,-89.8799400846891,-43.503839112796896,3.0428939529326153,37.846834797270105,61.149543871141105,75.97624557965077,79.13128798351109,72.17909069363246,65.31689321945473,61.97633278732339,61.142933926659694,63.863623566979804,66.51145145488982,65.30139039894226,61.90028142741002,58.567072243021144,52.65707586517317,38.95863806290858,18.315676928200862,-1.8432974054960383,-18.03730221297845,-33.32026677312463,-49.332954584985636,-64.42505278325437,-78.73125655789465,-94.22090442082829,-110.26939645954323,-120.8175432162596,-113.40505751086555,-79.9067080174368,-29.642251399639317,14.571504560805534,39.425388745022346,52.18085369693718,62.24966646420791,68.3794738452438,66.81582716884616,58.35993904578641,47.69972245162746,40.301719008249385,40.787732446479254,48.33360386030787,54.01175976969562,50.40130605192583,40.18625219275994,29.152639028849045,16.866329056215147,1.410290096882859,-14.459771588325163,-29.448408080692488,-43.13145080629708,-55.06319328510035,-68.41652590228537,-85.40297091048552,-104.72725151072396,-122.13190091358975,-130.74285254041988,-119.27083557180957,-81.23362733258551,-28.462309528699496,16.7953875626808,44.46552000908963,61.45676699883239,73.92468303096761,80.99677985430372,81.88869972792145,77.23720054500424,68.51850965723956,60.57922040079999,59.220043533785685,63.106507963198176,64.83218468327502,59.24091208868833,47.69752660262531,34.28098344604242,20.955082078319577,8.671030770954749,-3.939408048871428,-19.69762881103045,-36.761697425079994,-50.55995899684287,-62.78481527454493,-78.20155075973045,-97.12304198894314,-116.12043782696136,-130.30211513413875,-129.2052543176611,-99.57300746502222,-45.711414473223996,7.357206546176328,40.67736675605206,59.07475337353052,73.87894982543837,84.88245621434933,88.08763660887047,83.29978741547302,70.45074911356474,55.16899659360663,48.26429686071495,51.056760085621676,53.70485570134106,50.44140387103253,43.95496408441876,37.629619374364125,31.81553322087246,21.53714914170196,2.7063574541244826,-19.725576668768102,-37.14652729499854,-48.17239871432154,-59.91638074052762,-76.9571367735322,-94.27689769215128,-107.15033779884801,-119.57926193403863,-129.9883909196742,-122.08541502885903,-84.17098435572927,-30.05258807605716,15.70604701669535,43.766765396830095,59.171942816661854,66.21633476459297,68.0973372203377,67.67509557673482,63.0218463307761,54.41109510313506,48.03004697387587,49.42012538711189,54.88929291375643,56.21062137408236,60.0,121.0,80.0
61.99304298846144,73.28376689896479,79.31733914294212,76.38491838911752,68.22731717779345,62.866549360515066,64.08912098926143,67.52131624104304,68.2005396460503,65.05787768147296,59.25832418727627,51.47342355231209,40.66121527643442,26.770962187606635,11.43070291018524,-3.397960841608711,-15.952744778572725,-27.310472097501837,-39.96709095046112,-52.68733346436281,-64.59336375317444,-79.46971698484438,-99.62422079944928,-120.1561322691195,-131.6601428953112,-124.49316540720321,-92.51805081171183,-42.91274495614512,5.472913960678277,39.05729721616874,56.73713638709937,64.914561499024,69.39809646027399,71.8772765968781,72.84671960743503,71.05481844997868,64.25323787014197,55.76252957600201,52.57097586561806,54.747478439395294,53.3394803351337,44.012191081542106,31.086451730532566,20.066156493421115,10.991723906099985,1.186260309333866,-10.562856027262058,-22.988568632324625,-33.850351457205925,-46.2720708278027,-62.51692381100417,-77.10278049845977,-86.72533594234635,-98.32598280115579,-114.37013034482806,-123.81463419568894,-112.91731799763369,-77.57707341543501,-29.320251126218047,14.498249548768559,45.543584114634065,66.34673085017782,78.26049914973599,77.7490479126407,69.8152144213511,64.07960101733693,61.421805072670765,61.60380317481712,64.90082363931043,66.56936294385248,64.39238511821961,60.93287683078884,57.375852698885495,49.64150235319051,33.43227825558923,12.120476140396171,-6.856244329464848,-22.38783041212066,-37.917530218533045,-53.85780656833461,-68.54131920346693,-83.04091228763762,-98.93097115311745,-114.35163738648191,-121.10369574188533,-106.3884204044931,-66.1963127866503,-15.258794144442575,23.73494679064898,43.75903096109026,55.24770230360687,64.64053703032326,68.78793511660045,64.91579273550323,55.26114867433208,44.99236639624575,39.500513546932496,42.52353311663039,50.64511311118104,53.994986781001806,47.813694319673786,36.96232200718344,25.891765187124648,12.667140328316036,-3.272168715340485,-18.856735199235587,-33.61201416743505,-46.66906045701943,-58.61399202240844,-72.94153816467428,-90.89111621543589,-110.19006515437678,-125.94386943150701,-130.02782639939343,-110.87442952283916,-66.52075019306923,-13.773494372769218,26.498310646339828,50.025566252717866,65.49542860711334,76.59709598234282,81.87448348340263,81.07658383104054,75.00748308739061,65.83464299268576,59.38356040310345,60.09318373196321,64.15502694546142,64.03838534863701,56.3144743388408,43.89061398163234,30.36418545280187,17.29416626076187,5.205661297315554,-8.120592972928058,-24.73043618478462,-41.16973979681912,-54.0059449209219,-66.79275517440489,-83.42096844046338,-102.78936545739246,-121.00658321644627,-132.23163824725106,-123.89042531291308,-85.62923225311285,-29.06061121838887,19.217440734282786,46.8981262617192,63.490440339533784,77.69812453168878,86.64998389263195,87.54074490425482,80.34398006749787,65.80376231123464,51.95339715446245,48.41168355955003,52.294744994428775,53.34434445249315,48.71086445580561,42.017415100055636,36.01220057797803,29.615397675585996,16.931375388241825,-3.814939117370958,-25.546862200073054,-40.76687843310395,-51.128496000771875,-64.35116312626656,-82.30103523194963,-98.38919721609065,-110.57623100628953,-123.28904756306343,-130.4703478836291,-114.1071846206768,-69.03935099198684,-15.148179738793978,25.529419084024443,49.23795697120304,61.966868817699826,67.09209003884983,68.22621371108136,66.87966176158868,60.74807458185923,51.99670763033607,47.57847826750572,50.99318197828121,55.92179378249154,55.39760101584454,48.975043411460454,38.357772410877104,25.866324166945486,12.717591856186605,0.5850605551856252,-10.129044197519237,-21.94199749234613,-35.76406776685724,-48.998244014979214,-60.27127978877511,-72.06523895696054,-87.19183206846661,-101.8629308253771,-102.4967331663527,-77.91909490372255,-33.05141151541895,15.331156883427004,50.01737946378163,65.2737908929444,70.79587119726274,75.44484729744362,73.40408574427946,59.55399908442605,42.74989461097883,36.624258570793884,42.34156818328703,48.61240706752877,47.92504969771714,41.54613736313185,29.926033862422333,16.221344133862864,6.536066899463762,-1.1888639307133322,-14.485531002653051,-33.60546641169847,-53.52871325035035,-70.57410939436343,-85.26816732213771,-101.44127824002214,-118.90366835863603,-131.23668742994863,-127.46956295664383,-97.69596716067907,-46.372925069588796,5.6908080295904675,41.260558197834825,62.484961984481565,78.00830751035603,87.09221232858188,87.81779035828974,84.81553114367765,81.92892697147376,77.91404471900626,70.40087994718867,61.17135325863791,54.96802919192687,51.21209697391354,43.80653202607189,31.389966915181137,17.714913265295188,3.3184460238560667,-11.95521786357092,60.0,121.0,80.0
79.4284872593972,75.70302988621579,67.72458265045327,63.09284753184387,61.08940081529586,62.380282422786365,65.77359254394165,66.26922615564764,63.3864640591236,60.000402152786805,55.84210309198438,45.85650836847899,27.44421310041306,6.17735892986155,-11.547093438955143,-26.767660691888345,-42.56742481187739,-58.2493395709272,-72.63977019784835,-87.49024175947027,-103.64298644942389,-117.75522395394516,-119.53823067144916,-97.10472905401879,-51.5218512810348,-1.9956509784442016,31.173590125098556,47.43010347081955,58.216047294029174,66.58201492409329,68.4883678144346,62.51504740210169,52.112417265925615,42.68704581459412,39.46261093470566,44.73872703633792,52.518661251561674,53.10363408920293,44.844272604140045,33.778322684588396,22.43493089872592,8.20355433102949,-7.888758090858264,-23.199695846379857,-37.62309851897814,-50.08497020278056,-62.38588481245311,-77.79156321949473,-96.50871530770665,-115.37211380595473,-128.82346531602496,-127.30725764019428,-100.2285757752978,-51.07351717223763,-0.2588295348862034,34.70174984371808,54.972249547205294,69.20446222788341,78.76778063476122,82.23859823724334,79.82176861278491,72.48493798503229,63.38315651208949,58.85362015358117,61.27002836270579,64.82561281161166,62.55784891340074,52.997613294941985,40.00890241801714,26.486067002820008,13.737923011674257,1.6420320521970584,-12.624815067754659,-29.75352369873112,-45.21152450205795,-57.45179496735836,-71.16053117152767,-88.88632254937961,-108.36124385437446,-125.36786071362387,-132.53088922009,-115.9057770382865,-70.03645239824986,-13.216792607123633,29.182006094722368,52.21617954666527,67.80844259251673,81.06167584208134,87.72083634783777,86.32943957568575,76.71378937499571,61.18969153622992,49.70458974425972,49.236404690354924,53.22741783415022,52.46440797628141,46.821277896174614,40.15716601096069,34.409263611956845,26.85698896852347,11.582953744046021,-10.42326057578788,-30.751941889846513,-43.93383064357702,-54.36917602151631,-69.25468794706288,-87.44875506387699,-102.10928836060246,-114.13099417710471,-126.64420265603258,-128.89127802611378,-103.53244820020707,-53.161688239784716,-1.497195650504122,33.871945056659015,53.83214455162955,64.11260429195298,67.64799503719257,68.18845467749009,65.64334231260757,58.21941510075559,49.96327068325942,47.86510808936521,52.69283640176795,56.44074797513358,54.08893388770635,46.234459663627405,34.86249110627174,22.087708516515576,9.021959219657118,-2.5742219413382896,-13.313489071565582,-25.800170911963075,-39.7838223114067,-52.40875889724888,-63.45425648825778,-76.07238620775698,-91.92220943114239,-104.20854011686636,-98.0934671012623,-66.43518913975905,-18.56773406517957,27.31419151470995,56.23889832667389,67.23299029192627,72.24909770297154,75.98487876213339,70.48880933236374,54.32444801827747,39.49376218474137,37.44060901487376,44.64376047051789,49.15306796272298,46.59190919074596,38.72024485870135,25.87220217900245,12.875589011683147,4.463891352575544,-4.256345591178598,-19.6128519752013,-39.498142775387834,-58.82517470616174,-74.90414240290677,-89.66211262439401,-106.53969121549133,-123.40222745256007,-132.36304685568356,-121.72229146117219,-84.3659118816063,-30.349408082331095,17.933717206193563,48.391067639937205,67.39539896425637,81.4994517508155,88.04720602861097,87.06955248022112,83.94018742708359,81.02570363110371,76.12737959602981,67.69986714598862,58.92365030215643,53.876672893928884,49.6737992726496,40.581872042323155,27.448493268622183,13.697377641256953,-1.1035315924541125,-16.08600898333683,-28.04692884053914,-38.264923729330505,-51.396017384901405,-67.58348337725788,-82.38727346408082,-96.10635949703305,-114.56496936724503,-135.42965095856275,-141.32155529853628,-116.21736689168668,-65.45952920842358,-8.827991998495287,34.94821712600817,57.21686437845863,65.73046748348594,72.52109092419353,78.27926924801066,78.6509122500853,74.11139662860755,68.23549555790687,64.98775739700947,65.6237561466839,66.38371171499458,63.048873774351165,56.52706569403349,49.07557639008694,38.71913365172087,24.159239284117625,7.719625947038047,-6.355447615462958,-17.969920063050914,-33.06599118382296,-52.63525657713048,-70.79286665625094,-84.34126561764027,-96.76519190027688,-113.137916469162,-131.62158041933438,-139.2086538072861,-120.07394421939449,-73.48884956190581,-17.90799505638902,26.299543916972056,52.939355691427565,68.2194387488486,79.40999865787477,86.04874723055849,84.89370301392161,77.82209249915677,69.26182615132916,63.59557544937559,63.92454954192955,67.96132021387503,68.48431275929836,62.42199238151551,53.39278961513877,42.73593322343597,28.554022283527157,12.473312858410708,-2.277900629316828,-16.125340657570018,-30.890891558498122,60.0,121.0,80.0
61.34078287480474,58.9714585325655,62.544040823728544,64.97200106566018,60.42328256166183,49.41234626171325,36.09106246546036,22.678833560855498,10.261088297476606,-2.1168721871909244,-17.4157276718468,-34.61314610851809,-48.92820835172498,-61.04477155922075,-75.89881210320749,-94.5069762499716,-113.73730400983423,-128.9754055617062,-130.7932937361157,-105.29060919569042,-53.47121528539773,1.2570089419975068,37.3992415160541,56.983738412342994,72.00940672977421,83.83126520988215,88.12173268552549,84.4213569180274,72.52224728834756,56.928643945521564,48.489430061497856,50.45088585694169,53.68168198307436,51.1572047406953,44.86161429381681,38.40233605736225,32.692271683592566,23.394717727019028,5.615863027159823,-16.870874717939085,-35.28099192409141,-46.8499166069451,-58.04794036222389,-74.48776542616066,-92.22647585188452,-105.58287078078776,-117.84035408133123,-129.21121288273446,-124.8483966276447,-90.70370826972479,-37.23451142425702,10.645483928576532,40.908545939063906,57.652870046622354,65.670982230625,67.99117218233708,67.91028693230228,63.9484582605498,55.59888930901533,48.48578969689669,48.80875641356429,54.26644556849445,56.409137811135814,52.31825400834816,43.19505537554582,31.265776930111862,18.269065705940964,5.470512097167955,-5.643950650974567,-16.66743248309322,-29.80697535192918,-43.66583025931049,-55.662119715480216,-66.77546705385869,-80.40726383615785,-96.42755331405596,-104.95887174541458,-91.43525022912004,-53.5407642468171,-4.271552799979602,37.78719860898041,60.85208307190499,68.75832424505205,73.7072607617425,75.69301107628189,66.5779725328182,49.20717644695886,37.42495097985152,39.09352444129621,46.651210074272974,49.054609275523276,44.85057919913403,35.43078632398331,21.7999538338334,9.997131452811281,2.3774758530103726,-7.954566366359579,-25.130572114022176,-45.32724648872854,-63.81761593534184,-79.10583217237551,-94.28123037555888,-111.67088819277676,-127.27192924803364,-131.83146277681416,-113.61757061207153,-69.54530795089225,-14.88471537020187,28.537849341785734,54.576769736269384,71.98370980173988,84.32603296296843,88.32806716426505,86.171505897016,83.11735661738098,79.95155206122585,74.00944470053557,64.95518263264057,57.04765201045191,52.88105033560339,47.66748901012163,37.000110875361656,23.497785417323218,9.576471920390668,-5.5665396431130505,-19.92423230939825,-30.96839660709893,-41.611196763815,-55.93924905925351,-72.153444286965,-86.22919988476195,-100.75914803930333,-120.88274605627677,-139.63668669541735,-137.48174028194308,-103.41393010266117,-48.77181212512275,5.798216045006886,43.549879719063895,60.43984862024523,67.59309899828753,74.52116736133273,79.0255603616226,77.70980955258085,72.36838179736053,66.88000849510199,64.85695755741456,66.07221173439908,65.91719007694877,61.328738908640695,54.49317318287158,46.50714864713188,34.90203799277039,19.426345705466073,3.2491882746364653,-9.744086641851059,-21.741629952374026,-38.465342222443546,-58.29415623437147,-75.13950836870706,-87.77554205589026,-100.97554736550109,-118.63126471630382,-135.72813226658943,-136.87999122716292,-108.88932849429582,-57.29375289660196,-3.3714055884459824,35.67512305750075,58.11291723593596,71.72340021341131,81.99481533420048,86.53845802637241,83.26598415643159,75.30836938315242,67.13762386616439,63.03812521739155,64.99319884559944,68.77409972681306,67.31457903380354,59.94295498243137,50.56660362974396,39.032163416518486,23.91724998001311,8.024892962337619,-6.288554027093374,-20.22842362104632,-35.47218954786576,-51.65171586286893,-66.08152192334629,-78.47114615540254,-92.84572745461288,-113.47613788851933,-137.36851599179042,-147.70749507943682,-125.11888389148815,-73.22225749603791,-18.466524457461187,18.410272668355585,39.82791000471489,55.65315833137939,67.15267947212845,70.10646344395923,65.82210912196813,60.1411792069927,54.098646807756865,48.538687979064726,47.51548401312903,50.88305266402903,51.38393863278545,46.31448771883667,40.05062830666477,32.9931854334409,22.460892801554255,7.552699615507252,-8.499899137540979,-20.96383798103976,-31.20388333298457,-44.7696536464379,-62.08529566017763,-76.88181069702874,-86.43132624652958,-97.68116357064129,-110.62833969107612,-106.63866964233601,-71.4243517204798,-17.855199719797398,27.493276660401303,53.1444878166677,67.45583479097266,78.73366082089481,85.67198747173113,84.07213108331409,75.91354320611352,68.09260461994084,63.423749440958055,61.14732626499074,59.987004478121776,57.21767823409006,51.8871666184436,44.627167602339114,33.6774663127843,15.783982699484952,-3.7678858062907756,-17.026728709733796,-27.70257871301518,-43.87019044627816,-65.6794787731377,-89.51675758305295,-114.81848137654211,60.0,121.0,80.0
55.83609381198164,50.120602296076996,39.92489909224297,27.58717730784199,14.456697131309365,2.088334660166009,-8.700961724297494,-20.228366634114575,-33.88497936161247,-47.361811452504874,-58.822432239055914,-70.32844927121315,-85.01220482727564,-100.35718845078532,-103.76830897030524,-82.63644236210808,-39.657567487765235,9.374301912522265,46.564530969698325,64.12202059273942,70.1483108907486,74.98650260930849,74.38009499720437,61.891217639489156,44.601476953463866,36.60181670595088,41.26342227846784,48.138894289735774,48.39412877599317,42.69140849329272,31.735102690995788,17.90717138958317,7.551213144274972,0.036044546540161954,-12.289465133184052,-30.899373871393593,-50.99346618987442,-68.50547753335468,-83.30181288669436,-99.1353261713135,-116.68279106424778,-130.2474409326465,-129.34405094524706,-103.21328181284473,-53.785872662570995,-0.48383286674852477,37.57175085501453,60.09952667958491,76.21042793786178,86.39896333465612,88.07197146369776,85.23747903990386,82.3117459643373,78.6265596188785,71.59466991633086,62.314283388547025,55.5486700973498,51.79487950745344,45.14196253190949,33.189826114637185,19.54547668630318,5.323408908983748,-9.973026844908842,-23.437093778560477,-33.84641623088432,-45.31438797668915,-60.66085459053127,-76.48907696845068,-90.07895379160055,-105.97191429374354,-127.18931567195261,-142.03981835251327,-130.797896774943,-88.84346693289856,-32.11853189336621,18.940547237948223,50.285508312409696,62.86940719313181,69.53770024332572,76.31774952209089,79.24179157884404,76.42382635235644,70.61176597133618,65.84081821595973,65.03212989672117,66.39526389974614,65.03330526031358,59.43377252924145,52.396590387175536,43.614613373564545,30.739514901899177,14.621546961309013,-0.905749748738955,-13.014612324414431,-25.973984352166386,-44.157604512945326,-63.66316240808842,-79.08923585592443,-91.26266593778573,-105.61819310515669,-124.15940941258285,-138.49653698774682,-131.9764416835642,-95.61636240116661,-40.940267657167766,9.805730493151223,43.600497525646546,62.56725944713515,75.01827914453665,84.09206918976939,86.33180760415253,81.24547303639446,72.77590841038545,65.36432002136641,63.033304749469266,66.24158067439164,69.09477117166833,65.61224415359625,57.339651400794736,47.570732834479635,34.98799805007963,19.222234895710994,3.73873960607955,-10.268044988176083,-24.45331235205397,-40.15382569212984,-56.10418806076387,-69.75701052293762,-82.18198315825566,-98.08271827116954,-120.5082038831596,-142.79268866345535,-144.99412445340437,-112.2110420003563,-56.386908815698725,-5.6800580763343795,25.675124321765548,44.72063280956019,59.597193761845105,69.00488665395311,69.33710462439697,64.16289332966868,58.48053524154011,52.282459147239855,47.62320320044233,48.282005061161726,51.64760523382861,50.334537289957645,44.475180265682695,38.21851009843155,30.398342931197416,18.55682440633557,2.7777448226091273,-12.563194902509641,-23.90741485152772,-34.59541460754176,-49.59613086332249,-66.9213001743521,-80.00693900514162,-89.15243646662788,-101.79219980692497,-112.23952636267124,-99.6446918030929,-56.65163739947849,-2.9214450109770405,36.79027132326369,57.90568227950162,70.92423151304934,81.40499753412952,86.16880719434467,82.09258955537902,73.36885665475576,66.44038672285778,62.55349160046972,60.80498587420871,59.45343174791372,55.91619027476632,49.977668580331134,42.03954586650903,29.20711694854846,9.834588054218953,-8.33801656033258,-19.942035173603745,-31.630456424591472,-49.77200470279122,-72.44671514872425,-96.65967662121918,-122.297721970515,-145.760108276473,-155.5486545894718,-138.10612422851702,-94.11109517865208,-40.01082845071465,6.363783077811,35.980254083151564,51.94127118124501,63.83685280896873,73.3344741150532,75.09454995484136,68.9051617260567,62.92496924502645,62.30573032424862,62.859136179565574,61.66433720973016,60.85985044031221,58.423895647041164,50.32200556066403,38.35780867654154,24.6198036079481,7.798643788134836,-11.735401179627939,-31.110562600078783,-48.25315095692175,-63.66326003265213,-77.72770158791702,-90.61096320845657,-106.59664085964151,-126.23881472318138,-137.04084692321726,-122.29611435342721,-79.0843725126812,-23.53853568044815,23.0275446337534,51.414567059989636,66.8435081129489,78.16819132018863,87.78904254997734,89.07396082201832,80.08082221969937,70.93280938070156,69.2689836330287,70.78124911587645,69.42735119687302,66.4989947163376,61.485122463687375,51.50775789865283,39.067058922858344,27.274005321896436,13.696682195137672,-2.1993459379890705,-17.25673878423529,-31.288454878442863,-45.68682832249939,-60.77795282614824,-75.73483120074499,-89.36828516344904,-103.80446662932837,-122.32585872141627,-139.4578314180373,-139.38414218348254,60.0,121.0,80.0
-14.213970815650066,-26.648350114364316,-36.82265281404615,-49.396000628206544,-65.41753973196455,-80.57479546423635,-94.12352948393855,-111.74536154217888,-133.03481790959992,-142.14935675040954,-121.39250659345788,-73.0253297416392,-15.976048729230405,30.332367118395236,55.356072129991105,64.86940230960136,71.57290334795117,77.76363977802475,78.94586819878339,74.88219627098711,68.94524333629298,65.16923619628393,65.4133147796597,66.46542465629476,63.75377567641773,57.453576875306524,50.169536660555806,40.35251369007685,26.288422940507875,9.863148826630328,-4.71072778389308,-16.35390660562407,-30.715457977103444,-49.96773403962241,-68.64266619361894,-82.73106831116357,-94.95636173009505,-110.68263861162245,-129.4051742430633,-139.474375393924,-124.425055760938,-80.73569999735663,-24.99013737241675,21.457387064256487,50.246973002443816,66.5180812916409,78.08994774187221,85.58610049598921,85.48004146594288,78.94605866759318,70.33027940021287,64.03661380837379,63.541869734874496,67.46472938359791,68.82100252049037,63.49800247708877,54.656965417899684,44.33062816164064,30.639855295530044,14.576168653029617,-0.40478833961420707,-14.26434905059184,-28.824621442268324,-44.87002110509519,-60.334692203664595,-73.30289543219858,-86.19101241960732,-103.926236002236,-127.63862537191403,-146.51531743431582,-139.1521970119001,-97.25566553836728,-40.092000954406245,5.322417495124142,31.921975169448537,49.34086298338488,63.10559107701973,70.0325534561817,68.09678016437738,62.51654705053677,56.74829178698893,50.577040807854964,47.200469673327405,49.32339126321434,51.95032372147516,48.87213755118014,42.659118459014664,36.256184210986866,27.45426526749164,14.287231852662593,-1.9578486517983278,-16.23474932844392,-26.78218896577973,-38.4037059213176,-54.65474390051636,-71.3535983270026,-82.72624334637594,-92.27088594960757,-105.85448422473279,-111.8220468091341,-89.90246456450592,-40.94634787081995,10.677805413460531,44.424518781421774,62.043416640500766,74.24668677433208,83.59917557356212,85.86527010159924,79.70729512449466,71.0237528324089,65.05006529573853,61.863981191747456,60.50956040251557,58.71310114228433,54.40870458378515,47.93010259014147,39.045968252327256,24.101973996493932,4.003649922173513,-12.25479338545101,-22.875135062118574,-36.16674158516381,-56.05496012433655,-79.31005534630685,-103.94980927809151,-129.65080804154127,-150.6831117871774,-153.66484972823812,-127.58651067659008,-78.63007018335828,-25.209639579160687,16.744776357904406,41.5649572646668,55.485576302619165,67.0398717763722,74.83199466642063,73.8673884624794,66.74052595814659,62.25316849474276,62.61337359314646,62.62323196893944,61.34230112667622,60.566416474816116,56.699144775730005,47.08905373671464,34.59949798864048,20.131163526242577,2.3265778596159112,-17.48337825439536,-36.317251889479465,-52.8231150621556,-67.90505584165798,-81.45866836144164,-94.68443442479345,-112.19874205742063,-131.088721427942,-135.9208662432646,-112.32654218162395,-63.27767142880566,-8.431031205600986,33.06913287968419,56.7757786707778,70.23967120468187,81.30001927325507,89.35787022254623,87.23685232481927,76.91468661554879,69.66358099576176,69.77084629120819,70.72623019070654,68.64371679621767,65.43395488479565,59.123980002917165,47.938506426433285,35.61942484931917,23.681255138933864,9.202569206964943,-6.7250047840202924,-21.34021736146187,-35.37981344769931,-49.98257159529935,-65.19002752122498,-79.79981135357873,-93.26323490767656,-108.72805173356107,-127.99610330803817,-141.97555836656426,-134.03430774116453,-96.62773331973882,-42.432723123455034,6.782710548952971,39.01265683193775,57.43196637257301,70.72729515319898,81.91684889053566,86.01497299952045,79.13714608208798,69.11948880852526,64.46721258804112,64.09407495237767,64.4475739507895,64.06692824812777,61.316711489521445,53.96033493007567,44.0217672512826,34.87623570796283,24.161335913086525,7.821145422311747,-11.980285309322092,-27.63449141385586,-36.60166153309334,-45.31208266716569,-58.231761931440396,-73.44363053933111,-90.03552380481523,-109.07796811601165,-129.3002332066612,-141.53664493479377,-130.85571325225953,-90.242680874655,-33.612070278924556,15.035869378046845,43.69006806717472,57.99842495711263,68.24860877321808,75.47357401891749,74.6415185015053,66.08283479286204,57.06981358309993,54.08311561206001,55.11259176385872,56.17671078038308,57.31456972811997,55.50900671429997,48.04544099579979,37.797196472169254,28.167545671373365,18.35636562560262,5.250955405571269,-10.592466658795576,-25.90042667115444,-39.98520853780205,-54.773445827720984,-73.18755492004867,-94.19648334302167,-111.71352522906894,-116.77919936278036,-99.01384851290763,-57.35243759550884,-8.95258277373797,60.0,121.0,80.0
-33.344481873028265,-49.53873929681838,-64.32171814780597,-76.82291429613923,-90.62670927206744,-110.34837298955068,-134.4641818272207,-147.95246021589796,-130.21491737179434,-80.96629536569127,-24.942270511056222,14.63024526020476,37.45087772262274,53.72227102991747,66.03539960491607,70.25289731388695,66.5731363427694,60.891950986380635,54.94393494590765,49.10456477489203,47.301374470316766,50.4226256504151,51.694017509327146,47.151817691588015,40.87439440846586,34.084225916891086,24.128102493509143,9.724553695320024,-6.50347531351379,-19.5405789490853,-29.755391266605223,-42.66258077151303,-59.76571098058394,-75.26579621078737,-85.256309282193,-95.87304600609296,-109.36229974606374,-108.9078953623018,-77.72393835535657,-25.050052474885696,22.603098582463467,50.65602115404601,65.802594129552,77.37897139038189,85.18135277867503,84.79595768632227,77.11990526169632,68.95020298595641,63.889314021809206,61.34033784232539,60.17675005162089,57.742937206638885,52.71968419133235,45.71914787385988,35.515272655353705,18.486867576549272,-1.4430237907608783,-15.61429973712283,-26.07808221060115,-41.31037302889253,-62.600898722747985,-86.26960405403432,-111.36972589438557,-136.67288259455717,-154.0955525357923,-149.21829446955255,-115.07193680380712,-62.80205759934963,-11.433581453075533,25.60879475710099,46.21753235782988,58.92138044777985,69.95239980273176,75.5396066422384,72.07033140602412,64.85306211497779,62.04982308040675,62.84640162048574,62.25295397250427,61.11818698114682,60.0061076759759,54.44148883303095,43.64123265741127,30.695763362920452,15.338026447583868,-3.324018204347837,-23.13791188497227,-41.308323226798414,-57.28935848775312,-72.01340675931165,-85.12050275537604,-99.172173800042,-118.01526885451409,-134.76145389543936,-132.29999657919143,-100.10790865878316,-46.99455350980806,5.451035217349222,41.53961518991339,61.28617814651481,73.49342486075172,84.24586801869374,89.99805269552957,84.63676903746541,74.06395486510945,69.09862045159299,70.31443907093568,70.36156974296547,67.81270220688018,64.10939405192352,56.302939173666275,44.29561610436623,32.24799301326141,19.83321258411638,4.5757469244331865,-11.107529375359,-25.378531697893145,-39.52424913252365,-54.33856374196049,-69.55144198136757,-83.73763016147332,-97.32486189212153,-114.05428026913248,-133.28552090232213,-142.60269804013842,-126.06987117767343,-81.71668262828578,-26.870507454703024,17.948956834556846,45.34641956203536,61.50698384122603,74.26571065930949,84.16864845317176,85.02339285887352,76.03207577122738,67.11394370479152,64.11230364787984,64.21570202875185,64.4574765987338,63.6316256639288,59.69319880330234,51.13948596510735,41.28079881377756,32.17408914067916,20.0786691434887,2.1559503076637463,-17.239274728091573,-30.741415844116226,-38.79367589558229,-48.63614432212459,-62.49709477876616,-78.05955752460466,-95.24396401903796,-115.02451892462622,-134.2850338502452,-141.4241129061688,-122.00266783590276,-74.43992762359541,-17.840997602621268,25.394524782549517,48.76745516355529,61.105817275966835,70.86586599251054,76.2145972780073,72.72780034764104,63.1320343843431,55.50152166342292,54.22922147123687,55.44094284633127,56.53508172892769,57.3113098167519,53.89466487877652,45.167855611202505,34.895977934688695,25.494411123033565,14.994172458347819,0.7991802354450341,-15.165652471803636,-30.05093815049916,-44.045928016069496,-59.646617792777505,-79.19449192130638,-99.95597479247274,-114.93234093475606,-114.35477976718792,-88.99306277030449,-42.98810541580432,3.0557560712000127,33.03812398555087,49.634832251515,60.194060869415516,65.03855567338884,64.01519673535554,60.235599482338905,55.20932761603126,51.139692014411985,51.59860735480934,54.08590319243442,53.49802892524726,49.70928167015068,44.70277924726345,38.03750303411769,24.87772077838999,5.841806006401518,-11.31064302606927,-25.946177958881535,-41.94470835825413,-58.2632984576954,-72.92816531268002,-86.29961814458,-100.13706970517136,-118.64534763540647,-139.80741684766792,-144.09412655144126,-112.30659947229464,-54.844476865792174,-1.5762737038875352,32.62142663309525,53.4694472473947,69.19077700528167,80.88380964724269,85.53930969736442,82.9045424119324,77.5225195612321,73.74465865355822,71.09792378441495,69.77379463944548,69.99692121751418,66.87163507003143,58.35676657103095,48.64414529475086,37.81322176381057,21.546696148445694,0.9046019013454313,-17.240258052920616,-30.094805061010597,-41.43218346954839,-55.20861444509923,-72.30934335207259,-91.53539658208805,-112.29420822253698,-132.693248530628,-144.0492678634749,-132.14258669379214,-92.63838064462226,-39.68964716376756,6.449544006431049,37.03543797737332,55.99579516273892,68.76032331807862,60.0,121.0,80.0
-118.85510303006318,-143.0932698142787,-155.59824730907445,-142.186301169769,-100.9944183678599,-47.094702982275756,1.07346022764356,33.01590961703657,50.230281635684065,62.304172476261655,72.40464763097472,75.41974810036264,69.93300192949783,63.4127771128873,62.18038136402341,62.90334921175623,61.84201648512266,60.94769745696452,59.037468513126,51.712012329363276,40.05121503713962,26.593669931840108,10.242061972407383,-9.073876506673736,-28.63868728031404,-46.10085702748377,-61.67187125458717,-75.96207386928103,-88.83689250800342,-104.14420483240643,-123.73907331977364,-136.78376540792897,-126.0551672388507,-86.04768017882283,-30.814883025918245,17.850120173683962,48.58726309918168,65.18793012753574,76.69941703471906,86.80505914895113,89.60403287259153,81.56466313030388,71.76427703953385,69.11696721383647,70.6974344953903,69.75885765524072,66.93420750150479,62.41462478351663,53.09011245569355,40.693995416222826,28.866697060449592,15.695964102074317,-0.0744735909019481,-15.344827024459628,-29.417131518039298,-43.72779548331727,-58.740517503190766,-73.81345220730039,-87.59538708062344,-101.67434781410618,-119.6824660109736,-137.77874579517484,-140.97220778686477,-115.63501969112039,-65.91165239784668,-12.244414429398807,27.561035005125873,50.73736491987496,65.35073731700521,77.62258286045468,85.62671963238559,83.11288874729809,72.97550395669803,65.67254255886651,64.00659591253466,64.33398436428664,64.38622499987582,62.94228009308476,57.63571905931485,48.222323873980926,38.65185279537824,29.21481685598425,15.45546334968422,-3.6619223973012978,-21.9426010597973,-33.33552813599662,-41.18506214571213,-52.330870759136744,-66.87830955380531,-82.80323951043917,-100.6934798955966,-120.99255869637521,-138.28591168106541,-139.00961288710582,-110.6353920332526,-57.864019007617095,-3.3070428591256675,33.982163728049265,52.93205221177444,64.08391737011723,73.13201564242233,76.15863402072759,70.26551013414687,60.36858772210299,54.53863965535719,54.56163949112603,55.73185192277666,56.911817295459194,56.931816614798166,51.79716471138076,42.17383361459177,32.10153294168155,22.737823329003362,11.281404285350908,-3.804410675422454,-19.62322387107179,-34.114410915209305,-48.23465316856882,-64.89152344275463,-85.32870583544369,-105.24922555026376,-116.86304944483044,-109.76842300361353,-77.11434754169451,-28.654808978184008,13.5656441545602,38.79013049065374,53.16447139592993,62.27279977986399,65.2252953938686,63.09110443127068,58.878988181391755,53.74530249626912,50.75895302045486,52.3887827961466,54.33771080554218,52.637564272577514,48.32448577971768,43.10528256522078,35.105462915282565,19.64585212633168,0.4511828400827554,-15.586141977512648,-30.372136089997987,-46.76277129401222,-62.68244142843523,-76.88329990427933,-90.1023331678543,-104.82519172798504,-125.02193237107076,-143.95148347858697,-138.8371734937808,-97.07029330004775,-37.865162908070914,10.258429418456045,39.55657699632912,58.340775504307594,73.10759688700558,83.05671949017561,85.40420863987877,81.35914139269396,76.21762965576836,72.92163536323449,70.49786780039983,69.81013109792552,69.69447185158306,64.82057071795556,55.515308973650356,45.82074552444609,33.791870421139635,15.768840400126255,-4.879754618611695,-21.40388533635109,-33.306381571875455,-45.05971315253254,-59.84683089904118,-77.69657766947617,-97.38590757861468,-118.44035032839797,-137.5109011970727,-143.54269097045002,-123.24540449931042,-77.76742984019982,-24.955936968737173,16.863562128095325,43.40004465751812,60.19730323176594,71.53547486235772,77.77686523740772,78.03909935290962,72.81163466825855,66.41078258638545,63.188690006714516,63.191359158955855,63.834158832307196,63.0971000752495,59.35302676605688,51.422955549955475,40.16391695009231,27.35651495431475,14.902741076370907,2.063878435292146,-13.546606033691099,-30.936589904964844,-47.801888830931446,-62.36892283097355,-75.58736949975115,-91.87122950198024,-114.03819789052183,-135.61833314237236,-141.86781083013955,-119.02429292964547,-67.83716688959478,-8.6190813970071,35.23108543405478,57.08031052863965,67.47150286383533,76.55265923885949,82.88279157879802,81.80449459582017,73.27825061949989,62.58938249412878,56.81818950882387,58.40008813611949,62.62013864039533,62.03728390706231,51.532936228427204,35.21561905468129,22.01571911746026,13.774069761431111,5.376426043955275,-7.776954293221332,-24.410896872699674,-39.42700901967807,-49.62146536347583,-58.58510404499815,-72.29631877742412,-89.28088279447225,-106.65605342223685,-123.21589333246179,-130.82020859002517,-116.90216575668357,-78.64736490123258,-27.99017851432201,14.685737347561988,38.9712346703159,51.798350331512644,61.42696414303439,67.56937207047702,68.30904212602563,60.0,121.0,80.0
-136.82779286304896,-103.04100464976246,-49.803941198823395,1.1135198791695082,35.70580179658053,55.435808595890094,69.05535953844195,80.66740432112776,86.12935974216983,80.49949406225602,70.2290554893874,64.74659013624351,64.04811341838246,64.42228878526288,64.20186775954045,61.92011084305972,55.19143906868183,45.326460770947335,36.07495401673665,25.865717777100095,10.328909460468772,-9.41349086748806,-25.992841140118703,-35.60427331619265,-43.917105586955635,-56.31869903867352,-71.35089324601968,-87.70889570803598,-106.38363656763323,-126.77327957749404,-140.90560880865362,-134.04276355671072,-97.0892574973249,-41.17264920424116,9.650484992157091,40.95364376837763,56.48956528233859,66.96559274175425,74.88262221192664,75.29634317160865,67.44468274770279,57.99201807007947,54.123386231164304,54.944148367086605,56.02748284772099,57.22460851127612,56.0776902946649,49.3007042500947,39.166218204094314,29.397106781956285,19.79880666718046,7.224022649403846,-8.45647608023056,-23.949119793285522,-38.13264336025574,-52.64304975230547,-70.49715208715196,-91.4362649323623,-109.87128073249264,-117.22106653151157,-102.9238629187458,-63.813662793663276,-14.934469323179377,22.520059273338987,43.65716127956815,56.313339605338626,63.81074705125109,64.97068797228603,62.01808967129848,57.42452103630703,52.45530584250461,50.82855307621494,53.19709031643478,54.242123494281294,51.559040260149956,46.88493930133845,41.31489423612647,31.471567151742295,14.073903245816336,-4.591147994900711,-19.75755389914603,-34.97888571320281,-51.52619822035895,-66.94555165829107,-80.74947116563115,-94.00434834027428,-110.04119814930812,-131.43384291293194,-146.02156239176122,-130.26483658752116,-80.31185358140448,-21.98601475500932,20.40945252881192,45.64101731309764,62.93352908267494,76.63346473108801,84.56488989118279,84.70195192186965,79.7409420232472,75.10452885784377,72.14439753764897,70.05650507712357,69.94120702292001,68.93998228253665,62.366730521148284,52.69787727089196,42.81848467407545,29.210924071746113,9.741596472539989,-10.263801287577396,-25.147168723254538,-36.51900418113168,-48.9635666211358,-64.75048159589761,-83.22485062155963,-103.36786341871546,-124.47769344163022,-141.27261327208532,-140.72569463068476,-112.12375380379335,-62.279412993876996,-11.25331529166628,25.934961018967968,48.96958764141123,63.97281693847831,73.89035794545887,78.50985667788646,76.96458099630624,70.83825099479151,65.05789710846369,62.96164695311695,63.42235193078505,63.829323285840985,62.40299825779378,57.492870385427686,48.437951602267376,36.53167473151519,23.672777092282146,11.365166095956413,-2.132085333038894,-18.498562590760205,-35.957892146288984,-52.28263257323054,-66.18024275192086,-79.74550756899687,-97.74355809435681,-120.88644945340744,-139.73237854770633,-138.61550611070757,-106.55653721956365,-50.35938399616534,6.336311932144907,43.554452923239175,60.620585817113366,70.09800673099748,78.91412389351092,83.44531603674926,79.95917961433283,70.08396202452356,60.163206237754096,56.62019408992338,59.6660560931386,63.27389678662517,60.05345728522997,46.9876503426374,30.81234939748337,19.274234993455845,11.648859945842776,2.128431690331312,-12.42237775944419,-29.147155647719973,-42.85949579573521,-52.00538804388531,-61.96541260702574,-77.07198743511051,-94.2786393988704,-111.69187188498692,-126.92540903379664,-129.41639435588974,-108.08874877789088,-64.42526266964036,-14.014615794083207,23.529449668385006,43.343794066582376,54.782936586323444,63.697639925962484,68.3328728994031,67.63600469746754,63.16601473961915,57.85248191069811,56.837701654253,59.60613217566724,59.817232391966776,56.02498232557235,50.28366587091743,43.94783228144989,35.424750798552694,23.325483836424507,9.995263313638818,-3.6404842687425214,-18.85175286136426,-33.45802150227515,-44.94301777632501,-56.84421419157747,-73.89292448447544,-94.08403477146014,-108.07482792403732,-105.53228708066815,-79.28138996650982,-33.61251211050058,12.702047094187941,43.06432759520507,57.625386340467735,63.958002014711546,66.11955980973367,65.64765107381021,60.23667239131202,48.585525246268304,38.2732194179428,37.74680296969385,44.10011979309435,47.35200600196881,42.86102051837641,34.53033831111268,26.48373380722779,15.38745452199657,-1.0855559152155168,-17.59400610966842,-31.05467893873137,-43.54840577594203,-56.1553359075138,-68.28656718494865,-81.77946423101194,-100.22285959724438,-121.52629585344411,-135.14711833482377,-129.74940057779057,-99.07952274045874,-48.95409786453957,1.4478085956848048,35.286374520327534,53.63203767024214,68.34234183521916,81.09193498185537,84.16993777468144,77.88643448915276,69.97131454728233,65.03634258750668,64.05013448849218,65.17756976584836,60.0,121.0,80.0
-2.304514983161995,30.01786474749213,47.86651200209684,59.06988911628869,64.77976335726656,64.37631204936558,60.82413969917553,55.909573937181435,51.46506173312381,51.28835016305641,53.86276351149303,53.80470762040227,50.32016616469448,45.40412542964897,39.18282571034481,27.111747999244802,8.414637568637342,-9.264176010486247,-23.964503009562286,-39.72751012396775,-56.17181495571501,-71.06876180529467,-84.55456551745475,-98.12522459817822,-115.81556585967586,-137.3863284592136,-145.40961694542477,-118.59919614981824,-62.879223835099545,-7.623319379706615,29.06509450589196,51.10606998020886,67.27772011043606,79.67212091666671,85.38748358418681,83.54863974896378,78.18832088834402,74.14789951367653,71.41218847875321,69.81536254941638,70.02350663436238,67.64998358840393,59.65398997672909,49.921822986516844,39.49279971584513,24.07903493653533,3.6651106464356586,-15.157014291405721,-28.580857858253335,-39.83993609945938,-53.168049385675594,-69.87998483452364,-88.88300005057862,-109.46092853204189,-130.21678700371643,-143.58317757131147,-135.42918339793067,-99.13280794378099,-46.73242942784102,1.179660861172632,33.783906733750335,53.901970996915544,67.3427233489094,75.80856826981216,78.71127177120928,75.47930561480203,68.90573730153841,64.04925546415207,62.955120714564494,63.639738314988826,63.67345205100974,61.4127752642175,55.26925300681202,45.21547174840727,32.81581443946053,20.065140864397236,7.7283538700745495,-6.600955541636316,-23.536464758812265,-40.884402340324655,-56.533905147565015,-69.94152341076713,-84.29797346509726,-104.12298896530152,-127.41935468893188,-142.1548546646817,-132.65427638884222,-91.94324047570798,-32.87017220616523,19.521498287834863,50.096442652809046,63.579296360716384,72.75420422963006,80.90906876671468,83.30050967586406,77.54653622447364,66.88285986902694,58.316180839797994,57.0169549122229,60.98453885881809,63.33644439278727,57.16557203904915,42.1759528125873,26.866425601363233,16.894465035285382,9.343816469050196,-1.585390810088831,-17.26543783499118,-33.607636853186875,-45.85395672589823,-54.46182492360483,-65.84805139353475,-81.99659983624909,-99.29026860532825,-116.61678373463864,-129.58096105779236,-125.92813562935123,-97.31631059669573,-49.5965300533798,-1.2313979207591377,30.781962500821926,47.058724266568916,57.61839089782293,65.59635867339291,68.63114084285017,66.64706950731792,61.506999353399735,56.93676546873306,57.53470507056867,60.1211737502991,59.0603307107229,54.46633916177464,48.525299373671984,41.83516900044136,32.24532083577829,19.475346925968918,6.1541493550332955,-7.876829868542827,-23.324981194931034,-37.05675188386532,-48.071068030550805,-61.1540202223503,-79.72925207925128,-99.2424198054086,-109.4605867416035,-100.50177954898653,-67.4541915407611,-19.317048985814168,23.429431714511715,48.54244574769447,60.04714161330394,64.90157357988006,66.26985108944494,64.76849380166533,57.354172018117126,44.96306338838953,36.99320657059826,39.29904361860781,45.745211548427996,46.80301773595563,40.56210270088177,32.18626822188663,23.848882668644155,11.035043207363437,-6.1224153426626895,-21.75249744146038,-34.6532139633838,-47.21032047304993,-59.70000462835407,-71.87398449470689,-86.50870640968596,-106.436425082594,-126.80823336924382,-135.95008624481923,-123.53416420582904,-85.91902192984627,-33.447935469101004,13.27086291267398,41.66586485531648,57.85925060199798,72.55343490849171,83.21296968417413,82.99791567035459,75.46308914763526,68.15326564795458,64.36017217903844,64.32956442537376,65.31585901106216,63.93706652290772,59.76655133889752,53.31120505567789,45.597038304673866,36.51253680057758,25.43257585899729,13.10342218628093,-0.3938676049887199,-15.868309821645072,-31.590943101430994,-46.29526097444279,-62.359336159302934,-79.30176909665023,-93.97057468623942,-110.48838182224324,-129.96608675912736,-134.9904522013151,-108.91025881586468,-60.6014369322773,-12.929454099728337,22.066308168439864,44.92318383010107,59.84652953615506,71.87646059333869,79.56926314447378,77.0225662344617,65.21493008866528,52.253945825383994,46.666939946459244,51.091805335417796,57.97752194252051,58.51293317509612,52.278675074758794,42.54309890867834,31.841471341002947,21.709885064245114,9.823282757630631,-5.016168524925208,-19.944453630810944,-31.823824398678642,-40.85091309437148,-51.220845276107575,-66.10744170578096,-84.5526677893324,-102.99995141461471,-117.66114315588854,-125.66013982790375,-117.96018131276176,-83.65155742389142,-31.00939812747589,16.01106758923021,43.84654255931769,57.49902904546967,66.22425336961123,71.0544689643536,68.96583394636325,61.695572315046604,56.004230473589374,55.44654621754512,57.22359045594608,58.81944793544115,59.01661170013401,60.0,121.0,80.0
70.30742713238077,77.26721250746618,78.37225316723503,73.69688663149907,67.13993271179774,63.386355522864456,63.09635970587173,63.79476886534714,63.33001666798957,60.08604417045241,52.70749963371705,41.79577408880794,29.074379269473795,16.524469694652765,3.9068325683212377,-11.310242272509871,-28.604075414458844,-45.66256569136302,-60.569467053013085,-73.76636973822198,-89.35306958151064,-110.86638087298009,-133.26518181601367,-142.501001846324,-123.9411588378529,-75.70270876504473,-16.016455149494284,30.738041124124997,55.151617000091534,66.2641113756143,75.38235145334163,82.39833277690374,82.43736028597819,74.69623316686881,63.866712478967976,57.13256023414871,57.884381584625665,62.17011740640751,62.644828276074016,53.46549998648395,37.3657838191589,23.430823601508532,14.737767767618257,6.7212104218775455,-5.735599175881833,-22.169271856286375,-37.69071713134137,-48.48960712034052,-57.19044654849179,-70.17883249683541,-86.9786051602065,-104.327293688125,-121.24911917888693,-130.81966122386868,-120.25458854790435,-84.85870490945057,-34.71445375936788,10.043827749932326,36.65256297215539,50.36313616515568,60.27837201538918,67.05568561879879,68.50076547167045,65.38553841819073,59.87356846907964,56.52437821489273,58.414704340508266,60.27877564210781,57.99996730236536,52.80477845645948,46.730181323181455,39.46496608717753,28.770560798608095,15.609770483061947,2.2602219371451726,-12.270476117915035,-27.638094781951267,-40.37854550344018,-51.38288980364031,-65.98152363460808,-85.68542182507746,-103.61609002365257,-109.223384693695,-93.3617854835306,-54.27099438616883,-5.537027388249884,32.55410241036369,52.87874025312028,61.94687364165484,65.56042573846047,66.21944630035573,63.36731221279465,53.98002571484516,41.73887234132858,36.66607386610583,41.21983005048976,46.87958057138422,45.59009458644124,38.10848792489976,29.909522093025036,20.796513719574758,6.268279865578913,-10.98442838219582,-25.656436910720963,-38.24648993886562,-50.87140763630068,-63.19231470917378,-75.65973716364874,-91.73889049132002,-112.73961039241489,-131.1355930800962,-134.91969756513322,-115.11320148295167,-71.43727518645946,-18.47919963422772,23.417014780374753,46.99119122855762,62.07987762095493,76.46026692071818,84.3315432908478,81.19194391904466,73.09776109544184,66.64325861358877,64.02007831933179,64.70208599038084,65.22734626846935,62.99926388711073,58.09839676818081,51.17699155436382,43.159957923324406,33.506810717564605,21.952150885938554,9.37694500321291,-4.679951849854847,-20.511110307937912,-35.883147884458076,-50.68969010663514,-67.35183470041136,-83.76197718182796,-98.22951834999972,-116.24124604100163,-133.97061777389746,-130.7915953971871,-96.23592104675808,-45.89482258643372,-1.4066765297446417,29.77277622708354,49.7995486489153,63.499123358506466,74.82963439295744,80.03517220337031,74.27797965655685,61.172013357546305,49.58645256982143,47.07647486297929,53.32610706882655,58.96996518655714,57.2534321558961,49.70985840220145,39.43424276765549,28.887992663170593,18.60227570731883,5.758259317086754,-9.480972305513232,-23.781059267585903,-34.579682278624084,-43.50347332814796,-55.02330234063277,-71.19958653244821,-90.07124277236962,-107.74245227708153,-120.86291491897038,-125.67525226234692,-110.91239156197108,-69.3433276091133,-15.860426353580173,26.082203051308937,48.75531156916305,60.298607048251625,68.1730301631554,71.21973764956675,67.14314860385224,59.58948606431149,55.363177354636605,55.8901676147806,57.74301571116717,59.115543200528414,58.445305665283364,53.62246821278479,46.3683180914451,38.25714414437382,25.817348154069354,8.383998766626771,-9.22008892578781,-25.02459601890014,-39.28543678755243,-51.02588045775978,-63.20019576748776,-80.91125969604319,-100.92315089715267,-114.26175201356206,-111.47920131400187,-86.7389124596906,-45.47621345922744,-1.6169042373808347,31.97897280944458,50.37565693523582,58.66945926583059,63.43506960414443,64.92439504326966,61.5667308525703,57.13709830103778,54.010327923955714,51.65749916312855,50.849699518630416,51.191325444298215,49.63243696601545,43.62500784710807,32.75676526083024,18.80259644567608,4.071665941875327,-10.274536797284588,-22.36993875544758,-32.86216979719472,-47.24770099913534,-65.9192301124627,-81.79354298792146,-93.79393232796338,-108.00569438860295,-124.81206340348493,-133.21613167107316,-117.99987569525076,-77.0025504542971,-26.32830515147962,16.73040398276767,47.859916842778524,70.84227189176022,85.5105344410305,88.64961522547529,83.8625188273229,78.78937431081451,74.24918358792812,67.31792282661758,61.0032339264852,58.18848239730166,56.10205060429008,53.01947206433864,49.82477137720134,44.29657601885404,32.870331394362964,60.0,121.0,80.0
67.98815413935822,63.90371933627894,58.418640206748165,56.632010918337826,59.27085703775492,60.04974915048162,56.69360977766466,51.0864342455475,44.856166007423326,36.778207532689684,25.076770266691454,11.762946295996304,-1.7440155374137818,-16.768053337701357,-31.692608572901133,-43.519241541596976,-55.02279832461117,-71.30023509154171,-91.51395476397211,-106.95306996646302,-107.15276300152591,-84.16687489481438,-40.22517747222327,7.247577620781461,40.090922725294504,56.300410028490454,63.41112797120882,65.98846489924702,65.90673128243485,61.36762748107834,50.30780617140876,39.175961909636676,37.22887572867817,43.22453432993464,47.36580580824292,43.822052723211804,35.64362169924241,27.60024916072384,17.22138631095261,1.2557820790268968,-15.577815766070856,-29.377822099835097,-41.86756053707683,-54.50024729123044,-66.67014568009621,-79.75645921826617,-97.4513145241361,-118.85511696831486,-134.21834098267885,-131.8728277095525,-104.58495942140682,-56.13420799195426,-4.5307741887520425,31.897040676959534,51.62856472866342,66.36227410826561,79.80572416200684,84.43809935974055,78.98113150822925,70.9035360904115,65.46445738884589,63.98236105982132,65.05291817913677,64.88595735856241,61.841116530329664,56.25337333111298,48.96778219315314,40.58197097359485,30.33032405243394,18.401495783617076,5.528080144281145,-9.14111139973063,-25.097297331936183,-40.09958718989004,-55.28443105155068,-72.32740056680282,-87.98105832861756,-102.8521885999914,-122.12274367622048,-136.14896091523718,-123.76676233469254,-82.2064946197159,-31.79941319659564,8.947534100240008,36.53846688481957,54.1412046807045,67.0232321717563,77.28096542513768,79.51518042609172,70.8862744956743,57.2645242516553,47.72850314364407,48.29243304535578,55.48567629325722,59.27853130016812,55.50804495387594,46.916797455211,36.309853602430984,25.992867382760306,15.250365854219272,1.4714635442582062,-13.863228284903307,-27.292380890507328,-37.15816201479488,-46.3910912215533,-59.245069848795595,-76.52726304689638,-95.48768816566229,-112.09174022698036,-123.44382662807433,-124.04307671918241,-101.44516724900058,-53.975538123481584,-1.8033000969828699,34.426970912716435,52.74919338082612,62.86504087380822,69.72259392715593,70.74383839451677,65.00196842963493,57.807026594445766,55.15794881165359,56.42151279479255,58.22171872552437,59.25499772561726,57.48997411121361,51.62061523683767,44.19398336860452,35.28781518221336,21.113511092724174,3.1248059238950185,-13.942313462902918,-29.341226631906583,-42.93829365673318,-54.20727699091218,-67.69375620242492,-86.81801765942086,-105.88676623588151,-115.50652856646889,-106.60364425107666,-75.96469831290533,-32.42081920273085,9.570071613827723,38.77748753043986,53.45131866149479,60.253763661733785,64.3449250525611,64.37053438819511,60.186279056548216,56.127488728557275,53.23975337908421,51.22510043427416,50.93323789971704,51.087046973355974,48.41243484168854,40.94459473064795,28.924167293999343,14.558736392939515,-0.1683033100959532,-14.08627897758338,-25.367023015860507,-36.395474229796534,-52.46861772490149,-71.06487170479423,-85.41718044361527,-97.45454328709612,-112.86949509226558,-128.82978792995368,-131.7344393484496,-108.34761477668847,-62.425262502739635,-12.638440720966182,26.8181763939355,55.199885083633866,76.11544111266328,87.61982731349968,87.71771573965212,82.19775991868295,77.60699380141155,72.48019850732155,65.19624910395834,59.87519920207153,57.67950263630104,55.26621094578444,52.12383015716367,48.6547483256581,41.68818782509694,28.34774572785541,9.81854901536288,-8.495571793765592,-21.95263625993784,-33.31035484918841,-47.27745608641196,-64.89702910149533,-84.01536328542812,-102.96846493973274,-121.56812732103602,-136.5237158106181,-135.76633586912965,-105.78325069156057,-53.12322309151578,-2.0001054257077606,32.56365214830516,53.61336993201375,68.07843565943469,78.48334204019301,84.6384885653143,84.89868961422178,78.14554305668219,68.00905366702044,61.51545192515076,60.66245935004202,60.415566325256094,57.81976129829499,52.535289511606464,43.04425653287148,29.652599035101318,14.087913180357463,-2.038756882821352,-16.96540992680226,-31.551241305492248,-46.76411866341871,-60.60312347526754,-71.47775910886554,-81.06970018109132,-93.01019933041032,-110.29651185563888,-127.35442039786251,-127.05417847025055,-98.85317169198338,-51.611205373900475,-3.47646667732467,32.24259118217412,53.42901194188113,65.4160608737739,71.9809818835139,72.83016492946064,67.4992936707487,58.661871601539964,52.05491015862225,51.256751279352834,53.90642566717778,55.113367172451746,52.332265266955446,46.37859330923325,37.42422649327579,25.229492543037395,10.89050323397441,-5.004686610307182,-21.03438954142911,60.0,121.0,80.0
65.27744234019974,64.29220696815288,60.46921557580876,54.26556723407939,46.681804190181936,37.837754171267264,27.00602975570615,14.790925097415359,1.5175942436028491,-13.729375739950658,-29.5720277329751,-44.32111762375094,-60.08768596507258,-77.15469007972145,-92.07484996513699,-107.96417168291093,-127.67551246433234,-135.97187503158597,-114.1271777157235,-67.46554847430829,-18.632991332721712,18.173781391866395,42.45341115027516,58.105627580740595,70.39713163860394,79.03927624606527,78.01920683221442,67.06100732621336,53.713479085250356,46.784288518252495,50.11655512740981,57.30872686723205,58.90220264255103,53.37226629721582,43.95208408638792,33.23261807566009,23.083134127311048,11.605069689563782,-2.954177243783781,-18.07884382008651,-30.466298756647806,-39.67602265445513,-49.60790302006952,-63.860535434874194,-82.00384819349549,-100.69564484890603,-116.01036530175932,-125.20319864139566,-120.39981263615883,-89.72158890462482,-38.21893129886471,10.776190527503417,41.19390807198502,56.103676576673195,65.22046668539106,70.76742006445589,69.65411267652203,62.730996944211874,56.46171108651956,55.297063367445105,56.973577567471835,58.64736114418263,59.16084245319722,56.15292048212893,49.510065938601144,41.937412057127325,31.82822061943664,16.064139225738074,-2.0160367237766805,-18.52576825111388,-33.52115899772271,-46.34800439431157,-57.57696660834334,-72.73770585256004,-92.734761367322,-110.06204219342001,-115.17350942436317,-99.81753491916344,-64.08004663226522,-19.51649808282309,19.623885307191493,44.2978935231613,55.88400368606814,61.669724499329625,64.90246641086729,63.418890859092,58.85568094049036,55.22060947795573,52.52836013430361,50.95434925043284,51.071064427625245,50.733568575780474,46.77961185567364,37.86794624594279,24.89833393864688,10.296751978838465,-4.358263994052514,-17.64269174314977,-28.31002078121472,-40.41849794762439,-57.93985787173344,-75.77639323350476,-88.81852405833646,-101.46164550834668,-117.85940419216263,-131.7639712433719,-127.9296696545145,-96.6986657196508,-47.56686052001739,0.08356146244448925,35.95279005974919,61.971228748222075,80.60617939350998,88.708070635098,86.30907376857388,80.68513380785275,76.37643186901255,70.47509193366255,63.26855995943303,59.04806990715535,57.12023940526372,54.36212611049238,51.233985251717215,47.18935457028158,38.51853380349772,23.360880195213404,4.200962384966214,-12.904986413540602,-25.192222921946364,-36.956272640101155,-52.04743297188646,-70.38659205802207,-89.52065585429108,-108.40704450468637,-126.60456194728401,-138.66865659332663,-130.34198243182715,-91.94576716234276,-37.14714262507493,9.808686653210673,39.666001435178394,58.274358493086325,71.48223077540602,80.74402576871131,85.41697202700237,83.62285348962905,75.26058813491174,65.4968204394104,60.843496259470726,60.767754262208435,59.90946482032873,56.627146016487984,50.27098661099588,39.49541609465052,25.316227981596796,9.392884736276292,-6.5003835562469146,-21.1204738351632,-35.92501045065808,-51.02610771093926,-64.03482504083078,-74.2414005753354,-84.09676792128613,-97.44095728665886,-115.87234643501588,-129.84842623758507,-121.7301550902474,-86.38350608476259,-37.03178637898636,8.438133987447076,39.6784454644952,57.58145142828998,67.82866038473487,72.87064674331468,71.88143129126087,65.08565266185855,56.26548631474236,51.22318194168514,51.88978520945689,54.58843176907606,54.72512429398306,50.88281133025277,44.14172272914342,34.192583284128716,21.267563897348765,6.432768167770697,-9.73391881311799,-25.318813408905765,-38.158142624279726,-48.79305059638982,-61.523377108265926,-80.31046156437472,-102.37429957752417,-117.95067461504834,-113.0357167221421,-80.46071573097173,-31.278425980650443,14.675279646183146,46.03669712633901,63.986484944187396,73.01625068460196,75.07000176175839,72.34153487205529,68.5104248231067,63.921888416700114,56.246666992914804,48.22020497956015,44.0966155615959,42.76467094964364,38.760115951807,28.60331257960907,16.2412068459113,5.3818231597058865,-6.319990862217615,-22.43676563820906,-41.21331715949053,-57.50042320254531,-71.84188221762518,-90.15506838462741,-113.59602251204963,-133.50366925263137,-135.70895758821774,-110.82798573716971,-64.7763919187807,-13.528471970477794,28.942681536250824,55.283286202828464,67.49164816593631,74.15055092725302,78.5240568344187,78.69839757998938,75.04663306758995,69.85288357724761,64.47859593334609,61.10706697470805,60.223632518810305,57.45054728136619,49.64460603869976,38.91275468185539,28.109321345022007,14.330505063164352,-3.8644389836984248,-20.013462445908605,-32.82751304093311,-48.086092061678755,-66.53998359337352,-83.60230085968857,-98.57209599294153,-115.637328242931,-132.43992606425198,60.0,121.0,80.0
58.754803474935215,54.482528513345095,47.36220119259981,39.488203164725114,27.83377550632283,10.822708963977053,-6.987851996965825,-22.9973488190903,-37.51781936350463,-49.57146909533772,-61.31393174584101,-78.25172277377567,-98.43330933734546,-113.21604901136399,-113.07726350822094,-91.2393641550218,-51.448410392007304,-7.095956108069106,28.391383734958563,48.68404276515594,57.86423102811767,62.92423334626709,65.02562441925159,62.18824737479233,57.64665686304645,54.38106956718129,51.90530276032468,50.848513047901214,51.17807868025809,50.06297474328517,44.71945365835174,34.4396978665627,20.744676735654963,6.034046221393807,-8.444490813831967,-20.932764789992273,-31.365811347803547,-44.97664523298084,-63.43824092405478,-80.0004640341634,-92.19380734770847,-105.85676813911083,-122.71285300415367,-133.18346683358834,-121.68878650883157,-83.48334902503508,-32.90714661301649,11.728624862893117,44.26655059633515,68.1816883234536,84.19076851689465,88.85702098321545,84.6518292347644,79.35435842651786,74.97584510662914,68.32337145342761,61.638898012545106,58.432165962432386,56.451770750719696,53.44010580959447,50.296214344831384,45.319854444971675,34.78033674742556,18.00817130509848,-1.2231136985186855,-16.8488374646399,-28.40197699834625,-40.90543389892402,-57.10968134056162,-75.92604840046754,-94.99861387727498,-113.81881374620976,-131.20267982151117,-139.09556560365252,-122.21808325257837,-76.65913780065338,-21.95169730201887,20.077980579127804,45.846010009091344,62.517511041709035,74.56554904177752,82.63331044733224,85.64607082336826,81.75696119798347,72.24355275659991,63.468170366609165,60.59470022913746,60.76549505245246,59.199346128306004,55.18950499912757,47.61408352009431,35.66205395581519,20.8342213903743,4.697570444642677,-10.826552272720214,-25.305102677435976,-40.3453927897187,-55.0989574590847,-67.20878522873538,-76.96771740979644,-87.42006825459866,-102.37777175068138,-121.15318528181416,-130.39780588604043,-113.99531385355982,-72.72152138716547,-22.829102421464164,19.081209297786465,45.9692447996373,61.12441206367359,69.83169387471764,73.24728470881973,70.42326357556436,62.48258379808312,54.21474538479052,50.91142602040896,52.69509075388816,55.034352332614546,53.981606114663435,49.21148491042353,41.62821120250603,30.70534364059208,17.155042865941244,1.8502876674595923,-14.418065009009343,-29.354733059971608,-41.33391357654181,-52.00398256970967,-66.30000240293808,-86.6619957159769,-108.12643890572272,-119.22977743952333,-106.33220638830281,-67.07289985770518,-16.90275397466531,25.369695006328023,52.36842044947842,67.38396637931447,74.2691398274293,74.61551429074463,71.21986037315577,67.3893735862586,62.03077881363732,53.709725489033836,46.564761449949096,43.613590126591234,42.15685379120427,36.40770231849016,24.985610572242884,12.955340944351805,2.2867967964500107,-10.461989019178185,-27.835288883179,-46.31266026763741,-61.61464516731471,-76.4900916774242,-96.61499124851181,-120.29150273303112,-136.58772568960237,-131.36225123780554,-99.05657570525555,-49.77986710883794,0.10654339723066357,38.33284137101636,59.9028790833259,69.67035364001212,75.71174806162193,79.06982314532853,77.92738156736883,73.63291130073105,68.25217810803743,63.18520557537505,60.720962908001766,59.8506614726201,55.70728966655039,46.661403446346625,35.800481545405795,24.666414459944193,9.321063067714391,-9.020020383019842,-23.82805444876838,-36.781003913308375,-53.271711592469515,-71.78084989077436,-87.98732209836825,-103.14348844283224,-120.99070100532943,-135.26581761235153,-129.2658161239766,-94.09115085640208,-40.946419054744055,8.519534804890908,40.06295296701121,54.66086217593073,63.69458501741454,74.15353096076538,80.05607769762055,75.10911421244204,66.54209445118909,63.60732630551961,63.94684560232028,64.17411065781154,65.2720907316012,63.1950786446379,52.553133640797114,37.87719306434385,25.53075809503873,12.80895784636261,-2.9774025022728945,-19.529843886258536,-35.761037947686376,-51.57725157353253,-65.30743759983031,-78.07170902663267,-93.51768901917487,-113.4917155130641,-134.39785509815343,-141.2202584359855,-117.16609267629595,-65.54609648424125,-10.11904315013573,28.656115363593834,49.577760732506654,61.04406049679458,68.82166664049645,74.2769483064897,76.5724535640371,73.43881292152604,66.57412853235424,62.85971721461578,65.96564691745056,71.73449809143798,71.25593471569876,60.47020057586824,45.810245505869325,34.236727965173905,23.31381942916952,9.650083028770048,-3.971343072507978,-16.2420592400961,-29.888630806835277,-45.97865061868493,-61.0667080307536,-74.19128345259607,-87.07713564613708,-100.49913293775823,-116.54566117862983,-131.9175414674519,-129.99152543964155,-96.19189992957148,60.0,121.0,80.0
