15.350073835362034,1345.4654313685294,1880.723019248227,1728.8395331706924,1474.3558833693417,1348.7487064950926,1257.3835142255768,1133.4055900567269,1001.2394931957954,883.1500187553398,773.6114473280446,665.5536444736483,560.685884986675,460.437510017937,362.4753808333935,266.0595034721933,173.90153723281992,89.68151263526647,19.75946227409316,-29.02685839754066,-55.098621506760395,-68.12469484895256,-82.49291038121201,-105.02248774369447,-132.71590491739428,-160.45774766817652,-187.34300265429508,-214.56370116285206,-240.2390496450915,-259.0041023659184,-269.5305570314611,-277.0463522034406,-283.0912033365894,-282.8794525150774,-277.58097998201566,-273.9438648128162,-273.60868479244925,-271.8781090135005,-266.1012437684314,-259.5151487593726,-251.33154070882387,-230.88969043388832,-191.12622441489813,-138.45401946838027,-84.8358205654908,-41.7852971454296,-15.501868554207697,0.5055727146290437,14.279897694146742,24.826123286604776,30.863091492130074,38.26203001673042,49.76706713847112,57.950582317417705,59.097770271437696,58.88331125174622,59.815780349692076,59.25108217861056,58.066748808696005,57.452149033265925,52.84019447328933,42.33286048755168,30.21308571570811,25.203273773516045,36.20721995214285,64.69271068853251,100.30092978745843,125.74800192277695,132.540778537696,128.10960287777584,121.80865191751947,111.71148798018757,94.95596534291606,77.99331365432053,67.18662189643389,61.161245690726794,51.8057021619455,34.355954533648934,16.764972592746968,6.89355998918519,-1.1416328014614807,-15.24088995386971,-31.51198035126704,-44.244442695579856,-58.10663535654926,-74.46711172451803,-80.09336584737524,-64.30662082519699,-33.56213839191057,-3.854070533834963,13.677973856708734,19.15329220032679,19.02133159416738,17.10016182103754,12.422395721099162,4.483041878256297,-5.022405261588481,-14.424678547277983,-21.592868765857688,-25.03999939398735,-24.72130680972179,-24.665392567059325,-31.18672265395838,-42.51315333427532,-50.43644265893681,-55.322367713815595,-65.87351855817091,-79.5312335164176,-79.03613020825328,-55.556329274763584,-19.48433063120741,12.552662765010822,33.599911276753105,45.994866053620626,52.54318777771448,52.87753057835585,47.40847829865321,39.27875981034576,31.86055824880946,25.66127251772895,20.591726823514954,17.275408134636816,14.116585703761695,9.319351707513253,1.7737749652234642,-7.8039799838144,-16.408291668447607,-25.27115614359271,-37.62215107302009,-51.1647888295103,-60.914089374695436,-59.86329318559124,-40.897090892840446,-8.538073520934988,23.06351619136518,45.89437309534085,60.157497493891164,64.42384770929085,57.97384683445861,46.889362047667625,36.575337219407785,28.375856561153476,22.809210641375838,19.602271682274512,14.877145217826895,6.714205485211261,-1.302983969679147,-6.239708834220531,-9.164116092514526,-14.414864847552394,-24.220337245964416,-35.69026307312537,-47.22416407585795,-60.75227634004069,-73.05292573868245,-71.50861667841002,-47.36050831763751,-10.221032268484029,21.369468228540338,41.224031307056094,51.04071984047083,52.05449764578734,47.66730474894557,42.573660238287374,37.782715728157875,31.491648410790052,24.152664081582497,17.59621425597086,12.779164830272833,9.200555391452944,4.220927229245367,-2.2554506079327035,-9.136133394985551,-18.042905060021784,-29.91961692361299,-40.88590781098186,-49.974806260764616,-60.5039998808382,-70.38240867003842,-70.45206551941799,-54.823463150886745,-26.03839374265124,7.6725175138171124,34.65978454484675,48.88697166851566,52.888346732517306,50.01768445620961,43.040378555237425,36.421615949688736,32.945669307551874,30.16001059555228,25.865462587697,20.390052190817684,14.730352945464979,9.298707739363248,3.718569348322187,-2.261267202931889,-9.073684341022586,-17.909756262135417,-28.36187081118487,-39.6795552046007,-50.34931652123894,-57.59249431363162,-61.48520283457943,-60.05039734705949,-45.43814052831988,-16.52781129175619,14.583403236245038,34.67747378502313,42.50140892708444,44.816484602065444,45.756509950600716,44.12278916812923,38.967604280111814,32.531954166424,26.867028147858264,21.5855297635125,16.460569591379713,12.26356764489082,9.744826229751737,6.9200521611798935,-0.39622587072754606,-10.528583336081214,-19.047659190858614,-26.390602192340022,-34.34668764176198,-42.551353902104076,-50.13122947007462,-55.74159383217481,-54.40228694366943,-37.48020281155507,-5.184469365764602,25.963444953675733,41.8077870113122,45.94905756249236,47.48632507376689,44.58708392158499,33.24345300249149,20.390511682903117,13.39135606127096,10.69928778022697,9.134845696556372,7.468780136070302,2.9107299511174802,-4.628639243289012,-13.106452233991684,-22.900737292437658,-32.81293171874461,-38.205788087252934,-41.39188825323529,62.0,121.0,63.0
27.579670340326995,26.472447390661287,42.86731913081952,74.99171161420271,109.3821695493082,129.55256976272594,131.846408820372,126.35555811209487,119.55587360652945,107.4220058831894,89.67302997773425,74.14746769368824,65.21638506103302,59.22210465516985,47.45895818900131,28.748944198202114,13.116839229339744,4.890985669867314,-4.535638535243567,-20.113513299551816,-35.53291673673076,-47.79784620978545,-62.94976624752476,-77.92838168697796,-77.77916730444413,-56.295007367254286,-24.19109428425838,2.669840405644337,16.24694798526214,19.414304780538995,18.6325661124002,16.115674835249486,10.400282701227667,1.8248026743389278,-7.836038513326492,-16.815631652205177,-23.007211504181022,-25.268078491203873,-24.360135190833144,-25.725120998075187,-34.32883604483216,-45.40517569821767,-51.798244095255235,-57.51326973343584,-70.1409730742329,-81.60028916473634,-74.47057414343844,-45.63635594180426,-9.250733468924262,19.75435910794529,37.88840373585971,48.46123697782536,53.3163901991642,51.79519968072037,45.1544105299899,36.97709920897048,29.981463909418064,24.034158317883186,19.479084251811734,16.45164062241242,12.947679729082433,7.460759117018738,-0.9207769130973601,-10.462233244110653,-18.74530983781544,-28.465693744252366,-41.6274731463279,-54.611133030550164,-62.11799256771214,-56.33427668579908,-32.33698104953439,1.2404993255134487,30.628107824466632,50.86408362462901,62.5692251062551,63.48951578330674,54.917319970328734,43.71961396042911,33.97403232443887,26.464322381336785,21.74326498267495,18.60262746702328,12.77525847992403,4.190463995243526,-3.082873211463795,-7.132613717838623,-10.242250791553841,-16.83898640139826,-27.528693947786767,-38.9524285669943,-50.87510492371657,-64.86270032868207,-74.66279249639095,-66.82159713549657,-37.08443143022076,0.05946118777311661,28.24993397829825,45.035356072937816,52.155770179062806,51.11070342250902,46.12678264300108,41.232860933841245,36.16822710372116,29.384149583791107,22.12625168393459,15.993804190463683,11.72753304472856,7.986099717155128,2.427936185843617,-4.189713421906182,-11.374775392859778,-21.27853661848757,-33.36505968328141,-43.56160305677863,-52.78686613608724,-63.75514900587879,-71.83701663964834,-67.56926589755986,-47.59342746568741,-16.306554967104052,16.628514592263123,40.06986981594766,50.90838300073773,52.6579890038858,48.26582426269711,40.86569736463717,35.135349939388554,32.21930493612511,29.098102622880916,24.353467482117125,18.742591956203665,13.139524159153579,7.728969754161478,2.0250487662804963,-4.081973312799748,-11.403223848390816,-20.80770242368711,-31.569587260494266,-42.95928498370356,-52.8613574474233,-59.01258559466048,-61.91517251274179,-57.494629714116996,-38.224568788902765,-7.040540574388753,21.83688892863466,37.95034044853308,43.43235425520802,45.21666086929234,45.64873053966316,42.946241671372974,37.10069433646236,30.802320212651047,25.336421453426237,20.06671422777966,15.105436980632385,11.366995672449072,9.164877282861278,5.3540890885469405,-3.2817422916771526,-13.235565394638197,-21.175833233277178,-28.609885968839663,-36.734579058238886,-44.839625704365346,-52.07013058015879,-56.433803140316485,-51.430071094876816,-29.234427256257586,4.83855761886658,32.27829312389007,43.71143304400524,46.49081449693307,47.435145993356436,42.063666526543514,29.217217448531525,17.6810336042476,12.37921070226065,10.170340308193936,8.774670675645833,6.542935247615872,0.9364109047550554,-7.021326763688454,-15.746488864032735,-25.96570420699387,-34.94050938904346,-39.00498348770455,-43.02184451053105,-51.67743955232441,-56.59701801608354,-45.43094801352724,-18.183157935344692,12.877545737486866,36.04554255005029,47.886958953307,50.11727141893414,46.47815968451623,39.725284687095275,32.02725017972731,25.578352132986225,19.623378987362894,12.692329455357491,8.515475384984388,9.611258526459398,7.856474591239927,-2.720153390390609,-15.414858842560486,-22.762505513304507,-27.12231201404738,-34.96568693385805,-48.192967100836874,-61.15266489947719,-62.075187036657915,-44.15484991952832,-13.099608888388667,18.076867179739203,38.5833939836736,47.51934704714394,49.064716360339204,45.74045937727509,39.74144571788177,33.230700345645026,24.91810829984584,15.629766483159992,9.883062429770348,7.779712190691549,4.9166266831335115,-0.30400768492437913,-7.1497701961253775,-14.349300162883747,-20.530213250648398,-26.847648480282714,-35.129037449296696,-46.67229390166822,-59.64584020717119,-66.15951375827268,-54.49334645519263,-23.338987808106733,11.524580489236213,36.5113747530383,49.5859840840518,53.418096250768144,52.03821165220772,47.04757873049184,37.37405642294584,25.879575561816914,18.490747574572527,15.942096122904639,12.960307395754295,6.894298180385062,62.0,121.0,63.0
-3.724588578673336,-12.965624922732738,-21.208612668450872,-31.998568355948372,-45.61524960624168,-57.62467784219608,-62.20551457497229,-51.17213647127725,-22.94017485463259,10.593944583624811,37.38425677220352,55.163800055664176,64.0494132009627,61.713174062340194,51.67268161476769,40.69405588046339,31.55636155632552,24.793068456521198,20.845425541983538,17.338540174728166,10.410756553941367,1.7966396709591568,-4.565235379153805,-7.927846596054798,-11.641045541221017,-19.64124169141172,-30.867104336493924,-42.2349081719818,-54.75865142667552,-68.68811920507817,-74.73521549816064,-60.15738945216182,-26.17523477330316,9.465448532710944,34.1673609218388,48.04780312947366,52.563540411714484,49.8384041015138,44.62928913377585,39.88809048756581,34.3820073055396,27.239733536495358,20.19808335003035,14.56123374668155,10.733595496558197,6.587942661209918,0.5506757978966346,-6.145663518911022,-13.860082397313803,-24.735095253850375,-36.60347602132312,-46.139188019050984,-55.80329236183657,-66.80836349852271,-72.20669792076974,-63.32436411827505,-39.3873113295962,-6.4154465712141295,24.724629867714068,44.37939061627623,52.18703610935437,51.91280191610355,46.244184805957595,38.858785845288025,34.11898762447336,31.457665708432533,27.8842888638624,22.771310551110403,17.09939838983723,11.57187532512506,6.1282764035676225,0.3043606533897493,-6.000984081118249,-13.92313323946897,-23.812997478331926,-34.84092559570902,-46.123597623524056,-55.02375327367358,-60.20158765484312,-61.774465911222805,-53.614527170769975,-29.927909218263576,2.2237515161624444,27.924619201622825,40.30546229091673,44.094786742200284,45.53568163100496,45.2619733304932,41.48394218350889,35.209900984218095,29.158462576613278,23.81307304106398,18.56908070008227,13.85298628279209,10.625623501923597,8.461385025236545,3.319844565171892,-6.2696952510199875,-15.731470191148128,-23.27091645550593,-30.90206615884645,-39.11872379514898,-47.058226296165245,-53.80368447590317,-56.36894847302728,-46.92314741258096,-19.884793645250145,14.230557859605609,37.123825708625084,44.90062218211615,46.985908014548,46.82331529548003,38.82697945392666,25.339053658359422,15.560272028894536,11.603931919116356,9.70543561106482,8.360599759735901,5.300599853944897,-1.2378965982011154,-9.449878325358812,-18.5438315667798,-28.94527096332618,-36.579336432232104,-39.79472157812918,-45.15002252522832,-54.12992501033837,-55.33502896532136,-38.808597344107575,-8.954209341031483,20.687313310314458,40.612327965614,49.370250169841114,49.50748941685216,44.76636511636161,37.47791657517547,29.995518794791664,23.92216429368329,17.67270712334784,10.931740894366508,8.465696218831772,9.890132351962631,5.608440736149999,-6.636317338758211,-18.177092325758018,-24.018432646120566,-28.822653705193094,-38.32549519069836,-52.426265022893965,-63.17544399746143,-58.80383814819064,-36.02252694098513,-3.490004609316548,25.337848808893924,42.1727309637624,48.573128201853685,48.52877240177079,44.151144254037945,37.905346942525505,31.099340025381327,22.13607420210228,13.463768073154347,9.072613152238034,7.197463128654996,3.617055278409858,-2.14362259584151,-9.286180185881372,-16.23495418602769,-22.251948047441832,-28.966473668353874,-38.11112713809779,-50.49949191935763,-62.70207019712544,-65.0840326181605,-47.01262222510178,-12.81632212252678,20.021244029406986,41.43037269437913,51.475208450130296,53.39491444503909,51.014418848034886,44.7302273928826,33.96488140279339,23.13373449136351,17.43323524140982,15.371700987305905,11.462455034907855,4.905378657554297,-1.4315984836075948,-7.0996349022452145,-14.454911424506202,-24.89424418426783,-36.86952639197981,-47.405379878074,-56.14317724004801,-64.1972915836799,-67.41947073133468,-55.29768715418999,-23.18850251191182,14.71571516198114,38.810192564077724,46.96724169056377,50.816869020034666,53.747024921274345,50.04344253204799,40.64911760702258,31.41383046505702,24.973361210429992,21.120488735319483,18.697111651395307,15.39229939420619,9.655642160025712,1.1082907480184165,-8.708738238839478,-18.44037494946967,-29.876676244131428,-43.558053660737436,-55.39090392245372,-62.93679775566448,-66.15420587252937,-62.467507388092564,-47.10374282410796,-19.4252271476432,12.125387799486774,36.42101844084191,49.749817361387336,54.533374738163694,52.883907319873266,47.44774072509278,40.330150665832925,33.39200370469583,28.336051823481064,25.13789607488581,22.615733806547137,17.586220999085207,9.068605747821769,-0.4854110629654399,-10.41547495708827,-21.775169219399373,-33.23515717076859,-42.320968977611756,-51.52627031922087,-63.62412194775465,-71.87335611513619,-65.74233773714562,-42.384932774939685,-9.06807282098868,21.177940199098483,39.107803487684585,45.265499430962734,62.0,121.0,63.0
44.06354647121656,37.11905982894561,33.29090244370101,30.59954889611466,26.53031608171356,21.146856562835215,15.47255176156577,10.01644610143832,4.488033663322016,-1.4429847792701667,-8.063875657137425,-16.616768495392577,-26.907865514772737,-38.1515713179904,-49.08013586878665,-56.85097843106587,-61.148948722915016,-60.82721046800839,-48.335809682168545,-20.861972484986037,10.883112860755878,32.81294911580763,41.93703575299462,44.60911972449595,45.72792706302633,44.558052085500606,39.79826232737954,33.35961973151924,27.580160172293475,22.28847383652395,17.11227144342441,12.730713976738596,10.00697694201435,7.49215935860696,0.8563978317489753,-9.215789717897776,-18.035588827806833,-25.392459720230818,-33.251152170234946,-41.47764005408686,-49.18738527478149,-55.228285348170104,-55.30174626321778,-40.816785027737254,-9.876887298468798,22.563670930847213,40.604831185250625,45.66901947621872,47.37946294987127,45.479476442318685,35.075290189304745,21.834958101173324,13.972734121839602,10.965097987267743,9.30380926676339,7.801014266577052,3.7343847272740343,-3.5407000442800776,-11.932389527248025,-21.49883582990918,-31.677844063564674,-37.77228752270451,-40.80124324229248,-47.68997618337559,-55.91989562332323,-52.48246216194998,-31.007674016633338,0.22087409466154664,27.624780668733088,44.22758068903641,50.121597133985574,48.50737233427525,42.83762887737,35.216168652739846,28.110278716356245,22.244956092837544,15.6298017012243,9.565218372246173,8.829890229839929,9.625930557850857,2.606177994038068,-10.459359248625058,-20.38466618387633,-25.187115325933235,-30.955829474478506,-42.12228987020308,-56.41743390099415,-63.86891287811184,-53.91037252003138,-27.044024255516707,5.7755377848474385,31.517967387797672,44.88201637846214,49.10767251896504,47.625256198947554,42.407312088926275,36.0590687808677,28.745364386615684,19.36456289366872,11.70421868732325,8.493571550885498,6.432857807563085,2.1360841923470497,-4.107813370292248,-11.400998742577812,-18.021158455855733,-24.036607238792705,-31.28863085940037,-41.39498621518581,-54.35240093013665,-64.96348077300563,-62.18551063605288,-38.07584814931679,-2.4816302075502987,27.491272895842517,45.390891852975166,52.67462570345495,53.043827643964825,49.676621586781266,41.992732662924254,30.542705093585873,20.870190673888207,16.712886966573112,14.60359594870825,9.71622370400246,2.956415018861688,-3.058498430513241,-8.941072851641783,-17.16579565360618,-28.333293540122053,-40.15467460315113,-50.04007219767259,-58.56985358925313,-66.01691034968628,-65.97946521889199,-47.810771375660764,-11.825369759753677,23.629598842408065,42.35668200776235,48.072370241307645,51.98696085837816,53.522860086247526,47.644305117493296,37.76430187370212,29.24903931506039,23.62599483091604,20.360388930484312,17.933886025320447,14.019062712422574,7.451740722482988,-1.7058071037338007,-11.503752710813906,-21.453566895481824,-33.72294657431584,-47.366951997170474,-58.004846796466495,-64.3568758614655,-65.99695960930507,-59.4133474821468,-40.161030673115405,-10.161277330369344,20.242335451914776,41.333643425945645,51.8938326723173,54.62462959186129,51.57962066991633,45.49781573426359,38.20636017303877,31.70930163291091,27.249369048845757,24.44386814194452,21.56651936407251,15.391526463632843,6.321778671435336,-3.267335986707266,-13.536171879350098,-25.222533537422628,-36.11560985260494,-44.734690973581365,-54.81905599273569,-66.91975162715094,-71.90572699495165,-60.62234637446069,-33.239697710692504,0.5441769294928391,27.806019603896303,41.80688358509225,45.97911128861588,48.31781511575706,49.93169494760475,45.51983257171768,33.987324599320075,22.515684673975485,17.321638504619393,15.914902755600657,13.104052308299584,8.373594500835644,2.330694862531608,-5.571293019002081,-14.701730482370255,-23.905029722247143,-32.703811007415666,-41.68341569941264,-53.20764734639105,-67.05480351949926,-74.87240146085888,-64.4134848616281,-33.970536343172235,2.286352562954508,30.29320007519251,48.50160282244961,58.0199524246205,57.894391650561694,51.51422340960319,44.38052910972749,38.204117569408695,31.644108562804323,23.624413425024937,16.093318216875815,13.659592412066223,15.65419432465499,14.261457374336667,5.742994002314037,-5.5167419485717595,-17.152408838800184,-30.286427261027175,-41.75212173884039,-49.590495455337205,-58.84374272257212,-71.34066524771336,-75.28104854822612,-57.81020031030487,-23.981932081440853,9.561319014232794,33.11982156986769,46.22321307285734,51.64303838688008,52.26663772998519,47.31827456554435,36.37675907000914,25.90275724607654,20.45225452950764,18.019209813124704,16.08785384927539,14.291724484644085,12.603189670947442,10.21957179731399,4.239079246051818,-7.445424625755888,-21.623515852356473,62.0,121.0,63.0
-42.208111328017125,-50.43020931413188,-56.68030420850906,-48.01315361086844,-22.356752590585373,9.020723149870133,33.612841096994316,46.931719557349645,50.24353699517568,47.18354509512526,40.736714198958346,33.00966588002214,26.355554850293185,20.479347157635857,13.591353619483069,8.716980457013923,9.377674477314024,8.609218529073871,-0.9575916829064747,-13.958309192018222,-22.10111355720442,-26.456595042488303,-33.5826536532605,-46.23692620682398,-59.85030138217592,-63.020507117593176,-47.535339384817455,-17.551903484568342,14.392125425952672,36.59824351126334,46.83858685803759,49.17738092945415,46.399064047484146,40.58812934829801,34.151492710439236,26.167556015404568,16.747228243826626,10.366964068048771,8.009262640000241,5.446562898928385,0.49887193273935143,-6.173722781363197,-13.442480180522658,-19.74370357703907,-25.928414239971016,-33.854028686318436,-44.95522628654126,-58.05224682085759,-66.10327946491444,-57.35788068023186,-28.127515654831402,7.288326875159708,33.905105112562666,48.45546941525957,53.29512696277248,52.416342087606274,47.97122224257323,38.894410283679754,27.282700789989786,19.125938559834314,16.17518104342446,13.55082417749534,7.805253807576871,1.0958740259248396,-4.65974846762822,-10.993082565476634,-20.143245656767792,-31.83226397298446,-43.24837046102606,-52.56028555297535,-60.95805774094496,-67.25230259785529,-62.95174401759146,-38.68742172251886,-0.5229408644852328,30.98551517693841,44.76004793026376,49.13651538286527,52.993990901742535,52.59606263294303,44.906287026725664,35.02522429900461,27.337236149170252,22.479217466562876,19.680811222538654,17.03229197277465,12.422912261700443,5.0109703824765255,-4.561563123131754,-14.28500101845714,-24.68591873212136,-37.71699226802102,-50.8902856464109,-60.25657687809942,-65.40843502589236,-65.16649257629147,-55.25433860091,-32.256132728196945,-0.8671247247166827,27.511786376906983,45.3421727383065,53.40048164671956,54.21785382022741,50.03589784300576,43.44062530314375,36.154665404388,30.21003587663249,26.303639268896408,23.766975219046813,20.205369898675876,12.941338324535062,3.5555260375259468,-6.100033660597915,-16.8025929404241,-28.60225128841454,-38.755600584375884,-47.29290158412818,-58.36205577688866,-69.61902254060469,-70.5099725964206,-54.0940456163948,-23.53477416931933,9.565867976915394,33.25492430179682,43.645974578042654,46.599296620107395,49.053189589464175,49.49398185096439,42.720609991608534,30.25912899707763,20.315801194608294,16.806972652357846,15.361734428259316,11.873845152297259,6.787071673250273,0.24185029528565447,-8.14158691487959,-17.389173460023592,-26.4924137861027,-35.201553022293034,-44.64441243957837,-57.170302597842685,-70.50072838113913,-74.13636658696885,-57.27498683464194,-23.271625780261473,11.508188939028406,36.43721131572018,52.20513521212637,58.93842004548303,56.42133458371195,49.36151599402237,42.53410859056731,36.420281372639046,29.476300053526096,21.195530248955844,14.720953341426107,14.053976594281652,15.956599218673817,12.425780483877007,2.5388492892699923,-8.77397546423275,-20.83376938174513,-33.984534936553814,-44.270789152941084,-51.83166820704828,-62.38604338011789,-74.1258827337047,-72.61244883091089,-49.01860187842473,-13.59791972220998,17.525637619958673,37.88613176575164,48.42436036858505,52.25690696625012,51.53714249936319,44.59168178621846,32.95940933186635,23.814545711575178,19.597067882836363,17.449721444074445,15.555003983433672,13.796617913384523,12.076861018007309,9.018438889155501,1.4241387835439787,-11.559721105609892,-25.278319195304103,-34.36169009371782,-40.15274722876672,-50.53373570778633,-67.18256241698737,-78.10894881045722,-67.87222768038679,-35.20490868171603,3.4650372863032963,31.613731214126034,47.32714970586609,54.18947644677169,53.19359236370245,47.506523555880314,41.17679182635031,36.063564381290426,30.833106080278725,25.46806884287167,23.12994993329645,22.322342433826666,17.430282444008387,7.942694098429993,-3.434307909512018,-13.997269206577357,-21.984480310822903,-29.245980171622634,-39.03783307925709,-50.883641455710304,-64.0390014529532,-76.46443504776879,-77.08475754523892,-55.06688799555458,-16.00209731698208,22.379799927810943,46.99110436550138,55.91390307131449,55.45166542895183,52.33950667360449,47.20119418652706,38.16586839164139,27.424204417783248,19.678881631130228,16.8290833043231,16.474373736982617,14.613315577657717,11.440673957849327,6.907785053764645,-3.8144356568462587,-19.884888096973455,-33.67901020675069,-41.92347365706266,-49.66923423759467,-64.02000503236509,-79.13351750788418,-76.53765489484432,-46.80230202194096,-3.752387324813919,30.074383753987313,46.36069889109547,52.645539123554016,55.74358986771249,52.64095308475793,42.31453226304838,62.0,121.0,63.0
5.821308874024973,-0.6572399147997916,-6.305404422477477,-13.299132697019447,-23.351975667461808,-35.30262560242194,-46.13755805747661,-55.01897741414207,-63.22811115649113,-67.62360171792643,-58.140331609415206,-28.283773487634964,10.147656124901642,36.70391782354437,46.38202715479364,50.27111614261889,53.63170356231746,50.98775035978798,42.001477927592944,32.49757264173232,25.666736491431973,21.51291547960012,19.0170379544406,15.954873654161759,10.586761236300633,2.374025863225864,-7.407938274570425,-17.106218258744967,-28.178482763619854,-41.73542111797515,-54.05832102903607,-62.16755560953544,-66.03266263156587,-63.530851167380376,-49.94004785684812,-23.598097048018825,8.144512932361819,33.834236323719324,48.531086676249366,54.30822401505351,53.38691587959447,48.301424061570586,41.31726625844308,34.22747333084942,28.88888258944605,25.481747872463423,23.016281827487706,18.492864727483155,10.316081876065834,0.7901606313495023,-9.02518409193563,-20.188848973102882,-31.82345314235737,-41.216601735693786,-50.116077025154716,-61.98894137946612,-71.42031502664756,-67.59958385761499,-46.32333060025263,-13.61623379419187,17.7453309041855,37.52086205953393,44.85396831264864,47.24901023939852,49.64931467072579,48.400416698122264,39.39050980650045,26.777472849978896,18.720227862869102,16.457005057366796,14.596810667915857,10.520965904112522,5.083434801604575,-2.0140235433418354,-10.782362829170685,-20.058812467731165,-29.04043689793547,-37.74394660308563,-47.894988632400306,-61.26324745950304,-73.14988941021572,-71.58104185716242,-48.601677909435075,-12.560267479790259,19.811966691111706,41.841347407382074,55.16056427540294,59.038268429945056,54.57166102813256,47.2633130406175,40.75875365709369,34.561978952223704,27.168686822066178,18.903228613311214,13.891249984919659,14.707145287409185,15.742727246631233,10.011796819555608,-0.7399841742527248,-12.082671189174762,-24.655047633392645,-37.407405693419136,-46.50908639589402,-54.37715164117185,-66.13699963984084,-75.76345201189082,-67.9477234906938,-39.20024469743659,-3.6587573619373464,24.54679725244626,41.82193262107247,50.066794151421014,52.529812929863894,50.26366202902424,41.418080216808605,29.796110480388926,22.17736510603073,18.900241406791476,16.889262343027802,15.034235288027592,13.312113520152396,11.456284917257653,7.424105270600742,-1.8865100425225085,-15.741165515858206,-28.49805047827844,-36.07453445339796,-42.35685146072206,-54.994794654977795,-71.70343568130974,-77.7726287257383,-60.259341192843564,-23.71040533890298,13.041426996251689,37.23139953710896,50.15625637088953,54.63708041016647,51.83013018826394,45.60495019068406,39.58164599981839,34.65457812253667,29.16811662691432,24.3898798016891,23.003758785613698,21.48301309963463,15.045369446268074,4.732129300630834,-6.687134666069374,-16.57493341764288,-23.975539180641686,-31.76038783271846,-42.33317561315618,-54.52455769282998,-68.0139347852415,-78.51187548980025,-73.18630899051713,-44.8179148880589,-4.069816999726816,31.20186719837035,51.003678786122805,56.373077736067884,54.669506260034765,51.17134595957769,44.99915897884975,35.019575421375635,24.718322028567258,18.372243487128735,16.678938083904395,16.179700274440634,13.733416103199092,10.44395798396205,4.619633134403636,-8.216789215150278,-24.40205612295997,-36.56174189420508,-43.8133771940865,-53.045007563800084,-69.01996519526821,-81.01430068550289,-70.5447714983068,-34.665982580146306,7.7320835342711005,36.430853551662175,48.7361232942749,53.84289342598266,55.72882117727289,50.14154316157912,39.10904361422504,31.076892938482885,26.650364975944807,20.837914432642055,13.790552797655415,9.492815276085382,7.814366370230657,3.562501415187185,-6.623135148799973,-20.46498575893938,-31.703826887688944,-39.112175469849944,-49.621384306004636,-65.5494509442828,-77.15140703853673,-71.69574440283871,-45.491728563231774,-8.194225433439831,26.078938529102473,48.15855904983329,56.32836309161697,56.531007968558946,54.738189089048575,50.52751743545946,43.08004893847185,35.42612773367158,29.854885734241808,26.235768246364817,22.594110130474782,16.888581237875318,8.589275954692598,-0.6576116367027138,-10.139792765790105,-21.476550055609774,-35.52108390380036,-48.8427812221462,-59.624988312823405,-71.93611804145645,-84.15936890447443,-83.8996141954134,-62.42431491399296,-25.94649321755528,11.470107658355946,38.51763343814687,52.79907929502624,57.39254117958807,55.98497102886655,50.83669441890828,42.13755923832739,33.13918253751824,28.642181258927554,27.53185459418325,25.41061471607981,21.929625771001987,16.709393008684224,7.593267755982052,-4.0335313996191084,-14.109961682913843,-23.108790701602004,-36.72175169425825,-55.25200477758778,-70.1699233208333,-78.0135957966499,62.0,121.0,63.0
45.671966011235845,47.96966143847566,49.94386274460048,46.592363773326575,35.72548382529462,23.73387239844289,17.66216281596628,16.11016129085833,13.618864562535604,9.071902384189249,3.2364917475409016,-4.419588194325286,-13.461451551474305,-22.699329908210736,-31.553156773238527,-40.39934856181373,-51.461782975169974,-65.2903926316218,-74.65549036431754,-67.11116396122323,-38.76974810475003,-2.246289203838769,27.188590696087054,46.55683621887224,57.3111527116284,58.40168635987928,52.502961601171165,45.26485260190667,39.01210443147397,32.59510045965434,24.75471761460313,16.889571655473436,13.615376286723,15.393904810211431,14.886232344377454,7.16036581996323,-4.014848439912571,-15.514230599811537,-28.522998368782186,-40.470028446302514,-48.61449563020023,-57.334509026464715,-69.7942160395847,-75.85022942537782,-61.396872603178494,-28.824919552735597,5.582221801710098,30.626191052842355,44.995677083680455,51.23908684028459,52.4433040734276,48.387867809536424,37.98581686020559,27.02564575813911,20.924814491427295,18.287679668627227,16.337970605617848,14.523712806131593,12.830240430833761,10.665734199588425,5.361528265063489,-5.616720685432526,-19.821140356359397,-31.22492555118171,-37.64167289227214,-45.16960931935139,-59.89051034899114,-75.32808105311516,-75.33637572772923,-50.947254842187505,-12.250534620685487,21.453236620598183,41.914972050113285,52.3005519358792,54.44509803171563,50.18832253077138,43.73594018301845,38.10466179572548,33.170333012016,27.543985173323627,23.651996701144647,22.877472312564482,20.177902050630788,12.33533653882473,1.4273645265223611,-9.803052100606513,-18.91176293148575,-26.002684489372466,-34.54286739830208,-45.7439207725159,-58.29729847049848,-71.81749381734474,-79.20119689942199,-67.22181115187274,-33.48910766055738,7.342429763627547,38.655666132808115,53.76820135073395,56.25702664014401,53.78972454184323,49.779780454395514,42.43874472355125,31.842454597305412,22.369171072005713,17.48569260749674,16.628291113039516,15.679693575316564,12.808299113007754,9.271835279304558,1.6704955717599714,-12.925757473147073,-28.531762838222498,-38.9768850673841,-45.87257373880962,-57.107123029621086,-73.75520771679123,-80.90190049114923,-62.262741672457764,-21.979470220895767,17.93431469490352,41.33264581275433,50.55631573837883,54.84919060147527,55.02957330902637,47.128535289109585,36.22731403107498,29.66238112510014,25.24709604144399,18.75618709781343,12.136550715210719,8.924623281710915,7.0892793457828045,1.2438147659669274,-10.49788833851664,-24.227059230959092,-34.01557822787531,-41.50478943310052,-53.8997474806052,-69.97125394906608,-77.74309007550181,-66.05495281376079,-35.19532835571486,2.5473397709411896,33.94668001147604,51.800088413481895,56.8430540611874,56.12623173659234,53.88299479417604,48.62031908633869,40.7360585161733,33.5692204817255,28.668012500326334,25.29440552645738,21.221669874910003,14.71371322551704,5.932678996459928,-3.334251795993734,-13.127793931704689,-25.327404516819563,-39.65462188520223,-52.094392269430415,-62.86321401452822,-75.88484822321782,-85.99473030128289,-79.87440690011871,-52.84863554870964,-14.60259260561324,20.636041434373652,43.855082790564,54.9612667834521,57.44264256272495,54.87234927204825,48.63684699511873,39.317857189623865,31.271826455441293,28.200853919041457,27.120121523501403,24.497779558216532,20.70379628102697,14.517980776126358,4.304380473688457,-7.224480618608668,-16.608293769119694,-26.34078960721091,-41.86022927932005,-60.32041901485268,-72.99813271743146,-79.61439397019932,-82.12680496113744,-69.60527274221162,-33.784600669095624,10.991686387684942,41.55418284385371,54.1163421255745,61.82921179330013,70.14549647692893,69.30903341972979,55.44674993614559,40.49558869657865,32.78538526692055,30.13284484980119,29.290727971477143,28.832163265311724,24.833956232613968,15.21427197461634,3.030053953782276,-9.012394904171108,-21.164830306977713,-33.76093553357717,-45.13864826169663,-54.579651168607725,-64.57231791463649,-78.14171547361045,-89.19382605881223,-81.38173806822556,-49.3760261361427,-8.694214201792153,23.19855455366514,42.08743209397592,51.45162453798074,54.07666017777126,51.52290737681818,43.996535970568694,33.6683683418584,24.74577188998432,19.60219879802119,17.65548521069329,17.5502422986409,17.78908022175945,14.946979199118601,6.2941207521322395,-6.498382783854605,-20.358951085818223,-31.31997190086955,-37.16538248143959,-43.39071334380542,-56.36419268481063,-71.2862561842774,-73.01662636570174,-49.82492314360788,-9.502108564274096,27.05817271714066,47.645201363296664,53.438257924328106,52.08025933291469,50.70758116722775,48.640763842982544,42.346180587025955,33.92481722870183,27.600874372793182,62.0,121.0,63.0
-23.64169196435128,-33.468928512406144,-39.294523626713286,-48.68102342787989,-64.9214231607874,-77.61509436891575,-70.71912822504473,-40.368406171121265,-1.3030374661853206,28.671171489186623,45.788749374965896,53.75369144069546,53.6966075822665,48.37448813903072,41.9564906002373,36.702341381183224,31.58944569182399,26.068501924917943,23.2359546057901,22.570078467870236,18.39923755959397,9.374029968396414,-1.9064370921188674,-12.726183579930602,-21.047260146808657,-28.17323069190811,-37.571758961375856,-49.241529174873804,-62.20510081896782,-75.16772652664888,-78.19381943528303,-59.30506201475054,-21.56506275471391,17.88718982312751,44.68624914723594,55.44965808046368,55.76214942704128,52.82319336515109,48.093507214992215,39.56894311518363,28.770471841540274,20.4283284887026,16.967474808982878,16.549959821125444,14.98556964076293,11.875784018225797,7.763317801116097,-1.944938134413265,-17.71314315835722,-32.17549792374246,-41.04186704110558,-48.33942505470968,-61.74898987935522,-77.71612061076712,-78.47878696205852,-52.03748094629191,-9.374363211566163,26.61330614160476,45.00568763243607,52.036789717822884,55.559473871868924,53.56843017499236,43.84530512299184,33.79547784183557,28.43709560265223,23.616949301234364,16.651354200728413,10.813760464549391,8.497171661098905,6.000587552435296,-1.606511713722998,-14.561609630346997,-27.59845557869439,-36.08538073394081,-44.37502588647187,-58.56821866711885,-73.69154952001833,-76.6302482392839,-58.72145328785497,-24.327316659837976,12.717557757276051,40.63215380441209,54.321076653798194,56.90163508040176,55.644555258338926,52.75396783724042,46.46858769798109,38.47148806384867,31.913923921113177,27.62205184797679,24.28804346983201,19.63566531750611,12.331570565630969,3.2530009067332735,-6.03982751600356,-16.32993542478709,-29.39486229988534,-43.59346839432456,-55.16595673930462,-66.36402838326974,-79.66224240025625,-86.40561610625903,-73.9950617299936,-42.311816773610865,-3.545126156519336,28.72876364809618,48.16455577263355,56.401804557179496,57.08856081163681,53.464918011772866,46.14381407529844,36.60501640391717,29.879666304096567,27.92634260726598,26.539774467507964,23.50920344369388,19.285034105973804,11.95189811049757,0.897571396759822,-10.18880307464011,-19.10507943032582,-30.12517295999606,-47.298177327421506,-64.82671945274856,-75.29017178490106,-80.99688248696809,-80.73338032613812,-61.47399052720924,-20.62765371758526,21.96325566072136,46.565408081362925,56.26640567142656,64.41282153647467,71.36842938388376,66.29213309000207,50.630686495178715,37.488450206746485,31.703803613463965,29.75829022362783,29.23477767172714,28.245419786737287,22.557740764183347,11.782575402435347,-0.49915167240579544,-12.460774076746103,-24.806079680898538,-37.25701120076206,-48.01694216060636,-57.23099758852753,-68.11706367497645,-82.24811122012187,-89.53147617975537,-74.2421899937265,-37.56201431261972,1.8800803615982713,29.872248364295984,45.616825418425044,52.80920620997488,53.84804743142822,49.83525270603253,41.11624642191827,30.781823675105798,22.851205774984653,18.779260342478064,17.48450433865563,17.689963507935083,17.475617850117594,13.042378440553613,2.8866381469357494,-10.539270349168905,-24.02076736296291,-33.45160421298039,-38.52429927223631,-46.396834091125676,-61.021347732944506,-73.89373082654447,-68.9755441121043,-39.05501922537055,2.285825022392648,34.78848125754017,50.57260546582565,53.37514425226021,51.54641400199095,50.39114601802601,47.284858545428705,39.919884348057664,31.743378132557268,26.52565650212396,25.13093857788558,23.56676125166606,17.183249062387162,7.372629879194503,-2.272948391412533,-11.856305284272233,-20.977576274011113,-29.58891967313589,-40.584921032129806,-54.25402374493367,-67.18110507698718,-77.83682259946076,-80.69404156139804,-65.27870994083781,-31.559849544520713,6.726077690016987,34.075883833247744,46.54629200244509,52.267771089958046,56.494938430890194,55.87057466836971,48.2009792111001,38.4156394205781,32.12670393806579,28.189503144592454,24.212610807276672,20.61138804619983,15.228668479256935,5.794573719972074,-4.890816377616094,-12.30436715653358,-17.864004866407566,-27.028867509024973,-39.5463342271784,-53.4212990912669,-68.06101491567658,-79.29121798074547,-77.22672906064268,-54.59529347365496,-17.31950400114007,18.658374073866444,40.197492974316845,46.52139087773175,46.43799013533716,46.691893704656,46.605357374345886,42.29317553568378,32.742170808328986,23.304788787313353,18.919086471291052,17.441340532566155,14.851315126889371,11.587664068369643,7.889724216459649,0.8087918387800124,-10.116670497775507,-20.377229005816172,-27.96932143099007,-37.54525481688268,-52.30801927730192,-67.49542072531364,-71.91717988431614,62.0,121.0,63.0
40.557835047747474,31.83711302119942,27.23609231372422,21.758394780214825,14.647415347199306,9.836957112698675,8.061423860884252,4.450390941484584,-4.943698163853958,-18.635100794165616,-30.511945977001698,-38.12145076708941,-47.82815545551623,-63.37406598052587,-76.36194968564345,-73.68328533759737,-49.94006346000382,-13.263901548509642,22.084528223303682,46.07217163435923,55.87983964720043,56.68536588267024,55.05962424133168,51.3054975269441,44.16491884326346,36.34714428741557,30.460251359701402,26.66456230897123,23.164179568174706,17.811957086613905,9.794401087829298,0.5749621667265006,-8.818699653599621,-19.78940979792432,-33.58370265589711,-47.25495835941406,-58.19799419559155,-70.13227315069294,-82.92982644529735,-85.1160475717806,-66.42014376283458,-31.178188232417558,6.918002858194244,35.68934485910033,51.5356523655853,57.20839609998264,56.4016449713866,51.74178195250349,43.43164759137005,34.14883242632408,28.942681191219382,27.673986693746233,25.797789837696698,22.44930033174923,17.597188709176656,9.036882227676555,-2.5014942668506706,-12.918305852324693,-21.771840947336308,-34.50919824348748,-52.78326235132531,-68.6469195384098,-77.21192221273337,-81.99764924701421,-77.67267493106141,-51.35995084456628,-7.322848177641177,31.24402778788017,50.259904397534626,58.39413761152552,66.99744246223239,71.47668432960987,62.294327355566075,46.10674369803644,35.155748925341406,30.922678227907557,29.49507247346591,29.17078014583386,27.231083230936488,19.82654233057604,8.241977161011373,-3.980918662027687,-15.95080095408906,-28.47098101551233,-40.59644021332439,-50.74245639889009,-60.022913605035264,-72.02315950492671,-85.8418883126665,-87.851276379356,-65.17810160290395,-25.564321279559426,11.392990784126107,35.50291118668076,48.446804746869475,53.65718407837196,53.21077534447486,47.727689927801094,38.09524038047677,28.11512336798395,21.29901628066925,18.184967868104916,17.44075593268093,17.81474191796139,16.79238531188095,10.626809118562088,-0.7898667638036592,-14.599016694004987,-27.322019045490222,-35.15176104618219,-40.141643910040074,-50.0593163222666,-65.59134460798889,-74.95993180574821,-62.68263518334136,-27.285200390079634,13.231842141521652,41.04769985862431,52.387209948009634,52.942860973591536,51.13771293911936,49.90618362877542,45.52097703650303,37.4321711157029,29.823429767483802,25.809808275510235,24.967943575562188,22.289372991452673,14.49668352378067,4.5122310895990445,-5.01255745070761,-14.603617579790479,-23.421355811477884,-32.39680742752158,-44.39951332371742,-58.176961497602974,-70.56316629043619,-79.9454521717191,-78.43580304407043,-56.996602657996505,-20.18494131993012,16.229567771464843,38.97579261964277,48.47235265575036,53.6813290267329,57.0346018692925,54.28173881501691,45.25703374385784,36.157750106022576,30.91992849528547,27.041385315801225,23.146739479252645,19.411736640919777,12.892601515912787,2.6069694730499773,-7.477854678178834,-13.827850159507237,-20.017844381988034,-30.43916098930541,-43.43001377803412,-57.64574778563261,-72.00779519432078,-80.5514247029761,-72.82952403558338,-44.7119201390023,-6.0467073212203495,26.67201902453234,43.28259852893304,46.7268631532523,46.37859002483532,46.86763877092212,45.946716319768214,39.940042322490406,29.683668845621103,21.47576857425876,18.4274708114432,16.869741231714745,13.894071954128474,10.663373005696009,6.319969756012464,-2.091185020447557,-13.373740312681678,-22.72974224910226,-30.26734414618528,-41.332861651064455,-57.05671371026083,-70.45133022181611,-69.55678447234627,-48.21511391971148,-15.768712285129872,13.44996246417209,34.370752826470365,47.60134123690807,51.85127652846083,47.374504544499864,40.04101358323588,33.77104565373235,27.943195000702573,22.73014401767714,18.08046028800584,13.109103307947988,9.343034402278361,7.622595750976706,5.648658986647284,0.5012903865675755,-9.311814213447438,-22.672377331827622,-35.9636168567536,-45.301432855502064,-51.430625972797564,-59.34414014227346,-63.88064706071955,-51.28666597145625,-22.801746468208094,6.188360613790082,24.708355663944854,33.71671269175148,39.16010376082132,42.48199613857284,39.21030297096474,28.252094665853278,17.693706539820347,14.77204216554418,17.393873133226826,18.28541311258361,14.76321179857318,10.036211077737281,5.864621766418748,1.1582999817858908,-4.945531343174749,-13.054655763129418,-23.07638234987845,-33.84942741167429,-46.471190082500996,-57.759807094345426,-57.565611601741814,-40.65534943379362,-11.838901791273894,18.542640571155907,38.78375849832068,44.567142163830376,42.81598126559746,39.758940613536836,35.57826966320018,30.199465302727315,22.670727535832274,14.064075239665131,10.477572124232656,12.782988859566299,13.07233715683607,62.0,121.0,63.0
-78.89916493182382,-82.3163872358986,-72.63884893976737,-39.61172055067312,5.4508538449663995,38.708362244961194,53.033691523785436,60.693501242536776,69.28694359570966,70.2952148951105,57.67509284942441,42.11594714472595,33.41786671071559,30.347012180232507,29.3347730856552,28.990490702072496,25.712039111696647,16.733124255887773,4.671079758341494,-7.427651146579874,-19.504082742179758,-32.108802536685666,-43.74999236693798,-53.375012666778545,-63.062230220819494,-76.19025354835065,-88.45347760971272,-83.94527145335967,-54.61155610689962,-13.870390574434497,19.74323210563064,40.203371545127474,50.64008070495444,54.043414156875926,52.15474810843696,45.24607468558536,35.0497454235577,25.734463613985568,20.069670188555484,17.78378454919312,17.4984511030862,17.83977677844353,15.647243481842013,7.7531085564554045,-4.664131370882118,-18.580556218207768,-30.17215794862216,-36.55986993884006,-42.22787704544696,-54.28076714282909,-69.68130940483803,-74.12090344384805,-54.30241298543618,-15.100367671149197,23.006746133416485,45.875685014193486,53.278965571462706,52.35508736255091,50.83406651672527,49.12635775091556,43.40920372239392,34.99981612982138,28.22100166533065,25.3998630136014,24.63906339277956,20.53090938150408,11.633234658122875,1.7238200264161199,-7.782963573375968,-17.268094116625264,-25.85708024825748,-35.49481878893038,-48.37913940256477,-61.953217968104745,-73.75280103842464,-81.16605986089772,-74.40353356948881,-47.35176377298428,-8.86004328460777,24.48844676694188,42.70104445418009,50.10182719815473,54.99409274781258,57.027067272471506,52.11788757201238,42.324594534938186,34.28070558574956,29.80744482857242,25.87407748172123,22.130643205411523,17.961436121812717,10.203187588440631,-0.5654956973376047,-9.690408162735721,-15.331757941222806,-22.584616694051032,-34.04739375105126,-47.4130357074643,-61.91532433002443,-75.51140408175178,-80.41037925698174,-66.62312852042466,-33.90249195473275,4.685379385878696,33.24217324624874,45.22411692407428,46.65519002660571,46.44110155421935,46.932531275507266,44.834563248402006,37.18269400992813,26.822729310004657,20.134862941071905,18.04953455520603,16.140778591183633,12.93814389857118,9.66644023729229,4.376673501799092,-5.264663782521691,-16.42837783009741,-24.885471699444427,-32.89527476439699,-45.565405290257,-61.65013626110732,-72.18137121030738,-65.36479344913069,-39.26959507287307,-6.554862215364506,20.328118299004103,38.99049140559649,49.844143867682995,51.270519682199165,45.25752803508569,38.10972151451005,32.07515741175355,26.333718006886098,21.389610135399845,16.656998294038836,11.798329151388979,8.69167699506165,7.220937647725771,4.5897049417020455,-1.8461551019747515,-12.929925974497786,-26.719923040237788,-39.16873815142121,-47.18385521953372,-53.424057681020614,-61.65916374181153,-62.36845778092383,-44.11379857079515,-13.774881931244058,12.779901521875965,28.019356856685356,35.45272014646975,40.466601555649646,42.438884893836956,36.61009225111525,24.70387808564391,15.971960132382275,15.26627706873387,18.109865501873273,17.623492789900823,13.372591174255724,8.790490492962874,4.625469018456339,-0.4512432724209921,-7.040816640840973,-15.824754190350916,-26.09971643101967,-37.268772970197524,-50.262814752505534,-59.31471924749682,-54.34556972722276,-33.159902917004416,-2.6882322599217994,25.867439531080485,41.778782290354314,44.428589166334284,41.988606917858846,38.69487445919861,34.14939624426754,28.3111681747137,20.068520802672097,12.268679173942086,10.78769725994714,13.469378742543528,11.825196110052993,4.078093525196453,-3.5703658185921716,-8.962631378052514,-15.467909980114774,-24.262418249828627,-33.580994955035706,-43.13502785646893,-53.34019253255536,-59.89701074028079,-53.91327168852069,-31.640492079321017,-2.0261586539542846,19.67599641347315,27.682145160898855,29.979259858441814,32.7720338577231,34.64705049506811,32.64650064270377,26.022235887296507,18.81418417122265,15.472592286904344,14.087084789750364,11.676928438111256,9.786237860851127,7.316419432421608,1.208123261829202,-6.169895207520172,-13.348082215965771,-23.76254318389578,-36.91389155087485,-47.45916240132753,-54.672241687791086,-58.541634097670084,-49.11430865466699,-21.47912606493449,8.833311200678734,26.500899666307955,34.9628186222855,43.0521885002476,48.51132558681073,45.93354773516892,37.376125575587686,29.247790018997755,24.641192041187853,22.707354029436868,23.104531296216873,22.29051848860236,16.0713059378138,6.810343434984752,-1.4083300503732428,-8.80291262087866,-17.583699768930085,-25.505333650668053,-30.7416415818367,-37.85384957388583,-49.02730911622424,-58.29012372134548,-57.86306982891574,-44.07045629485537,-18.322802706959703,9.73910006255164,27.48502129000311,62.0,121.0,63.0
26.97532182159624,25.19432970533482,23.998856637404298,18.3266900235788,8.71263172390318,-1.015323106933606,-10.573210303023698,-19.829296293682958,-28.373983748615245,-38.909429115726034,-52.40916971670643,-65.56788073343743,-76.64887992325187,-81.17848580943198,-68.56064030515736,-36.69835970287282,1.989983679376791,31.37163579377811,45.49534053861729,51.598335077807576,56.09638242998834,56.38751318466889,49.50790617101207,39.579962983578504,32.744118830540316,28.706519882446834,24.725486943083002,21.108820599557014,16.177329300580244,7.231534396832013,-3.58504859944331,-11.545617679745519,-16.998024324717335,-25.547421126781394,-37.78759120555412,-51.50179415870093,-66.15170618298642,-78.31414677439635,-78.63826094090265,-58.73527635554599,-22.58641136378065,14.514361433226574,38.33265023053297,46.268855557752836,46.4991895193125,46.601985491982624,46.77900412203494,43.21467136552815,34.16851854510192,24.312909131852905,19.223691756514896,17.655778773821776,15.279034761371122,12.009066465748473,8.506472424217481,2.026643621266486,-8.580962965770114,-19.200823707439426,-26.979781811331797,-35.96472226843023,-50.13285830862578,-65.80968420011844,-72.39370552010574,-59.44620825147165,-29.77908635541977,2.0865661317655277,26.507857468772393,42.9830150709778,51.273044351675125,50.026103219459344,43.08626463573246,36.29490980123528,30.38362434886426,24.805018696932223,20.066787233973496,15.198867472840005,10.652884795164086,8.197100826112083,6.719367186659347,3.2026682888181233,-4.602799928187161,-16.788390808935223,-30.65299773043349,-41.95973877073679,-48.89064409018629,-55.70454976454326,-63.369220744180446,-59.11746339960438,-35.87134312979756,-5.133139029206554,18.34495680259172,30.670146809508033,37.0328041931081,41.557228761538795,41.69248076828567,33.43842439463047,21.458411901291832,14.991549857211432,16.074973400621023,18.49226946417899,16.62031934869347,11.97919528132015,7.59598316464086,3.2982222289558853,-2.1798139154783094,-9.333408428234275,-18.721844552118743,-29.170672328863237,-40.89802222786902,-53.76529970955582,-59.63302929449495,-49.709153442955525,-24.866665507954643,6.310693574855544,32.0595033347232,43.59585222753935,43.90632675105313,41.1279499736961,37.50816850358873,32.63385592616652,26.19022159497618,17.46856423492783,11.068255411443772,11.499436081575983,13.73790257810057,10.000760189815653,1.5947898825555522,-5.244294874438431,-10.586488052484679,-17.836089926060602,-26.967872395985626,-36.26726870912213,-46.07819688789625,-55.96789937592989,-59.829369956346405,-48.99820745939607,-23.16161885371187,5.625923722589575,23.21095779906984,28.477463732843137,30.710730770307205,33.546532957032575,34.574189405990744,31.120658232448534,23.730412050631312,17.401389740537336,15.085685838758351,13.481343694552677,11.00466888478876,9.324265351450192,5.9258121168345275,-0.97550959055151,-8.151428652489164,-15.894385439002086,-27.502141356332746,-40.40892888094937,-49.759887824883435,-56.387221551561176,-57.75080050398753,-42.645309436217794,-12.036766078519705,15.43385488874394,29.386426425086242,37.20177719157259,45.232155137508144,48.65380900065269,43.80736298436924,34.72988951249263,27.57260085842898,23.830446351813496,22.633519614483912,23.26472735142173,21.068678586370627,13.483588772125255,4.238597333100059,-3.5031316857079156,-11.19007430222078,-20.155741554704093,-27.18154149449982,-32.35727461915782,-40.79529228970097,-52.29243361618739,-59.40989582497291,-55.306929960527036,-37.6051769339649,-9.834524251698083,16.315656418363783,29.97928399141391,32.74169105541353,33.276223269359704,33.10307280728451,27.99890584275991,20.634134787136414,14.857208188905844,9.378971857326981,7.6360770656612535,12.680340023153198,14.968370501425678,7.957563044580705,-0.5237404666533209,-6.2910483120753415,-14.596663435072074,-26.105454184272183,-34.98529243740609,-39.74599886793444,-45.59909144754319,-50.4271678808786,-41.04766179100442,-14.23404733178155,15.1621773217471,33.04164799769344,38.989109234932734,39.35906151048386,37.7677186650007,35.05851122438106,31.023416003398815,24.969047544300746,17.39761507644539,12.040014462822334,10.971197633183236,9.15398717679415,3.856207934085986,-0.5074626451986222,-3.903562721528635,-11.0770944342333,-20.7408885454866,-27.09308198090673,-31.948667320900746,-41.99422707569734,-54.65871335947548,-57.89113253719921,-44.02382681980806,-17.468585280878493,10.004735449603901,27.64602827074223,34.40443697252561,37.18907412338036,38.89634799185039,36.2373450495399,28.8497130277239,21.103375765984836,18.019913057817526,18.212868664276964,16.522594261776575,12.448321110829658,6.6785422480725405,-0.5272428136047239,-7.955970002994017,-13.592198473542497,-17.029586957544247,62.0,121.0,63.0
-70.87359474352868,-52.03932350924085,-20.152269267291512,10.033390678521513,32.03370833166673,46.308705246883655,51.85989275597177,48.2886824388673,40.97548547921425,34.55785059041253,28.705413833025492,23.366361944369565,18.71866000138087,13.753590261469654,9.70831236145291,7.796433636553407,6.040706555536425,1.4451580483935949,-7.745139758416267,-20.799473921342887,-34.3593253117943,-44.33400219028884,-50.596270463404124,-58.19002036773113,-64.03496839206073,-54.1291693855963,-26.989046289527003,2.817394557558992,22.912238522798287,32.83617863304628,38.511451371682845,42.29962064799025,40.17180594572441,29.919082660336976,18.73182429084708,14.702790730809816,16.99175310477325,18.45246242564626,15.382526332289176,10.633602319653402,6.416111516016834,1.860654782051125,-4.038394220295051,-11.834578739066183,-21.692813469308106,-32.33855134344278,-44.695490655527294,-56.68918730580573,-58.55546654334786,-43.778610085762715,-16.02564521903489,14.847383864607565,36.968205436444045,44.43914431248641,43.182637195563984,40.21117179140597,36.2091624944538,31.00318705908133,23.828818045358453,15.057740654939801,10.518421459532876,12.385789511511852,13.43071404999669,7.744619870475836,-0.6955466550355969,-6.770817151659965,-12.4019240298449,-20.374007683589273,-29.666313745867832,-38.99836644614091,-49.07260394734942,-58.11877348162604,-58.47350662160265,-42.738802432915705,-14.415006568909721,12.24059637590756,25.632133706448126,29.081453352509282,31.530813920908496,34.169715421198426,34.10710173136286,29.227636324557295,21.5406640379061,16.381565305587127,14.737757603915071,12.768208637936976,10.445167374422432,8.713051711549928,4.19141261181703,-3.146169850725829,-10.14952656529991,-18.817217636769815,-31.372774728063547,-43.54619208306092,-51.856644921185946,-57.75492546658567,-55.489536757472294,-34.729081435202595,-2.9312508986585897,20.76022059218667,31.77726420049466,39.55970943731345,47.00580135960344,48.04804610311361,41.31179957643013,32.28473648668828,26.19956366387218,23.217772920507386,22.754694418808807,23.171380948215692,19.343415647568925,10.76595498029943,1.8300320554458263,-5.590954596994032,-13.731817500225839,-22.536060044801264,-28.655425013997196,-34.29138910791429,-44.048893983343575,-55.181470531875696,-59.56130603162991,-51.584094703526304,-30.232325645944353,-1.482449107363912,21.750908867433235,31.50719515936788,32.844547015915886,33.496479139516964,32.20321579287412,25.811890413201912,18.827500720644935,13.252472440847098,8.175630698420159,8.601202425411074,14.199664509072912,13.73616265306267,5.22267740369292,-2.310328049093307,-8.207250263392078,-17.811521342951224,-29.178638721137762,-36.607484482883116,-41.12783594755641,-47.60023157937125,-49.71245452823601,-34.67309097248365,-5.172686427314085,21.791131466675093,35.713905664285456,39.42993280204357,39.03382000098271,37.093138687541654,34.05874206946947,29.504891157497703,22.83577542439042,15.408427169204947,11.403733532893181,10.813805260333165,7.846719409617412,2.3204753218537846,-1.369641644225106,-5.466562556333241,-13.888788239277213,-23.05637162168173,-28.311554041553098,-34.17311355211932,-45.83084726601478,-57.1163397823408,-55.65614017007272,-37.21549518034184,-9.040710797919807,16.387446614180828,30.469635755323832,35.318934242095914,37.896097261506746,38.70683338501633,34.46101053362726,26.38350074866866,19.623832923526347,18.00123709092188,18.03793523628901,15.530523822814107,10.957661159363395,4.708773205598015,-2.730094822329537,-9.85054985739874,-14.744482406738063,-17.87388802837834,-21.33484835979425,-27.767392285370576,-39.829545562346006,-53.858238488376074,-58.22893420284316,-44.69035763737659,-19.082118543282057,5.424379122990492,22.64575301193749,32.309836786053,36.834930892814526,39.62692049955994,40.16991372873803,36.19315738271215,29.764360133783015,25.774273071104524,24.847068004755453,22.61645626537897,16.912632817121125,9.377029383267896,1.606624308752324,-4.721529754551328,-9.679157310761296,-15.742164390718695,-24.315583620881124,-32.757447495158466,-39.07979942050101,-46.750812981832354,-58.22893571212491,-63.895862303220945,-47.24085190523088,-11.747419208411774,18.74349187740928,32.49700030738422,36.50153480140372,37.511354463030656,36.28611742598982,32.09528410472199,26.177871170548887,20.90293566219104,17.773000076229163,16.150619435925535,12.616810447310057,6.846994363441285,2.4863766663126086,-0.8961362164064558,-5.887439679519664,-11.9101958238985,-17.915904175244364,-23.094878295308813,-29.313666269036027,-39.23731885164009,-47.7219762706339,-44.8470468858797,-29.683262084257223,-9.103871072830556,10.246650976546547,24.440830347634627,33.383008943844324,38.28729943922799,37.45543294674457,31.22051831041286,62.0,121.0,63.0
12.478072566375227,5.250888497325031,-2.7240949925287206,-8.258793345180479,-14.44686023252404,-23.021550491400948,-32.34754886818924,-41.807897884226826,-52.02823867647043,-59.54967382440847,-55.69194385551394,-35.34812553279406,-5.822080585877841,17.626592051114716,27.181675624198057,29.677741267539602,32.38574440062885,34.56354343856149,33.20872185984981,27.0694273585888,19.596710051899557,15.700679668986345,14.320817305205043,12.015129272495324,9.98407135337493,7.834808772791434,2.189864889621403,-5.23693319981865,-12.283651792834798,-22.123534878862028,-35.20563729255799,-46.3043052362129,-53.81451459410681,-58.5014048851398,-51.53184788730371,-25.79442903018603,5.371150749063405,24.917484913737695,33.96198391976115,41.96724769974466,48.19513966811011,46.743419893799484,38.627475285650874,30.13064587945569,25.08221737433845,22.81669703366701,22.99121886249065,22.679564869032756,17.18360965923939,8.041110054320495,-0.4167369184599349,-7.757908247974478,-16.366288724111914,-24.638618630452594,-30.06653602843462,-36.631099602270105,-47.45802811802365,-57.480691634699475,-58.65504525584886,-46.70037229407428,-22.18198479429474,6.3744977702808505,25.956246387406015,32.313852813767106,32.968329998773896,33.5749008212668,30.794555931609587,23.610330797634177,17.170842939881595,11.62216523836041,7.470225447560575,10.10482421534327,15.13017399655618,11.731542940246882,2.6556958463082196,-3.910510559927415,-10.502920632231069,-21.202714783690414,-31.867122133656242,-37.944241639161994,-42.76766260831395,-49.30105788412712,-47.43886162617729,-26.977955370859224,3.617077472095466,27.228359159372626,37.519795753071534,39.558427244289604,38.59164530636709,36.332379308009905,32.93407525993378,27.798692541083348,20.609529017673697,13.73687254577465,11.108179127786618,10.405886414423408,6.28177746269378,1.0039270445160264,-2.2516059611533663,-7.45675110001296,-16.77712637879811,-24.960800537884545,-29.574425197720707,-36.97302339682563,-49.68597797457452,-58.4435284955938,-51.92383065416871,-29.558377613077493,-0.8678237661069264,21.74215202060545,32.483188483344065,36.10169468714733,38.48698737777573,38.05265126488524,32.33999585984993,24.02914884678824,18.638039475761808,18.12366907957996,17.604414317022478,14.37907493828057,9.323268768393053,2.633814052435507,-4.914304849479335,-11.537051514602041,-15.740681003893005,-18.744698340906915,-22.739324821163162,-30.64600885930089,-44.10457025685892,-56.67283115426127,-56.193608319948936,-37.93440532083779,-11.42460561271933,11.207078350010615,26.170346849590572,33.96084446515672,37.75172156096931,40.138527910264656,39.51147671175292,34.35950679581344,28.204030426276354,25.339383688684435,24.5356487742934,21.28215426120553,14.84340489179762,7.082648023794512,-0.4246192062315221,-6.212760959297169,-11.194398911916782,-18.001446311742225,-26.949989487245,-34.73457292921347,-40.93393343280765,-49.79446850038054,-61.26766683387258,-61.8115039622372,-37.999199224727946,-1.4321053124180503,24.325927488098646,34.21838256093394,36.99099533542517,37.42874903578793,35.37816907850332,30.45014413892447,24.503086479726772,19.74163627385534,17.27566186085242,15.461708875836386,11.030367434257684,5.331463351571977,1.568488411442906,-2.151667196116797,-7.577588622442115,-13.692166657177726,-19.49374210101034,-24.61091470381071,-31.820133442912592,-42.31632367225664,-48.33975321236803,-41.48150940916657,-23.959852098346516,-3.1520241229352903,14.960670596545631,27.477359348572104,35.2405160806626,38.72734087991641,36.05832667357245,28.921892099808453,20.352270201153686,12.36902512246039,8.250046397435057,9.339158877281312,12.15386941873093,10.217275977763757,3.372017512674259,-1.7177559068252584,-4.171417002312045,-9.982907061174256,-20.41919172366634,-31.27914422819434,-39.28298510449409,-44.424641327319634,-45.545981288978034,-35.506309396747625,-10.622803120796327,18.569971866555772,37.64758343138936,43.63267323418345,41.97073827713062,37.69100489624436,32.17937402834231,25.736818373387507,20.611742978580473,16.524469534698472,12.251373555679212,9.080864578631738,6.409830832802402,1.7407878732094693,-5.646260750121897,-12.894140484001118,-17.993933373247174,-23.61250513319946,-29.25383986163692,-32.37269490975207,-39.80235230436749,-55.437979962482956,-65.73358159027022,-55.62821554320137,-29.141939523416088,-1.514627506583273,19.31186933786548,32.04577169926062,35.604695513909284,33.02794279967822,30.698623816704053,28.158687016652777,21.252576993414362,11.416243944641224,5.2028725457004095,5.954114730217804,8.029476813132806,5.4269211765847905,-0.026005498807205974,-4.386160063851362,-8.99680705833921,-15.245123518341755,-21.015469775305206,-24.98184441289183,-27.891218756596437,-33.568318086493115,62.0,121.0,63.0
28.962289452580308,32.66480272446149,33.16664734101141,33.34964148647404,28.952996679233436,21.530946599585853,15.585839119033249,10.046345231712095,7.419219275702043,11.872223531523444,15.232390979692676,9.210019761035946,0.4000951449488317,-5.504826272834541,-13.215826393578933,-24.59297627099832,-34.10508192507129,-39.16804945249377,-44.66746183431175,-50.30871875870919,-43.457421735240686,-18.374452678748785,11.733718123865678,31.468126029208488,38.64813778392043,39.46208361531494,38.04906933473,35.482717160036124,31.663777871348668,25.902954620414608,18.387090325026946,12.474019800191323,11.00491821750673,9.638501447687325,4.614048867568536,-0.07534761852548408,-3.3132758979718235,-9.85627944908175,-19.550096936551896,-26.485811316466037,-31.10214198552008,-40.310558333726654,-53.22827944126001,-58.407416561082094,-46.80410102822636,-21.349737752049027,6.750185541358643,26.02364096825625,33.89549926250656,36.848733154490915,38.84401335024518,36.91670304058819,29.981728497371662,21.939769937066576,18.123227223421075,18.218143250058887,16.91611999352424,13.08873448750021,7.544829911510362,0.4818660769727067,-7.024689924691088,-12.994973300572603,-16.635761444839627,-19.691971827114102,-24.470024621680086,-34.050861169650574,-48.35217676969272,-58.34664931922848,-52.56093130404071,-30.472896581467168,-4.167146340599123,16.333678455607235,29.07367936470552,35.280747764308494,38.58730140906022,40.40016763723418,38.42996835030365,32.43709846395537,26.96194975052322,25.1044851770816,23.984095441703502,19.664345763075033,12.671766870696088,4.80380483319311,-2.2926615302276945,-7.6221629727339515,-12.878282268362948,-20.47423631363756,-29.46175137062306,-36.53976169618628,-43.03302491644248,-53.166976527139006,-63.413179984708734,-57.48801048198131,-27.593632239454482,7.815384698526814,28.48565142601103,35.39459274340692,37.3171393283727,37.139862280392016,34.20864705133841,28.720944970605224,22.9325388715679,18.790917103300785,16.852660528153226,14.512701302150331,9.318599737573052,4.03047465003571,0.6454077474983971,-3.5737452239341287,-9.318151117631961,-15.451802092799728,-20.983961467137394,-26.30642394337363,-34.67722134149775,-45.03134198949387,-47.79101921058541,-37.196801540661845,-17.97549483621815,2.5558243549597135,19.177665355008216,30.11993661906431,36.77003004812506,38.615534275935985,34.282134598975595,26.517878803568152,17.85483327560774,10.648639294140063,8.078899373315695,10.266224243794039,12.290740697754718,8.485967909366199,1.4705990145971606,-2.4602476534967366,-5.2902839545197375,-12.665728883062869,-23.7153087388317,-33.94380369630187,-41.01551425600219,-45.37966417750352,-44.168196985948555,-29.647648510409255,-1.8854418757617086,25.51715844646126,40.54560171367766,43.6570600357602,40.87344062829827,36.238298913202456,30.33804006368588,24.038793479668385,19.433506107169066,15.27071148250351,11.180163274906471,8.364793553817053,5.3609155823331,-0.18017784756135824,-7.929532709043659,-14.53110086293187,-19.436670369277003,-25.445493036117753,-30.30562266822711,-33.62412199988551,-43.77153725529689,-59.84073851087844,-65.16044220873358,-48.988708911371965,-20.713056444868812,5.297303825730124,23.872901832625125,34.016866726329525,35.18086977199871,32.16924769600092,30.205360858616487,26.69042458433043,18.472852234392665,8.941912068727246,4.808229441565922,6.792495447839494,7.830451431904051,3.906676708125274,-1.4395204001817128,-5.550035045060413,-10.696695685590342,-17.058654511519777,-22.358108469199042,-25.82407391972092,-29.030549325980925,-36.183272509060984,-45.42100955937588,-43.78597250889501,-23.03639864498944,8.445168617627766,34.19978178765041,47.37118941093929,54.138817859704574,59.6996434733357,62.775601802127156,62.10170323662749,59.05649761879398,53.37359753859928,43.85111328394218,32.13137697561067,19.413241606218016,3.0568616825316806,-13.923553303083347,-23.11994651595426,-23.904677270200466,-22.259628894712936,-21.606760869965782,-24.049015926376367,-31.98902390349902,-42.99577107859418,-52.489814146962956,-56.110646759902465,-48.7327602028932,-30.503776457718708,-8.415836164545322,9.258247943600015,19.45807797800465,24.235384241404073,23.794901976784942,16.27217089183503,4.573785950606917,-4.694769832187423,-7.757898286384195,-7.551541258026348,-8.465338035484534,-11.050064495930394,-13.385063819369954,-14.249128631080694,-14.675112746514367,-16.965511385750016,-21.5168331380743,-27.08119102487393,-31.99162916488164,-35.42093092340429,-34.3652305089523,-22.865711793504158,0.41476393920280397,27.113589253270078,46.4978023205194,54.91576155968204,55.753894862424424,53.01418482166366,48.16734803048254,43.74399683319783,39.845375482356715,33.042564783697834,23.432155809458898,14.056808551857808,62.0,121.0,63.0
-17.484267325155713,-20.772859631069142,-26.61618353036034,-37.9231525030404,-52.2619014113714,-58.62268032922646,-47.46611124518976,-22.684438200193394,2.5402081299982178,20.804274894668012,31.40570468048634,36.37865076812019,39.32882693219445,40.33166049613203,36.96952979427905,30.56979296080623,26.071046086994407,24.938894069706507,23.124129941880955,17.821475720316748,10.427941409634691,2.5908027479796933,-3.991249123508468,-9.018555173239209,-14.782307396898013,-23.08955659423623,-31.771144333487275,-38.27170582327063,-45.48407059378895,-56.66369388306837,-64.15557041188674,-50.94181864873897,-16.72084593051836,15.651249348735107,31.453806266109357,36.21099549196787,37.48793034775897,36.61473659702253,32.80648653008373,26.973533290240514,21.50405101992357,18.05059662784363,16.399992105911878,13.276945444206508,7.6045669417619,2.9369688050526883,-0.3751853253180134,-5.1331654520283,-11.08856543311269,-17.156766023418605,-22.426282594757396,-28.284571997775945,-37.77757267245945,-47.078644564533775,-46.0426741532642,-32.18450152486196,-11.896350609877386,7.915839189154995,22.891461535282218,32.42435393687371,37.91229448389236,37.94340176256527,32.23232964200292,24.03971348087299,15.466583059661268,9.339022638148649,8.34014898506349,11.194647286639555,11.870670111759598,6.452828175876999,-0.098912360803176,-3.081413921554682,-6.847525875817847,-15.67908346985782,-26.924907937996853,-36.318019533465005,-42.54727413843834,-45.91823591911484,-41.6226079267652,-22.57188843146314,6.806242464217777,31.32932756776092,42.4180055841144,43.20669833119252,39.64872414125465,34.677422606107505,28.4430551581709,22.522034357927318,18.27684883086554,14.00706854551539,10.242206956331078,7.638211312261518,4.08187024954334,-2.313397167004301,-10.094786674568757,-15.988620359164976,-21.026593307229383,-27.173968657716568,-31.136728174188427,-35.52053930734767,-48.36779027921151,-63.30106402151439,-62.62761255802358,-41.31291785707627,-12.554206749193353,11.46504632595195,27.74044084781846,35.191510624466645,34.3974806020135,31.470911856359322,29.583205435889912,24.776969651755905,15.555580378334154,6.963621807375209,4.989974073378192,7.5241464081029585,7.1538375792030084,2.278673106007145,-2.7029245202603756,-6.825170396679406,-12.517607988444972,-18.76846925491697,-23.536391894094557,-26.615781230696026,-30.538211551638245,-39.07095857711362,-46.70374793692306,-39.69420711915424,-14.318593803395924,17.092120459267175,39.17414769176507,49.61398711860641,55.8436054017329,60.96171133596996,62.92820912298023,61.41193313691602,57.7686920807806,51.00579164112517,40.559249392664015,28.646516387873945,15.130111362507208,-2.173603292470965,-17.63012863386145,-23.97225855344656,-23.442178108432074,-21.905785024502677,-21.851911040474608,-25.769670164822237,-35.07949364391369,-46.058375289453025,-54.38778775270953,-55.2534261554995,-44.372020560348034,-24.110349833003433,-2.584982372922359,12.930461264943638,21.29037444039773,24.757909132540558,22.338712504131795,13.052687186755122,1.36045169185521,-6.199431183612703,-7.797916041059104,-7.59257389586009,-9.110085473390837,-11.838978763732971,-13.787387113111263,-14.311893966207185,-15.074795687191516,-18.08808459808006,-23.097850178645448,-28.616691365845796,-33.18455856071255,-35.822248749354216,-32.35024967611206,-17.144926664086658,8.314327348571403,33.799190614781494,49.999594622425924,55.70289080912832,55.2473357233488,51.74923377183614,46.732677362569284,42.708575173977934,38.27987196963981,30.43058428290023,20.568450043668946,11.768953211682524,6.30668622197898,5.414287300606524,4.847197892961323,-2.9708263277645335,-15.709866674504388,-26.37634719629556,-34.73882114892906,-43.98740255924993,-56.01654282928242,-64.14309123322057,-55.127662463162466,-26.930080698943446,4.664589532284516,25.1553057976353,33.73116365310683,36.77504725025532,38.289474900947255,37.133093970871904,31.518633745198578,22.533627344733603,13.39078310562572,8.013614249509851,6.683143301110763,4.95823486083646,0.7261435277844699,-5.299818906681719,-12.338368069650267,-19.04805674699194,-24.966841911296527,-32.283382735662684,-42.08909171746597,-52.33558698314178,-59.96954755878171,-60.42193738071387,-47.05728992522844,-18.430463897747433,13.92595851861813,35.913753368160414,45.53580162331331,49.544350044483366,49.32744681787087,41.98905024129612,31.600680770904617,25.660864864106962,23.31556936293058,20.249743542904987,17.254977233814856,15.682702300011847,12.989492400924405,6.851203039240207,-0.2170634473338667,-6.192875575221722,-13.958483609156989,-25.587421413292898,-38.82004013206973,-49.526367643687664,-56.26252974926078,-58.09822600230955,-48.65248131732109,-23.96305491836301,7.667544313056006,31.22729989573835,62.0,121.0,63.0
29.99711379702392,21.51789195597977,13.281421070712645,8.485127099422677,8.961677984510535,11.930983665261314,10.864893427718373,4.325842375413121,-1.2879965541180158,-3.775008521436619,-8.885610231942803,-18.900012747812433,-29.95886303494801,-38.40750171863168,-43.88402624349144,-45.84711637284069,-37.7541730423027,-14.545034767472849,15.033594616150651,35.930399224143365,43.41900075331762,42.41751885096003,38.32896105659634,32.99526847081706,26.56991469948809,21.18234149337521,17.088848515922443,12.785523541927596,9.426225538513734,6.829512511041316,2.541383929968736,-4.58199716229285,-12.063787492040946,-17.3597423795466,-22.771766821469,-28.667225437505344,-31.939461920253766,-38.247441858256806,-53.2316048342393,-65.35886132910126,-58.22317668231728,-33.04121068399804,-4.8660167931618465,16.985489387195546,30.86683191741811,35.62467252040313,33.460425070254765,30.922117415918827,28.692201855811156,22.446548106467688,12.67694498982709,5.604672302157507,5.591418066139379,7.963457722322145,6.050657392196346,0.6763931059986527,-3.8634066230847024,-8.26905239950804,-14.387276979500355,-20.341772429085804,-24.55787747014494,-27.45439880139042,-32.50282191091303,-41.95899068114985,-46.682253337212934,-33.9501027555065,-5.071181506854385,24.85353308985958,43.10272885065947,51.55131260831029,57.49457295409751,61.941345621605805,62.77316041960513,60.571166135733215,56.21513693011613,48.304213922769314,37.16280552063693,25.05926596918274,10.457557779006047,-7.266977435164843,-20.491633569138003,-24.228523471932423,-22.932076424914918,-21.667739290145782,-22.429141916097862,-27.98961010504575,-38.302291620748186,-48.90458930858262,-55.668053757083236,-53.36331915227201,-39.186631464280005,-17.61798023317912,2.6970174571019463,15.977777112676549,22.74837322217105,24.790186661914685,20.264327292813118,9.616715433620973,-1.4732651461239124,-7.15807329358187,-7.695762038426024,-7.810639412898496,-9.864383884976261,-12.552031920741399,-14.054395837312649,-14.38956493310688,-15.684354321267833,-19.381228525426934,-24.72516557144362,-30.0602740407062,-34.24436647274412,-35.73114421665506,-29.302296456148945,-10.500163514582166,16.207063898877244,39.64737839160171,52.58522780558506,55.99135150358317,54.50272932907973,50.336899105305825,45.41729378778288,41.65560065875189,36.386317464530535,27.64357681892413,17.80189461999291,9.759959908416421,5.606433309285979,5.610285244116257,3.4812995602626113,-6.5223427030113585,-19.15066811108451,-28.90562933230842,-37.16350055802163,-47.24771901525821,-59.34554844369055,-63.77039837686443,-48.493636333346345,-17.28059718033537,12.007309628512017,28.61664152940253,34.89584316393078,37.344299980492636,38.34761797565231,35.97963866773804,29.151519752588783,19.734729473344508,11.31022376160081,7.377404214462915,6.408986004832032,3.976572433755589,-0.8648851217077002,-7.274626011796807,-14.377538642027886,-20.78215305973145,-26.822078050847598,-34.90726981903342,-45.13421790688854,-54.96161814681223,-61.113159672205825,-58.24974953500822,-40.08491325487592,-8.718556756441611,21.717033569389166,39.702872600296914,47.02187703658484,50.07821089454356,47.942331552627536,38.910929438234064,29.262822484894656,24.86339244631025,22.566817600332204,19.25652714412471,16.697348866984253,15.194487841162964,11.542533166205288,4.729179366617842,-2.0036892875776644,-8.07758689210213,-16.949805768569384,-29.428169419927674,-42.32221377119562,-51.848683839212825,-57.48365507414231,-56.871526421224246,-42.975335741559356,-14.869048161073223,15.856489687446823,35.28324869562359,41.440573769186805,42.04127596799443,41.8490937751417,37.75571301820634,27.400193070136105,16.65012968064649,10.609301406506457,7.313252839265836,4.993294045969497,2.8321080850600207,-1.9631061393296956,-8.426746077592577,-13.731614743713473,-19.203288446571268,-25.905932263722157,-34.57005640163455,-48.42419884220823,-61.478074675142395,-59.210824669427254,-36.88278459562661,-4.698910015980775,23.248593397214396,40.62504853328965,48.22662518636053,48.6695744976942,46.37657611926732,43.22774928632156,36.886678068590015,26.382630586467023,17.555052761341525,15.43537194631007,15.808575557099665,11.39654274063506,1.6052814066123684,-8.759205373920064,-17.233164441636738,-24.56176397418162,-31.720624579829146,-41.04058543774071,-55.419810415035826,-70.30636182506089,-71.77597188066936,-51.956421596325356,-20.704421050329792,8.49202193415067,30.70101602661042,44.762332176243056,49.881997011914905,48.18415470508254,43.48357795237855,37.43611384996137,30.232664002746542,23.52759022259104,20.484616921441656,20.40801101226197,18.194132630484564,11.128589799873609,1.9022441074856153,-6.685035696566089,-17.286689220691684,-31.384768982740653,-44.309894528918065,62.0,121.0,63.0
-34.93140000310912,-44.487361960327064,-45.09127297267814,-26.756967776888015,4.248203212269542,31.519968235701135,46.17756454309614,53.338741255507344,59.04142771270275,62.5918561717168,62.361971656474054,59.57591767419896,54.34841802592843,45.31109421469852,33.72400376232043,21.26393141134018,5.445735193985856,-11.960971539679626,-22.481320976353274,-24.069213399495908,-22.455060387918994,-21.58079592515591,-23.427274455132185,-30.64620462595646,-41.53292760306825,-51.448072260655465,-56.175927032447916,-50.427411612984116,-33.353634287693815,-11.251684897742487,7.342030445470011,18.471658723423914,23.852096340439903,24.251721863573678,17.638771450876963,6.140172166183934,-3.8072715429394646,-7.653271163463091,-7.579764385107521,-8.218002815149774,-10.673982843075091,-13.152578246931462,-14.206947057086154,-14.552701078374364,-16.512748595293882,-20.81627139050072,-26.347980614100596,-31.405231464826205,-35.11147274397148,-34.98074567105223,-25.151431630460326,-3.143481748845874,23.79336006445213,44.55961406636719,54.347183093073674,55.899564243793876,53.533232690167345,48.852024317269176,44.243748005464305,40.46842608179067,34.16568224049201,24.76621410999869,15.192419595066772,8.078310962301446,5.309345473086632,5.6342038446835385,1.356698914801737,-10.286127609941946,-22.292675489489262,-31.304145056248537,-39.751767871931676,-50.75639907320869,-62.062628978066286,-61.631673649522256,-40.413067350182956,-7.860512690646417,18.195700615276404,31.19006300222417,35.77561295251726,37.82658057446119,38.114173335171856,34.43174837767411,26.560015385955797,17.011109801218485,9.646839479226944,7.012659681326301,5.978336517541373,2.7848631157094186,-2.5841536425155005,-9.314798077125918,-16.346381719743636,-22.46409843216121,-28.870534724806006,-37.72934345821297,-48.14451105306573,-57.296246226801244,-61.52088608324085,-54.74341582713534,-31.908834421900348,0.8913882114872063,28.364528691733604,42.56644641914759,48.22325807761817,50.184537600333485,45.9104650825659,35.781018319298994,27.44717715433287,24.23154725668031,21.68906213004731,18.342919920934648,16.258476377116118,14.509952507579342,9.791316184189428,2.6376942876910485,-3.696918167336507,-10.223833348194256,-20.269097846294706,-33.31114178513702,-45.50959363806244,-53.85918540418059,-58.23104783403875,-54.4915245906399,-36.0146356625702,-5.535025145040166,23.005227052748943,38.16077253543622,41.81947565986816,42.087182028031236,41.299861000935195,35.28895839253713,23.967286293701974,14.415174254002501,9.521265471089253,6.541159689718727,4.466026009153219,1.7954891230668315,-3.8349147710728846,-10.092566327954712,-15.1870563612575,-21.04097382482994,-28.058589591605386,-38.011065989503365,-52.91327258150385,-62.92075871774245,-54.59805835803145,-27.91409115348208,4.287273243270674,29.38868503659129,43.73827756297014,48.91360096819091,48.10941427158395,45.603171490085366,41.867466150942896,34.143705747775975,23.30194886890956,16.262699822425375,15.659118636217137,15.219917075989994,8.938263545732338,-1.527973307078116,-11.40077342572338,-19.415180023317138,-26.60096721774662,-34.0175847505037,-44.66208528438049,-60.17251529596796,-72.76380471989266,-68.10209388577326,-43.382526239141,-11.683687181082915,15.683763175955944,35.65719637073437,47.14199605354887,49.91022993862775,47.00905478646597,41.86106268938797,35.453918347956616,28.098780188343763,22.180992451394868,20.348594105400778,20.213091724957547,16.61673674107391,8.488220426857628,-0.6290413060498452,-9.349498288424224,-21.12578228350687,-35.50232617442948,-47.13150746354293,-53.979859969783945,-60.56903757446516,-67.99382109538622,-64.28214008892007,-38.75383384803813,-0.32226148712320324,31.127848937901433,45.56812389670196,47.97604775378179,48.54621267621855,49.40430458022371,45.011662154672614,34.99552454789526,26.390734148015767,22.923293887954312,21.99415762453331,20.224726743868448,16.562474374250233,10.396583160412938,0.30993959314086345,-11.260725613637149,-22.28678846412224,-35.16681723457103,-48.656990499047716,-58.90496130878174,-67.6812402532787,-72.63645133905655,-62.36585065640235,-32.95641190756868,3.9762871425765334,32.23301692294349,44.94015998602179,46.98585750495628,46.99461602790531,46.373212404210555,39.95398112249512,28.073371868479995,19.738134897763107,19.549353133226614,20.952100347279085,16.952671740596216,9.680658115211733,4.1377940838578695,-2.6070615625810776,-15.298833403117186,-29.929663629360753,-41.772262288668884,-53.092292469090424,-67.07606203478328,-77.6893766387486,-71.93826514374823,-46.54388677564591,-11.241198514684825,22.277336967518174,44.97227235329023,53.99099899522634,54.80411675621852,54.39886497892356,52.15018269997044,43.98809080304391,33.24851457652847,27.000386301797004,62.0,121.0,63.0
12.79197365669889,6.771737366039879,5.334555799248809,5.234322657147805,-1.471006829605954,-14.036083897274652,-25.145219059607196,-33.651111912708146,-42.58411800584701,-54.37386802108555,-63.786408886860784,-57.609230424887336,-31.322062954126615,0.919312215165977,23.21651929195329,33.056742079732516,36.48489855665314,38.183808364457946,37.53091270108589,32.514597694776455,23.822235161532674,14.47012610341407,8.43032218753947,6.782463169735776,5.333796558670286,1.4122620652661966,-4.418928676832247,-11.385114507998882,-18.219029614693774,-24.15919005509669,-31.150833516750886,-40.693585917151644,-51.05021419075262,-59.23884042800127,-61.01469729133024,-49.813071945046396,-22.82248080784447,9.994984360567154,33.80350265274472,44.721426358198215,49.18719272307141,49.74241074270384,43.32414065532499,32.83780931764996,26.128570382628798,23.620523084749312,20.714214164743872,17.562611663905248,15.870196353211794,13.544201650562556,7.812010229199542,0.6519382201132647,-5.385143731713747,-12.698300953994728,-23.86093118998916,-37.120446375157215,-48.34153029652153,-55.57549336796355,-58.32893665278761,-50.81031311784932,-27.964021654364284,3.6197387874093447,28.9298187363659,40.036179690634334,41.96342927627645,42.09897165954948,40.28217107564381,32.3113798047623,20.72484409372746,12.615869765462255,8.565941312660085,5.850957043280982,3.906827463764532,0.46278362818629504,-5.751516744792228,-11.624718365324275,-16.728957132503428,-22.964851985039072,-30.43273011613177,-41.97105326493127,-57.024231461882835,-62.72713963406771,-48.35854945345486,-18.491228013051142,12.609548979149277,34.598553386280074,46.08315776121827,49.084131455531974,47.439535031286916,44.75278219538632,40.150459547747076,31.08360474550571,20.574113362650703,15.579862165299327,15.892423582702477,14.081937238320497,6.107587048483359,-4.578135629454179,-13.87141796303292,-21.53589948488861,-28.639341110611927,-36.58747739146642,-48.758859078702265,-64.74438897951492,-73.69220120760282,-62.62322129697155,-34.25687186988495,-3.089234204432735,22.254116419038187,39.9034247579966,48.76494400022214,49.46396477751199,45.66709712667648,40.13907253555981,33.37459346971586,26.077317256450584,21.21804428953436,20.376381016575138,19.69599646353957,14.624306392832198,5.780577584288062,-3.0776846645113536,-12.30816761812857,-25.22148873802025,-39.36402664449683,-49.49866882598152,-55.65034994323362,-62.929428932799865,-68.78868027336526,-59.170735850085904,-28.102060796997858,10.237972123112028,37.06515879730142,47.018261606817134,48.007165019648504,48.962432812374416,48.89043156894924,42.445710197149545,32.04934626614297,24.901953322452247,22.56905555532783,21.670017813090862,19.35135015517408,15.125025842378536,7.869917331265023,-3.068939779637372,-14.434574574539504,-25.73139623442108,-39.22687030045028,-51.976530425596,-61.46810048853845,-69.93839887160911,-71.70610112670374,-55.574719421476004,-22.282998611446743,13.586911752560475,37.468290830039656,46.21259170444052,46.93130054631946,47.076832789149435,45.303098927046825,36.77929723698863,24.874248846443432,18.973502595772175,20.219227826919322,20.445520336229162,14.894393116362437,7.84879271515571,2.6300904576463484,-5.671192519143267,-19.65377353194768,-33.650872518311836,-44.887006183126836,-56.87879375974754,-71.06341194674434,-78.16530991966407,-66.34514131310148,-36.80530232046255,-0.9141483710255377,30.23886806595605,48.873451531458215,54.69288543879127,54.65613704838805,54.172631488357,50.432857864727865,40.79900545254316,30.79212391318716,26.276424138583383,24.925989055268133,20.55859366649247,11.987055974399237,4.181398022690589,-1.4575783587026239,-10.560193514654857,-24.964611277615607,-38.1536522255097,-48.57216771772685,-64.39219708711096,-80.69773506508048,-77.0365622460081,-47.06459566220012,-6.888707869840374,23.01010447960997,36.350329009849276,42.46124565373592,48.36508708790313,49.6853190839269,42.85987494574073,30.935471688212623,19.402788927347746,13.015280439458548,12.791080214735333,15.006677649094783,13.254187773611967,4.449509768402926,-9.470848134204445,-23.852767177812243,-35.71294571384065,-47.03848417543591,-60.54242840301011,-73.90430035901147,-75.54357159361578,-55.54313404951925,-19.82722219390226,16.192242571957078,41.284825907247765,54.66285593237406,58.90538151760403,55.73393081706539,48.644190848375835,41.362299999788895,34.62422064084041,28.31226879662265,24.619302860313617,23.539985839870823,20.086133204958315,10.366466774655263,-1.2021666612423814,-10.613942646681375,-21.74831054488499,-36.99447072555052,-53.553286766093564,-71.00381968815346,-86.79656540982398,-87.85080534513355,-63.98003212875203,-24.815669825271037,10.744709914344583,34.32398630150879,47.32000949319436,62.0,121.0,63.0
33.567794630011974,41.13216099225534,42.02036652267992,41.98235592457761,38.69364814423457,28.989039492021494,17.835635653079326,11.177859905174136,7.693095499584588,5.247291926305561,3.219230842289294,-1.1466183341634977,-7.609979046899786,-13.072682466870283,-18.39323934840707,-24.958670113512433,-33.159390049147596,-46.33732229459874,-60.33419691887502,-60.741541982109446,-40.75528911765982,-9.000008990481556,20.101257703730845,38.91855131243583,47.705682762690685,48.86539614050147,46.719212669387474,43.7580930011239,38.01630751806147,27.864806990869532,18.36693628197987,15.397300747018095,15.91854547528522,12.369829033526546,3.050311890390148,-7.480249613967285,-16.198631184546606,-23.61437726571691,-30.723866417929152,-39.53309071124944,-53.25498896811667,-68.75806052344423,-72.82279640755488,-55.607625321575284,-24.960319691999427,4.971785608110804,28.186748184567822,43.405438902304475,49.678570418081875,48.65318878679016,44.1977169289752,38.313811113601055,31.22932847509593,24.265976515220206,20.637168556612163,20.422537049109287,18.77074803611927,12.291118376775273,3.105566631210259,-5.5247255914474485,-15.629694885399672,-29.440833439789916,-42.85091236172597,-51.484406758849325,-57.47184370826724,-65.27441150853625,-68.23036557789952,-52.10817179815315,-16.813649260506086,19.730091482353224,41.50144637381041,47.71128300818113,48.11724678456668,49.32968674289355,47.77548529059877,39.51155216520525,29.425583943702105,23.849066757171503,22.32816060866871,21.205137831306853,18.328561174012865,13.437526438905305,4.993631773732254,-6.455400238305123,-17.572890746278752,-29.412748287095123,-43.222836272690735,-54.96564847272864,-64.01843635617873,-71.6893679258993,-69.18498339653141,-47.248002498121956,-11.397537273652338,22.110377132716856,41.36827808106156,46.8105054976114,46.90215557818614,47.02775908608062,43.60329035049526,33.26734728270264,22.246303345549073,18.879131840870514,20.775219861527123,19.380185169597954,12.720238850269855,6.244801053507215,0.8448933246328805,-9.28569544463911,-23.977495742720862,-37.09335361537514,-48.072713101850105,-60.937656648575576,-74.48560881984683,-76.95474291558588,-59.20076599867743,-26.551364547483352,9.003249918384428,37.101606796374085,51.65062105479076,54.91467820371667,54.54298735795321,53.67275073988708,48.15244018544825,37.57608606641116,28.862288406462074,25.844453697724767,24.180762909739006,18.355925808678272,9.42135866909175,2.5105299437587916,-3.4719595330608217,-14.361296220309555,-29.224932052709015,-41.14154543330846,-52.33876720636324,-69.88500219369573,-82.4758878838977,-70.67500538189354,-35.49700955030798,3.465459714615494,28.33561576186298,38.32421644713685,44.2258312907522,49.51468319785362,48.508002911397455,39.711050156300345,27.310616803470598,16.895893323103746,12.392284404894065,13.455510502595622,15.15941252568637,11.418213281551445,0.7830572862454269,-13.802491985432109,-27.52738745783427,-38.884208123846406,-50.668818039079746,-64.75887589734226,-76.24089928294532,-72.04185038403884,-46.216310413161246,-8.767763988587872,24.775071933761115,46.214762230760236,56.760658154198836,58.638651418663436,53.89095834268015,46.46110839990846,39.39813880134932,32.69206047902468,26.87836640839956,24.18044749016045,23.074579810839356,17.881043657245083,6.889621000752607,-4.081571241185247,-13.414585466385047,-25.818699581721464,-41.74701985613765,-58.45536282743236,-76.12804836912102,-89.33832990968111,-83.49345095518797,-53.3575712378024,-13.521338585848225,18.824329020469886,39.01335993353749,49.60112052161518,54.00463615410116,54.77085115666045,52.19664090210067,45.106752573889786,35.588773761972725,28.361997223439758,25.19795500764804,22.85189972295058,18.17364776695088,11.520907927296514,2.2698276384183704,-12.105311475003814,-29.232657778237673,-42.3630755229262,-53.23301345848546,-68.69746122662781,-85.40270771779349,-89.47136000935062,-70.57495767446058,-32.91961774850683,6.884107633499109,33.52248946133245,46.39845125935274,53.15681969315632,57.233468326449646,57.18610478742004,52.38743311572964,44.05583357504294,35.49389953691258,30.239094937779136,27.482041026875816,23.380356057565674,16.06103311885311,7.056865521281733,-2.5016473291761807,-14.25453402412729,-27.866621077739744,-40.34381054313827,-51.031123370075896,-63.134458572283584,-77.52338042404466,-83.76053478654362,-68.39378045169822,-33.18862818873232,6.3717043329861545,33.86386031503449,45.36989324657362,51.005031511066605,57.60199365196215,58.56424635734881,48.555378072402156,34.44837000424718,23.528250670536455,17.133928383106408,16.56834348571697,19.012972206502017,15.849086705391521,5.461191426578059,-5.5596672965120595,-15.249788124021665,-26.882720410611043,-38.778303312210284,62.0,121.0,63.0
-45.889157064404934,-53.21903443354044,-59.53511977814908,-67.28699767968487,-65.96741838375624,-43.30306257377457,-5.443575467665214,27.873796714654848,44.56361754035302,47.94589253042845,48.378145748340536,49.46855693913002,46.022984976944706,36.416359048591026,27.237741300531226,23.15175976380388,22.109793503961818,20.57330182161504,17.15768907981037,11.437478916567771,1.8338738341745624,-9.767960553396318,-20.767510257740273,-33.314453139064014,-47.01110728403657,-57.69944896495698,-66.5493749826303,-72.59774249067321,-64.92503367745036,-37.681230422433465,-0.7438583287029555,29.353709624559734,44.05777074183151,46.98445410352868,46.951645940575716,46.680324314659934,41.24719827547968,29.676655814578695,20.348247662753483,19.269978656780623,21.00300018185262,17.811720873590552,10.601628286794499,4.794088746838338,-1.3911843098232057,-13.33405480314977,-28.11356866486493,-40.32548896650675,-51.447324308794094,-65.14563114224835,-76.96485876228378,-73.93811894086738,-50.77499740191759,-16.07274554535468,18.277838577131856,42.770327469138934,53.44466219688235,54.86701534388848,54.45370495153702,52.75022926655745,45.38706920510961,34.5356654136202,27.472950423001087,25.533349058555267,23.036374878395254,15.856801579016908,7.079266775154913,0.9585747642908964,-5.951385736489889,-18.55333059592774,-33.159205754388765,-44.00743093608463,-56.7982192324767,-75.03757709200359,-82.04551584441711,-62.232857325227656,-23.625769293280733,12.511308218775234,32.329800772391,40.02320124085829,46.01722507939909,50.091848716321984,46.64194634166879,36.25477269223865,23.86117212281804,14.91208927357476,12.266130015808148,14.185634481994674,14.817489673587465,8.982079293990866,-3.2319782818239404,-18.03540230038637,-30.970133273548015,-42.09894158316178,-54.533310028859965,-68.83381278519948,-77.21317275680263,-66.61215517634616,-35.88356525337839,1.909179724251607,32.27317805113892,50.24153178888839,58.13723278052026,57.80114748250888,51.83009385105291,44.33540307144051,37.4583736737018,30.813057253361034,25.73657587630726,23.909220806425378,22.24141847701668,15.12056446340833,3.4560207494451474,-6.768193131819122,-16.514784888035464,-30.212044459642062,-46.52407299078086,-63.478132660486196,-80.96777990158174,-90.21960649522387,-76.94985159335009,-41.91181736059313,-2.9590438214368047,25.848167158070936,42.90053576779588,51.36936728011746,54.53472558796616,54.42408213106978,50.622334691657855,42.39246972310908,33.09457893239285,27.091005084194563,24.648407313343604,21.76391274074898,16.42138631601116,9.227326608023077,-1.296727062420562,-17.095944950832536,-33.59610466020113,-45.385969097347036,-57.09261964992008,-73.90828103541457,-88.53585953629742,-86.49700594925567,-61.04075529982446,-20.781019820121138,16.274511684036128,38.330351129934854,48.69390342441065,54.63051598025912,57.72319244992404,56.255878653938126,50.249932532921335,41.40326135144399,33.571460856824395,29.342740092015905,26.590541239654303,21.576506716479113,13.526169521664489,4.395230915488942,-5.603049284561209,-18.119899048592895,-31.69656832221859,-43.532910670988876,-54.20041407396491,-67.27282622870636,-80.89198105212591,-81.82829017756994,-59.73392177769212,-21.37696976385321,16.061153601656283,38.55123838341097,47.05154929349616,52.898169574877976,58.908326518555086,56.68805192963016,44.44493022054046,30.84428252095049,21.18226023042187,16.331336896639336,17.321456196273434,18.98772230989282,13.34803096120287,2.0767413279055855,-8.353004379441876,-18.347607183066614,-30.49882859659441,-41.756850967430786,-51.7258421217931,-64.41724840017588,-75.08285566031974,-71.04706925130924,-47.684338120152816,-13.251622064915875,18.801565484802836,39.07545059710555,47.332604225560615,48.910406271445275,48.32864653229534,47.754101964236966,44.947873105389526,35.85240185349017,23.917585522344286,16.699886702784664,15.70631603520211,14.938029329132444,8.912082183702864,-2.234069447492079,-15.330081614270288,-25.52101679422551,-31.859373037964076,-41.92677232643054,-58.96434115122178,-72.15265085325558,-67.45861369600185,-42.4620770599246,-8.48119806632617,21.278754519335966,39.71373935914235,47.161334763765204,48.51876782727315,45.48042013258116,38.03632680195431,28.87557826760814,20.763236443345715,15.890108289018725,14.080198096131701,11.089291608769175,4.32526944877323,-4.224636668004352,-12.432962432054827,-21.569939518667514,-31.401818855436495,-36.71830632884205,-39.427303995051815,-49.26568699102397,-63.5834054242467,-63.47961341364444,-39.89430164713379,-4.6783400697932,27.463876913181085,48.79298819660874,56.95439292031152,55.79165831223044,51.69401462735091,42.93746573149609,28.535137516564173,17.94057205222775,18.054223625424946,22.46178320731404,62.0,121.0,63.0
26.56447089698349,25.163318772149097,21.44267252467236,13.210559415658981,5.028950865298853,-0.6472580426256298,-8.9775111054296,-22.940099375348407,-36.67247425720214,-47.037920239955874,-61.89444369422264,-79.24434666366997,-79.18370703320436,-52.135987772095135,-12.012889651886264,20.05421237378218,35.26473126491378,41.67694017263434,47.68801814140926,49.98230310117678,44.172010108564606,32.6270181450453,20.71767316311764,13.484654438954104,12.552211716525987,14.806111532029318,13.89070130973367,5.994611440453238,-7.475114922429145,-22.073014434972702,-34.2406045754049,-45.43834864202927,-58.611010210157126,-72.47265728994141,-76.50099485605028,-59.400284134957325,-24.952593895395776,11.890885063430778,38.682441872183176,53.44589226443574,58.81712279948104,56.47890506602264,49.657840504443016,42.28450824187985,35.51944057610739,29.057667852848873,24.90430257825819,23.677063447405207,20.900481138384183,11.931309134418203,0.20992466566027024,-9.386640947857625,-20.002010332911,-34.82407425192145,-51.32365988471317,-68.61613744203642,-85.17950470202199,-89.10178674584145,-68.45295277282241,-30.181452450936874,6.659645176474453,31.867201769379346,46.0738804088608,52.70096899296153,54.80954135059737,53.77774085838375,48.63923951386755,39.58452183090498,30.90337638873946,26.15527576211669,24.040447354528276,20.44845641710092,14.534401689930878,6.666906155097717,-5.359644508536589,-22.16064544210568,-37.47498430859306,-48.39472160875052,-61.48070052391501,-78.99029714221146,-90.22071124610738,-81.4566029548084,-50.20252663754222,-8.951330579768342,24.288332419547256,42.14461166632358,50.667506505502885,55.89106301644835,57.81118440458335,54.9423671614302,47.85419025437272,38.84440379628387,31.986847586777632,28.58094368681912,25.48634244362828,19.497157081483262,10.916174212602643,1.681611853255799,-8.944656562011637,-22.085032681236328,-35.35478533632185,-46.596007273635635,-57.60540158807019,-71.55361188392433,-83.18457591462429,-77.83715914589983,-49.64961089428588,-9.659606902364057,24.3906096239316,41.98628502645534,48.58431494438353,54.90233387648571,59.467552059342815,53.88448099066601,40.26372612435106,27.60419933576788,19.21698031740829,16.070176031700544,18.162997985512987,18.266888218504786,10.339162944384636,-1.1737597568461775,-11.089801037997528,-21.68593284536635,-34.01406050353467,-44.57884771529823,-55.05650303502951,-68.25018658973038,-75.89920452467172,-66.1196492502901,-38.28779661920094,-3.189345173997632,26.065456334375227,42.48901872504512,48.23549668411398,48.81574776602454,48.1549634100556,47.40186581634809,43.0013754883412,32.3361983907635,21.106432383205313,15.943419978192185,15.798358503954942,13.825607691006466,6.113104920346613,-6.010187179862497,-18.779266419049975,-27.530868691614,-33.99446403446946,-46.37207488227803,-63.884921861238674,-73.0454471361035,-62.01203773849582,-32.90185698228975,0.9962588460478308,27.900656416888058,42.79545100451981,47.99849393168843,48.13374885903097,43.70007427752048,35.42686300977682,26.317680354091188,18.952400811748895,15.180100782258636,13.556087836305045,9.490665956886469,1.9039537072194896,-6.646624523887745,-14.864746676552516,-24.54363430670638,-33.5668199433603,-37.353725126067175,-41.235780567034936,-53.63100529035879,-65.87464668496534,-58.843949678646304,-30.147555224191386,5.390414718102839,34.93006256463586,52.47585942587189,57.231922294735824,54.80049791500791,49.878497402419285,39.08651293821398,24.571044905256468,16.898650459759637,19.467560410356462,22.59137095548586,15.254417066953904,1.5463314898931269,-6.095042310326412,-7.328345293434958,-12.686740092704595,-25.12042148042181,-36.71794297287843,-44.15360161857239,-52.22026857692671,-60.88064884585861,-60.5114439739114,-42.94673565081391,-12.477650615808733,17.480017861923645,35.58076806808565,42.58187001029628,45.349953212524795,45.517932082939204,41.25090839623493,32.96607880327746,23.177417350431792,15.798221869426198,13.424395040327092,12.094180132952888,7.761882624776483,0.7138659026061529,-7.676121120718414,-15.649405994358546,-22.237457683158222,-29.211979869817466,-38.37870538425541,-48.339990584475906,-56.603577964964,-58.65620436603748,-45.232245199110444,-15.717982240671095,14.27159968171364,32.2382946093923,39.1032340504698,40.95802919312179,41.01289640974186,39.3169761572264,35.50147065008242,29.12978013646154,21.65719919106767,15.79024161364154,12.203896026156531,9.337970453834306,5.835738241027459,0.11653722818916384,-8.166236477043546,-15.34375051993551,-20.417733382068118,-26.214679292732825,-35.34018166180759,-49.64885562181421,-61.40547557887804,-55.125848783830584,-29.543598757515266,0.8253442767568772,24.20748671342495,36.8611217822285,62.0,121.0,63.0
48.617877521316785,53.66626789488977,54.84044788626051,52.78436250970857,46.28999570895814,36.81675464537332,29.07504608451491,25.46562612478867,23.27536614829644,18.93146135737365,12.509072168055086,3.7543692942781295,-9.888091571853062,-27.074242524475668,-40.902125828070524,-51.618834910160174,-66.34121337155457,-83.57025843852412,-90.15420146177517,-74.43116656171183,-38.48653251431154,2.1291269274340276,30.91137619868008,45.1922500446118,52.4146612532116,56.883698677141766,57.47944733896853,53.2707680374332,45.27732315355488,36.48804429064509,30.725475080493805,27.843791532703328,24.112621783506132,17.187119222992415,8.277353620645588,-1.1433689663470177,-12.528867905476824,-26.057561726699902,-38.81499161643703,-49.61988490352337,-61.31648710993344,-75.72824087445329,-83.98775875648928,-71.81371531561389,-38.5370297411535,1.5150981556929257,31.222775170383635,44.45971815204403,50.19818727208886,56.819695665067194,59.085604847060814,50.355061688737166,36.22275961397646,24.731407024734352,17.680624466270682,16.314407954964697,18.83335511272807,16.783020118346773,7.029759136304399,-4.222058738433823,-13.898511918443363,-25.217230049308096,-37.32980393069228,-47.37416616183254,-58.710761944137005,-71.65070785077934,-75.16985878533504,-59.60578858933657,-28.271285812669994,6.343268259330855,32.187828289471064,44.99404772989783,48.72152445991845,48.630917852945764,48.01175976446361,46.746605821906755,40.456397145113456,28.7695203906011,18.86061561451339,15.650403768711193,15.71115136978695,12.194788426841287,2.9359011120988665,-9.856062582973461,-21.846475127144995,-29.2857306184209,-36.696998235992154,-51.3465239447156,-68.09288481897144,-72.15058170734537,-54.97132358104295,-22.96536822415892,9.846327358092807,33.46761176006655,45.048381977991404,48.45531084283767,47.35976126033801,41.57947437285931,32.755691621602196,23.90523535658536,17.464373519613694,14.681242115860778,12.793285948881579,7.573023776067329,-0.5894627202526419,-9.007614179179471,-17.45320588284857,-27.49518450425687,-35.20842840915957,-37.95767649816794,-43.895926074163725,-58.07713214984044,-66.41558890794387,-52.26710081721099,-19.86674332562719,14.912341661135583,41.368121343528664,55.04016905400295,56.9090096808209,53.685894824774614,47.51943110575497,34.850230511801534,21.237863441027876,16.810017871152375,20.945965119682874,21.722480516634306,11.356477615761944,-1.6421672590661327,-6.697967941818577,-8.041251470285912,-15.802856975446316,-28.92308398407551,-39.14355336551269,-46.219086294494545,-54.95117702054724,-62.23049861876815,-57.274576887264644,-34.966641116267,-3.1145068522822963,24.15496703879795,38.418736403497334,43.610991271639335,45.7438528283665,44.790043007032004,39.17453680587685,30.15726035553672,20.588125726827155,14.656862707790683,13.202163309051766,11.191977671748186,5.947817605330194,-1.6417945992362761,-10.104944647270344,-17.6680047982522,-24.09003400583512,-31.63229668219015,-41.300301212002346,-51.002124954895486,-58.199060997384024,-56.734818251037986,-37.878214096174105,-6.288310456173879,20.866516400736497,35.1007071706071,39.91810041608256,41.13430556496265,40.71328879061509,38.46186851092324,33.90984859166024,26.95905845946891,19.707125418286495,14.56774461043599,11.379796218476223,8.43789914036436,4.503236982952646,-2.129401023594731,-10.515893348633337,-16.91951806456322,-21.90004258930973,-28.378092588769977,-39.00304137553576,-54.011379630868504,-61.93749711736678,-49.2093537444275,-20.57024431425465,8.590014824946952,28.97463264158959,38.69531152283439,41.16330913156437,40.064206477717384,34.71371306733792,25.869038560416953,18.03655048657245,12.190851832026777,6.864410028232685,4.478023636779698,5.47626886125886,4.509774128151782,-3.03951527878383,-14.647306067204767,-24.508332205596112,-30.13735707416332,-36.064418949599514,-46.03147221187278,-53.26564255436754,-45.49301422884931,-20.803898093905058,9.172450685542183,33.255748645826685,47.130830244949095,50.076560371956035,44.74122685846609,36.966019212528316,30.465681502324706,24.0400975841035,15.257588443682053,7.586586009689389,5.093770250988009,4.323525292301097,0.3022651985691618,-7.466451763169025,-17.65463692657284,-27.647635214094525,-35.82841875145099,-45.521974690740855,-58.13481001858116,-63.05243396099933,-47.65522258975618,-16.932477785703778,12.40646561392488,29.89316063773327,36.8205984216032,40.1174885684045,42.873872774859464,42.41706114417563,35.88849619799245,24.973813234109972,16.581641506178464,16.01713591206331,17.790768510024026,13.584850100959818,2.7067238821961834,-10.390217918912686,-20.703011705496525,-26.145144080535392,-31.682477058052008,-45.06065514985918,-62.4612765893796,-68.13671979781057,-52.64545411768175,62.0,121.0,63.0
-40.40905503164156,-50.296778646531884,-62.598779647050634,-74.25183902395314,-72.74766571193018,-51.71319562464062,-17.98714760225519,15.090384317472921,37.15754318444795,46.74107117102308,48.90251244640614,48.42067017538709,47.854676165776176,45.64196991350034,37.395734356045025,25.371732366754856,17.238764123433487,15.65607623066933,15.283232340817017,10.057477281342301,-0.5475039019653949,-13.642912408882037,-24.464979805299915,-31.0062623097533,-40.10613996901586,-56.57032722778147,-71.19317173567063,-69.3714671301013,-46.639318094998906,-12.999976435193682,17.885261381902584,37.97716752816561,46.622847307474494,48.57586417801271,46.16961685116574,39.198189804172905,30.088007721997506,21.696798038463783,16.3124093130038,14.275014151586909,11.708477555459694,5.3960809436619765,-3.0866742793359743,-11.344874594151365,-20.231619377112104,-30.248369290728103,-36.33903609904632,-38.84115650876173,-47.405961659800106,-62.06148826880367,-64.90378567586751,-44.08842198193784,-9.441213486668442,23.700603129136105,46.71068315255223,56.56460377389374,56.19939721221767,52.38898796279272,44.528765690600935,30.496319080449563,18.75811598416881,17.521977009179942,22.120334938978594,19.78527695789593,7.2230219915565135,-4.04250520735369,-6.944629037852262,-9.385897512114802,-19.42686195252738,-32.408645203247495,-41.26417318712387,-48.48859119677241,-57.62426583974226,-62.51552953665107,-52.4912600577437,-26.147422429804745,5.829206878044676,29.641765679599033,40.492147684504836,44.437566499930206,45.88862814102941,43.646199598746,36.810123058191714,27.286718492930852,18.323438050082295,13.943730026922715,12.90548252057823,9.994783101040973,3.9379429626294136,-4.074525397617627,-12.449342950394605,-19.568180746987384,-26.04687090044865,-34.257455843880706,-44.21689451227062,-53.4807667119049,-59.110679271002404,-53.257584880462645,-29.352338706666657,2.6870726658370683,26.298316214991413,37.16542203728562,40.46663832324291,41.185259497354025,40.26108472151267,37.415914604360026,32.09848692616402,24.75986951393149,17.95477186922878,13.519524574719918,10.567231879079522,7.464721639652546,2.9266922404269935,-4.552213526117212,-12.656965427412128,-18.363048188749413,-23.51466395586953,-30.88558699414591,-43.13043861934704,-57.81394682170868,-60.58947934547082,-41.89039194545872,-11.613761977899179,15.576910035134684,32.81470272026405,39.91905645412127,41.17751782915908,39.021562243456025,32.33770323025238,23.337235962779722,16.246559225504612,10.559235804277295,5.735606586252582,4.570337870370805,5.704016339122347,3.0316002307523613,-6.2337145441742745,-17.902146398654512,-26.491560407128684,-31.518058781147538,-38.60071263012012,-48.97073202277156,-52.962623109501756,-39.74897390379494,-12.057221294953921,17.032775002813395,38.38930848189135,49.0721742892269,49.15183436993165,42.49509021585476,34.91832797318348,28.75888431601116,21.727246021369385,12.642926701151874,6.346297120811812,4.979994735621781,3.5938083876332296,-1.6038846287928192,-10.247709674079392,-20.701340539452428,-30.143951506863928,-38.2538163950116,-49.08604636058969,-61.07279992717921,-60.88551991965035,-39.65054905812044,-7.631671157450897,18.828893688772247,32.68247632580675,37.883262021947516,41.00787577229362,43.25565660389749,41.182977573117526,32.96833964315855,21.90903767791696,15.642859351817734,16.746351225877127,17.378502080183527,10.9784588423243,-1.0893151898658808,-13.836088077312874,-22.719116703742596,-27.325000979380082,-34.59122215759838,-50.26152952626717,-66.02614729619158,-65.78178434230263,-45.07442885615914,-15.458630356628063,11.453627270482619,31.5547207399204,43.309379576676136,47.185301970922374,45.409130514016155,38.611168976191195,30.474417805771115,26.73525492929099,24.386893017663194,17.323455479377824,9.514288790021313,6.1391196656702,3.3684630529667983,-4.521805991079163,-17.276934128474306,-29.902410641457635,-39.117698765664834,-47.791479222674305,-60.24312193388137,-69.16101958287834,-60.49636654758506,-33.66156979047553,-0.5491299308011202,26.858790251409985,43.055160452697805,49.80671058509974,50.045139769084024,45.85675353111302,40.205054302891874,35.695567970333656,32.04389004353866,27.385625463685862,22.81068713674578,19.974091225305514,15.920633987024415,7.689020452512086,-3.085267408982612,-13.07797428173918,-23.149252025379532,-35.17941829047358,-47.69200439989636,-61.36493790733863,-76.75144845303802,-82.31921759684418,-63.32551673412864,-26.663039905262366,7.542622561041493,30.70684118252123,44.43046566375196,49.72512995500727,49.02512076349905,45.63744196301717,39.11082133367789,30.164446881906056,22.695379047245993,19.7291136149465,19.688674212178366,18.078992109453647,12.310371625844178,3.681046145631879,-6.442678556838295,62.0,121.0,63.0
22.64573055006391,16.868888469176266,3.237487738465398,-5.619968562697176,-7.15471111462602,-11.473257167094989,-23.31367203238249,-35.462691952797236,-43.242175946782105,-50.99592327661201,-59.98237296514172,-61.48250575078234,-46.25819675171768,-16.834927719709384,14.026236317588628,33.95637100600421,42.013876499066065,45.10082424439646,45.71881430297523,42.09443757080043,34.21961142247593,24.446267194724008,16.485340183233767,13.544647903072384,12.411055769426365,8.523688178042496,1.7631261594384238,-6.5408544375296165,-14.67181535275254,-21.398683881467427,-28.167621343699704,-37.05090359594326,-47.064255178858474,-55.70029124438357,-59.07203880723477,-48.135307594711264,-20.094755122810106,10.850418000263923,30.604860441824464,38.60435267304634,40.835049622611386,41.10056993641325,39.65243677788349,36.15771929420161,30.100013535279146,22.6107164797319,16.42250370649471,12.599222498115608,9.734736016726714,6.383839704629732,1.068581598521693,-7.035943285915531,-14.55100043317456,-19.763198260402188,-25.31092203836053,-33.82229543775384,-47.569643673378906,-60.592110018868745,-57.28440254803145,-33.58447894962551,-2.9799460743549746,21.694934575585926,35.77230837630362,40.67179502627023,40.94103889579545,37.56955365486459,29.74714350536769,21.010616963674984,14.57347343219779,8.961455080448513,4.950128907958856,4.893222059759802,5.589075766849859,0.9461841374079998,-9.63355173974759,-20.868042847098792,-28.120845527621775,-33.10503383189736,-41.49661648900816,-51.39261267933683,-51.11686970028117,-32.715682321791306,-3.238096136263534,24.20524975339354,42.61848519403876,50.10107126682392,47.647123726431936,40.1998254053342,33.0236450015621,26.976152678520275,19.184312630598775,10.285092080014557,5.578771472907528,4.848953409694126,2.511278408416903,-3.797959168955316,-13.193737906931997,-23.648649236504344,-32.4848496763273,-40.944107846837625,-52.84889808855805,-62.96782513569656,-56.801504185670396,-30.711667111353258,1.13281352565334,24.118954355687226,34.73443461256277,38.81467368093093,41.86160684635688,43.26128047248212,39.40219855962191,29.771773576099115,19.278875004342137,15.409360244732552,17.41817988608332,16.317199318552372,7.878769585772112,-4.93885012443055,-16.93655247457222,-24.316857285284385,-28.72724634091248,-38.31328012293806,-55.53434778251667,-68.16522297409378,-61.590879571174874,-36.77315002452036,-7.113997263111142,18.04060982785481,35.85060094169707,45.13185189183936,47.2006719207147,43.91726317439357,36.085238061067216,28.854603702704125,26.286904143353077,22.866467521649938,14.776119434370072,8.094847150421819,5.593718198687626,1.7420889919736227,-7.889701408997043,-21.171499288258325,-32.917073502888506,-41.4064483126777,-51.017258811929345,-63.8713287367875,-68.8481057255952,-54.20048548107221,-24.130284583921643,8.353904624645919,32.715934745239245,45.810428070341416,50.46190247022119,49.17429362271959,44.230733026164316,38.72738333989237,34.64604358950428,30.837055346753516,25.916356992560807,21.86478015821029,19.12156169271952,13.994699932296628,4.658660532575099,-6.115240616244883,-15.839273400149295,-26.448138068764486,-38.81071384279842,-51.387000625983674,-65.85099914070811,-80.20425184745615,-79.57766319316673,-53.63484018722169,-15.827884430158177,15.365117140593629,35.55415647807649,46.79830080596328,49.938440276742746,48.285885325110655,44.12103527471122,36.636317538386336,27.661135283786482,21.347901377773177,19.59957029901043,19.57681868705321,16.83751204377524,10.012057237972988,0.9030478893784247,-9.660265144076481,-21.941751304467765,-36.0560207629229,-51.59777378182745,-65.35986177070896,-71.6764226239555,-63.72200703948651,-38.73842899012362,-5.012366202356734,23.978330926471905,43.11439899018878,54.28941853041293,58.76444003081956,56.91967713935311,50.00358757276263,38.53460931389196,22.6928131738068,8.871722187917864,4.824836534043129,6.819200558208934,4.1120624693621615,-4.5607885670668225,-13.73365045660736,-23.105746113094416,-31.721886319761623,-38.36672307167444,-48.71029104226325,-64.50998089336504,-74.88839381621735,-66.15265820377286,-38.15564405150662,-3.9569790737634456,24.383248933808922,42.322426966585475,51.66204909438389,56.833451540848365,56.5045857817056,47.03859469738677,34.43270784677571,28.035517572800035,26.674388979049485,22.82207951362885,16.000509929598067,10.035254571207552,3.2902402970416693,-7.87826273505379,-19.594618322663337,-27.875151018538165,-36.03313370039834,-46.956564483363,-59.73188360743061,-73.17333864683206,-78.50228676174787,-61.68227649508895,-22.839727572127718,16.968154704811134,39.47184083651046,46.63422451483092,49.520778558325,53.20820668024284,53.684149343300284,46.752898435125985,36.77564746929322,62.0,121.0,63.0
37.934007933452946,41.07314271438608,40.41753484577787,35.703241614748144,27.083148284953282,18.922778842166586,12.942320175687561,7.479894429828575,4.542325064299925,5.304050955242686,4.983388515946039,-1.6786806272960648,-13.082571673995345,-23.455709773984868,-29.52184296414877,-35.03593901004037,-44.5974963874475,-52.939928617622414,-47.63879470631627,-24.715980399926345,5.354255917315144,30.593331145363184,45.92219566382162,50.26748981924358,45.723641572474136,37.95989749485327,31.25496464953892,25.020302824864395,16.502135550691946,8.3278762880756,5.187151507350462,4.550212982018651,1.076437855912787,-6.25391843190918,-16.238808725007427,-26.431005624112878,-34.763568091582144,-43.990105506357274,-56.54797271389122,-63.4197500238981,-50.909699674489445,-21.302844402168823,9.077128978238905,28.30637256586209,36.24961316535751,39.70663882809364,42.600271775152414,42.80255817537191,37.10461440123757,26.472254353187726,17.26713349639494,15.737145283963766,17.782502956456273,14.59311969284549,4.401711903975662,-8.711073084776883,-19.619207033638354,-25.60664670088542,-30.60059494585453,-42.79042362112832,-60.44572838454886,-68.57813265566901,-55.7816404000963,-28.113843307700865,0.8064838268474992,24.013833756972417,39.413939116934316,46.346305929960444,46.78964172813724,42.00273042652495,33.60922525631198,27.71260591559646,25.753860006170314,20.86167756174158,12.382724972372129,7.093187138515446,4.921350022293925,-0.4174223121600734,-11.583644210111073,-24.91301264370904,-35.61076696372212,-43.794268222432706,-54.628888702174116,-66.8521081134829,-66.76227544449839,-46.56284633706919,-14.420486380399842,16.529101123627502,37.58490355660159,47.874811282581184,50.62045093748284,47.991195609868306,42.56297809037276,37.39541457317681,33.62223650015655,29.503947377506563,24.533196152882244,21.064825163288802,18.05333019288926,11.68009245523479,1.5095422534734375,-9.015611888984909,-18.687197014164166,-29.92065479176931,-42.421653111550825,-55.25645972923804,-70.44270887465974,-82.38571354767024,-74.5187443005535,-42.92763973748147,-5.666580133433356,22.230699131134784,39.68028911015992,48.458645045049394,49.7613888519537,47.368226703574315,42.300125677786106,34.0207464554381,25.394399523739505,20.419159808540837,19.625233013434553,19.21456049091297,15.228259516019103,7.536225124988795,-1.989601676031645,-13.023994596338227,-25.827301174618054,-40.46972627681002,-55.98161837776402,-68.23728678729559,-71.12796347371903,-58.112539765929384,-29.265041619287615,4.306607952505045,30.473910780640608,47.06828098404215,56.25862771231223,58.843341212053375,55.37818156750804,47.1936207240551,34.28098016099566,18.043473851943315,6.583790931580248,5.2784498068342645,6.846251054160064,1.956736088498644,-7.286510596781361,-16.358107162199506,-25.83554280336869,-33.69222515216124,-40.68439687618314,-52.96912485973931,-68.77847088268781,-74.68400560440111,-59.600432275911444,-28.250240962765652,5.1744128801738345,30.65862605800311,45.69694960726556,53.47199964923155,57.55584009636441,54.66080380890515,43.22223297876052,31.73592233069994,27.482906588894423,26.026194127394465,20.96371741656316,14.114174600682896,8.405511454162502,0.4987102767232677,-11.507476561690122,-22.308542551837572,-30.013309668606716,-38.92754984639404,-50.479002494474834,-63.715804704583995,-76.20084557490708,-76.36589705999843,-52.06855959698847,-10.311635222927336,25.53784313650598,42.62496918637674,47.49897191373064,50.53810772163958,53.98482728815974,52.40381499244567,43.85479910246627,34.23577332668356,27.371921014006674,23.161815588160163,22.015677463764632,21.38276035734006,16.33207889598678,5.828239779092356,-5.8609586339870425,-16.456822732655226,-29.631632919729817,-44.52524284373865,-54.70983042408213,-62.103392610961485,-73.10880727408583,-80.79496706673237,-68.83578544202093,-35.17231515540553,2.80797296602575,29.604107967255825,43.53810771397104,48.96904651522483,51.45723056594804,52.82620835996263,49.77002377026395,41.14370435471381,30.607502161687282,23.436577113361576,21.80123485064349,21.588650216919667,17.726544838002127,9.102535580749636,-1.5898616371592635,-9.975224193862326,-14.85839627919494,-21.93038159541054,-33.69203966802482,-45.647298896283175,-56.91433854527505,-68.93036148542679,-75.95676832094527,-66.46267114122014,-36.70159554100192,0.6550078590395971,28.765939512975223,43.06107566597911,49.881497446438146,51.484534836029376,45.74689064585184,37.28218098239711,31.78488026379115,27.573441432187227,22.972919498352095,20.723610828409434,20.31052058706623,16.224873674021868,8.329169754173256,1.505546863797754,-3.7317825076349083,-10.296412626876844,-19.350860165659267,-29.4671312510196,-38.678455520339085,-48.81803575236874,62.0,121.0,63.0
