-0.5710567005256554,491.6939645312695,622.1750722162503,512.6287624196354,422.25796764177824,397.6102359389711,371.5783230583178,321.5980108508587,269.50471360956277,227.76650808137177,186.4301998544119,139.0212543829027,102.89217728460129,99.82290719885829,120.22543416669032,130.11916936010255,114.14380561786531,88.05877489862253,69.79229733127316,58.80774663241452,45.3916539196045,25.760859610790682,4.14980002057111,-14.555711136439747,-28.142104875297612,-36.27950889940153,-43.10350772614575,-53.25894016383245,-66.65084158733778,-80.03687720829151,-89.42663087400459,-93.19207164999241,-95.78729720251522,-100.74932568577012,-106.57913851542425,-112.1278385567856,-117.47558872267372,-120.23711529511331,-118.60841703493014,-117.70411326416367,-123.5945365523222,-131.84909020314828,-125.0737954327002,-89.3177528547383,-37.563959347317166,0.6352024072778123,13.803696330747123,15.199173576948155,22.966935287070243,39.24654932165518,51.21732297613599,52.48913541719153,48.04882323521613,46.62690991728516,53.846864266006406,63.08073412358552,64.24101553165907,58.79973793005017,54.02055776458375,50.76117165092172,46.19612057729812,38.833851467976054,30.460739459715874,24.588998742813175,21.400313627773652,16.916530363172885,9.480319221799514,2.436731264891349,-3.204679223712537,-11.44044545696528,-22.331124139134186,-29.203173917976443,-31.412729488808885,-36.983353441027276,-48.891278896909405,-64.77341500225145,-80.48073584418941,-78.34630397533405,-42.42127056344056,8.06868142795122,38.55744137390844,43.61408016431777,41.98881904230673,44.319171528373,48.29566619026419,51.1894694611119,49.9234759506647,43.54257801800371,37.43180019151817,36.79192474938613,39.52384612120396,39.996057864202555,35.43433241407179,27.324410076373496,18.72095922170592,12.602548773022065,9.784627945285102,6.499849648454905,-0.6000280881698533,-9.55292475018501,-16.786837296296415,-22.228452803170207,-26.219472768850938,-30.01243294659013,-37.118343144185836,-46.196755932337624,-51.76880025449874,-54.707588869857844,-59.44329681008898,-65.50792832828098,-72.11062216483516,-81.10625128159799,-91.33946603408222,-90.3113911229232,-59.91062497153809,-7.377796896876967,34.44459993235361,47.267336404236914,43.62671237690853,42.7988534124367,49.36714311264157,55.558355636693754,54.65067597834058,49.026166693047216,46.79812133211302,50.664859872283614,54.0732468493622,52.31956075190309,46.81240685451727,41.35814010498731,36.10180739986241,27.942272552904857,17.95521487200672,10.252099010446162,6.009587383783787,4.010348744302416,1.651634923126121,-4.138022714891241,-13.26471712161715,-21.39406151615001,-25.675032157513325,-27.89590254047081,-30.81589684658703,-35.92548781018469,-44.171388994493604,-53.197714461447035,-58.18974952998614,-60.653358135950775,-67.37686248151505,-79.75118409470046,-84.6347861800009,-61.25463577123332,-10.785696702317217,35.78943532639275,53.54702115654835,47.59305349644559,38.87809596710551,39.70914137822,44.95905264273774,44.52994270975968,38.67025971215647,35.64202021642882,37.93492222404026,38.83518873695726,35.049338931649686,30.9164260457746,28.513695593788007,25.89621993417177,20.597161789646798,12.62740177222528,6.155949723492678,3.855127052741936,2.1680414321850834,-3.679953335787477,-11.284203728932052,-16.514293278348482,-21.041274691599806,-27.638478514230698,-34.66203502152926,-38.931905766615536,-41.56137648313701,-46.889478086363624,-54.02020471148019,-59.504259810019846,-64.88115351235584,-72.09515890689349,-69.50917545303756,-39.36911187426172,9.672904430408606,44.811652984540494,51.05956722471583,43.61476373259277,40.04345412575769,42.44346410572582,45.315817486756465,44.54823790879016,41.59826066251982,41.23306488673833,44.47591409885246,47.489922023430296,45.431322300643544,37.220653562419216,27.32006400330892,20.723883854089618,16.087122061253236,10.56741978324095,4.168296334913561,-2.3574278129814,-7.5435128084736665,-10.299118298272084,-13.689356621078915,-20.86592648530393,-28.749477381369804,-34.79790768301734,-40.55311363586645,-46.47070726940995,-52.49790167301318,-57.76509455815415,-59.92562194956631,-61.06923798245034,-68.52904569602951,-84.11022416346344,-92.62060066321202,-69.83790438881756,-15.24629164500011,34.78299820319199,51.707901584954875,46.99069441185191,42.91322698114303,46.742790955079876,54.6880007470196,59.482991715086165,56.930439320746586,51.56164817899829,50.05893911780815,51.16974128218596,49.865439340534365,45.63776246887324,41.3124118287611,37.619714612198166,32.90031751591828,25.280908149331875,16.138115305624606,9.857150776257672,6.756919650794491,2.9619149345065945,-4.681020143993374,-14.482157422358693,-20.748519287055576,-22.993099099663684,51.0,121.0,87.0
28.400584503812617,23.52102323142454,20.42807969311886,14.975742572883995,7.241306260889513,0.7922092476327273,-5.147307728051712,-14.550888166443675,-25.002134430989564,-30.018150858443402,-32.35909509142918,-39.86853689044343,-53.146155645780375,-69.78060861152896,-82.8014426325008,-71.36681025622434,-27.61838567995278,19.92645883732695,41.95370530855449,43.01084012096576,42.241237112383686,45.463351052685184,49.34192673814497,51.40658621267234,48.46829163768677,41.42351450063305,36.63009802338988,37.486583781616375,40.103938762459435,39.194198393335924,33.32508129901924,24.751914036437316,16.58501247139767,11.538758189386769,9.110927656118362,4.855938583259308,-3.1926490680813564,-11.88649171955424,-18.501757876851357,-23.535067874288153,-27.18471918466078,-31.626151728051433,-39.796488394660386,-48.308253100086446,-52.646641297162894,-55.815098249360894,-61.15896844530523,-67.29670048183205,-74.39577207972447,-84.19620996227472,-93.12203163255963,-84.95023246855787,-45.74480019431113,7.2331666589324985,41.04507372124894,46.90289194635276,42.55792852200092,44.1525674197397,51.62592385933016,56.105843147391326,53.18072699173272,47.706265622723926,47.47244208614557,52.035853479636614,54.126532221442666,50.94734674664043,45.10428144643648,39.963579217940485,34.115753140374686,25.053812593863146,15.366870870118541,8.702878237436664,5.284622061308472,3.5196372172955224,0.418824872992016,-6.5684403823775614,-15.935946967489985,-23.014838918050444,-26.3855951501263,-28.58542929014808,-32.01034477725193,-37.98966169086269,-46.93477377454023,-55.1672682680564,-58.87678218203257,-61.899681764481016,-70.62850231406586,-82.90927419690139,-81.41750183736845,-48.447755799445005,4.6609827746109875,44.21357001107933,53.40496733911648,44.481912459305185,38.07612329549392,41.297828389327826,45.66441287021261,43.07227760972215,37.1722353325282,35.95726615481833,38.670933210921135,38.10286633239325,33.68363148817949,30.09544792911008,27.895061221118468,24.7251708290805,18.43956574125496,10.388067420584255,5.102684107017718,3.585094532085849,0.9586937482309394,-5.958965844187581,-13.072316743927974,-17.71903497777639,-22.715779691098252,-29.792390133477028,-36.24766999134395,-39.65843058465759,-42.71462388824872,-48.96470624354363,-55.819118719866175,-60.87517753055123,-66.93990176287375,-73.28661441061972,-63.98481214014437,-25.819736009052864,22.582749553536193,49.32119055382205,49.29710363480304,41.816478980015745,40.324243420024224,43.48588852739686,45.52077056630671,43.71397618081883,41.06087617031662,41.90869957777203,45.60236941327268,47.573924314550084,43.585778165149996,34.24167415834059,25.002869989666134,19.364776323696436,14.618391665902628,8.77941978972231,2.252711595348548,-4.08373466082941,-8.548209567756077,-10.984841925135107,-15.402391719231131,-23.286099442371544,-30.648847806298075,-36.42573198668167,-42.26594994407909,-48.18836362417534,-54.213098483736246,-58.75128954508742,-60.08453472775414,-62.257977400151795,-72.50296751633954,-88.4096088111132,-90.0481944251265,-56.2340535254758,1.6273366081947933,43.2408039884011,51.411629362704765,45.111116208039434,43.25144991191934,48.916916386761386,56.71017865248282,59.47391609805624,55.28848821657955,50.61305005396465,50.3542206523594,51.184982448601666,48.823338843346484,44.30298163147012,40.22538654416041,36.46363071623514,31.029705010841187,22.609408518639437,13.883125954081276,8.780355002841091,5.911971555055516,1.2101330475131629,-7.544524430707776,-16.835837490277783,-21.6341113167408,-23.557535904400602,-27.083025809079157,-33.18174398498763,-40.44951094504767,-47.38986606288339,-52.88394155433307,-58.16117483155381,-64.45194609735675,-70.80928994612593,-79.33718222951953,-92.44597134738366,-96.91000506259687,-69.02596956162301,-12.606767466122728,35.654948797651926,51.292471076734245,44.58583019158905,37.927902063363234,42.558075907115374,53.49450012479786,59.06389350345543,54.64391396964827,46.95350611457273,44.183121313613334,45.544219289858454,45.91177739285596,44.17527017306868,41.10078142784893,35.026953924665264,27.452306307901452,21.820101785849523,16.289459668028247,9.078175309409993,5.08641803988748,4.2753244506999755,-0.16523414896263505,-6.5037871508395835,-9.165077662061824,-11.655816470475603,-18.251390658876065,-27.608896670473065,-37.46804782720084,-45.463615708881825,-50.24683320117548,-53.39968290531875,-57.20995861033391,-64.45747903165991,-78.40106008849305,-93.57608866318446,-90.86747426009327,-56.01964781415829,-3.867649959781022,33.44234336898896,44.29250770247792,41.11196641809788,39.10730660837698,44.56186594173438,51.65130342391582,50.34054742509364,42.32828443462714,38.674010282105975,41.15904679445031,42.298585642070684,51.0,121.0,87.0
48.605533819755784,53.15414190049214,53.70497903297993,49.34241993998822,43.498677811752444,38.519725994714136,31.81555480604003,22.10684872313816,13.061668318062576,7.431215760354099,4.709149627968466,2.916667894038521,-1.167330214177986,-9.22701249699801,-18.386104498407448,-24.297214507926768,-27.003057967634383,-29.386344828731467,-33.41689459736597,-40.3358576894067,-49.647286661864726,-56.692319092158996,-59.48794525789003,-63.67738536451172,-74.2939792370201,-84.94331268880498,-75.3468615033897,-33.776884192261875,18.832031428117393,49.886297601915096,51.69843348139974,41.68739006592494,38.19498377213581,42.97546119480092,45.692922899460584,41.304337080852406,36.138869378658875,36.65492068644689,39.071607177705786,37.00559653778038,32.430915705708465,29.405494365425955,27.196545678361097,23.268919312326286,16.106050144337996,8.40685201873306,4.411421514888094,3.214120183877415,-0.6773666496038241,-8.236028544856799,-14.608218616460487,-18.963945180351697,-24.601615450433133,-31.89211353104072,-37.537875569125795,-40.34242453777663,-44.19507208017679,-51.0831715775923,-57.423852727425825,-62.34223847771692,-69.15339693372805,-73.17509103625731,-55.78898403774903,-11.306564411851014,33.46147818960275,51.41301487082459,46.97801972581564,40.630451030989136,41.014708114741424,44.41215783444306,45.361817280824695,42.796169422249264,40.85962741082261,42.84559368419363,46.586260231690616,47.12375901443166,41.25618724355196,31.283259037995162,23.044270062213148,18.063082929874255,13.042112463452375,6.934042673715461,0.3450841335565366,-5.64748739592971,-9.343803990090006,-11.85511383738389,-17.457309130276187,-25.629512532516436,-32.394399999349986,-38.07989038217398,-43.97745635765305,-49.92961529937712,-55.81104236869593,-59.42448972470199,-60.28153086911814,-64.18656622612151,-77.08285330163946,-91.55137371930235,-84.27320720088825,-40.37211947345539,16.945346524058667,48.618254314198985,49.94377062072751,43.72350130626688,44.265354721072455,51.28253036114503,58.278339601661685,58.813285626438216,53.62034609074255,50.102669689058324,50.7440782077036,50.887254107177704,47.591929294716145,43.028663101535294,39.17617909304111,35.16695578542859,28.877964944936387,19.89647847232214,11.980675839004395,7.903700819639449,4.904826186248571,-0.9263629388169556,-10.468160288277787,-18.75641098994849,-22.25957073664679,-24.28834737244194,-28.627735880620946,-35.23154692568498,-42.55434597168855,-49.13079551250312,-54.32110215871982,-59.90885357947455,-66.28966271312288,-72.8374597523247,-82.80915234176791,-95.7492145089804,-92.84605596557377,-54.361842192354594,3.909226654827863,43.63963155224744,50.611010301617945,41.846662749123205,38.047631067338905,45.59740605764016,56.079474416119595,58.70031033212646,52.28455080414074,45.49836488822614,44.387825946366135,45.91421616856386,45.551495042339816,43.47687605912498,39.69994165399009,32.79643956114039,25.58588034936281,20.405773203735617,14.251856801775245,7.364176326252294,4.833060559749056,3.5361239644339912,-2.150730253157214,-7.667853911551651,-9.60480993318044,-13.12118772044367,-20.789670976211298,-30.494363938656324,-40.082200880648095,-47.15229564912879,-51.21473159713567,-54.34053407191872,-58.77752431108859,-67.76093183705953,-83.30714411501181,-95.61378108059506,-84.10082779303774,-41.290868427627174,9.572856403784552,39.01275186248935,44.042272659265464,39.9195301966395,39.946261821381114,46.957658293895626,52.37344508829745,48.24963781505841,40.43782179058341,39.0708677148666,41.87397498044388,41.953536753811285,39.78049166342755,37.53087212607274,34.8388694250029,30.30743366981934,23.388530099539686,15.224627232844698,7.531224814664949,3.921529902183219,4.714813439334869,1.982360074513042,-6.082440202255429,-13.659407208595788,-21.040252536741253,-31.09942724704566,-40.06466512954936,-43.75724862884438,-46.83642901073752,-54.472167981690895,-62.785813352681735,-67.99949544097628,-75.4090051947789,-83.57898478750128,-72.86974852986675,-31.53150623325084,19.23197243182926,47.76229465232997,47.51125896593394,37.65944006661502,37.34126575544386,45.989140681170475,50.556307930829334,46.12891080197704,41.54078461381869,44.36903051486313,48.85573319750464,47.37899607605103,42.643276501619276,38.29333495131718,31.56226663845221,22.489540087231514,14.836358564409691,8.727577897109944,3.541210800727218,-0.6967055318093923,-5.884614556500599,-12.56549332148358,-17.94693018539926,-22.162803730327465,-28.357255557831955,-36.496318720971516,-44.15686584732729,-52.051717199274606,-62.5201522564983,-73.81269227056164,-85.05112541241037,-98.50416431472576,-103.79971610171758,-80.30228140898316,-30.489489292025873,13.745684159698849,32.10150776380672,32.98868995996393,51.0,121.0,87.0
-45.057474672889,3.2276076290858877,41.84521175873572,51.52341060599961,44.61164157393856,40.08927473010085,41.96310328929698,45.102161436789586,44.86872821548362,41.936601460928976,41.03107765804841,43.945401184102245,47.29278634339048,46.0983304216181,38.55325728095778,28.50510308000309,21.400494755972215,16.72925437446386,11.367884482647517,5.047409241547845,-1.5219941611593562,-6.999887349529065,-10.006915397037892,-13.026816928043022,-19.75829005915916,-27.809992019809485,-34.0483901252642,-39.76697750994392,-45.68360572068308,-51.68901386367405,-57.20868191130035,-59.816763674195286,-60.72266655986336,-66.96068860567988,-81.92247440605988,-92.83790786438877,-75.14125917096058,-23.24774130831664,29.82772094230438,51.25939036114687,47.942917963249336,43.00138000848404,45.853723817020374,53.64991319258811,59.25588521090607,57.615169083048,52.136912729114286,49.99689964183411,51.075114196615665,50.25902476468803,46.26138352873827,41.83544071421534,38.12163084091678,33.671274653006805,26.465487644003925,17.277169519044612,10.448332060850744,7.1184015937337035,3.6473988499682037,-3.426749055352691,-13.274245118074651,-20.21901395001334,-22.76350667201312,-25.244057550862443,-30.369004950770986,-37.33846150995539,-44.59698575030141,-50.730033935674086,-55.80717815680179,-61.73582772977242,-68.10345871875894,-75.1597028687371,-86.68225044984574,-97.76594569428481,-85.52591862353582,-37.861136960822094,18.671587883869606,48.65540486953547,48.611223826398664,39.625692983874,39.22398423229963,48.89334949851546,57.938048202249355,57.50404662483945,49.91839226138638,44.59091413785846,44.82056531006739,46.081401219250516,45.05500268798057,42.6572016281728,37.99454494519811,30.543267836681036,23.942013785017185,18.882469814972556,12.09654781449636,6.09495599055332,4.708483868325349,2.3313419686915187,-4.107934860285012,-8.452302743075037,-10.209263976216544,-14.970536413885869,-23.48712396266511,-33.37911125154358,-42.470688432413624,-48.568962835920296,-52.10928007559898,-55.383301196158904,-60.71870588768582,-71.69922152949783,-88.03748994603642,-95.57766284865252,-74.47681436921172,-25.837506717853433,21.00064063433669,42.42646905906485,43.054617116892395,39.142321214121765,41.45587284505262,49.22050358431775,52.185185189107266,45.81213899873557,39.197307364153566,39.848792700616265,42.289983120975215,41.41644633764157,39.11412583818294,36.85738206590052,33.7749589000698,28.526076677088106,21.093766700870432,12.839406919444084,5.886371739000639,3.9579127118480235,4.628021924928235,-0.05104777618140721,-8.483841007030497,-15.616329925356062,-23.69437861078878,-34.108316679156694,-41.63202866089096,-44.35483409037858,-48.57684700151475,-57.125176955704774,-64.50978335281742,-69.62732107551858,-78.29974460236092,-83.44583238508187,-63.76278609587324,-16.24214681216693,30.691533521370975,50.10757340784986,44.55329655011183,36.18801464724646,39.447775011132826,48.23923585193768,50.00508648435201,44.27507204065558,41.612926221022654,45.97357661466689,49.11341690260508,46.058423960904555,41.3918410204608,36.7366153214988,28.99812180271914,20.04478675090047,12.97771325148501,7.111741937513535,2.2675849153035044,-1.9939800334229396,-7.759235305806188,-14.35705280698474,-19.143843378538016,-23.657967329171505,-30.621063655432977,-38.819859024915075,-46.27520351412915,-54.80058269712433,-65.84730155727725,-76.93250548167074,-88.78404761245721,-101.82105374283904,-100.5944235794001,-67.49699429339245,-15.641336179490198,21.749526191875557,33.39562042194505,32.31263545150409,31.932632670290268,37.5150758709525,47.394961155689764,55.17388732772584,56.99450787170454,55.231604647021975,54.271828752585876,55.7462891602745,56.97876522179729,55.839592232850066,51.365901479362826,44.49473369678038,36.76766931605499,28.050916000354924,21.032806738687032,18.454911610594937,16.346083118259227,9.860043533515261,0.6078300244838515,-8.529261619824847,-16.440501168701672,-22.28142920705226,-28.27117437546687,-37.33818602453697,-47.51292082072016,-53.821052047835046,-56.51903151341854,-61.42620768653248,-71.4210107790519,-84.87473021497695,-95.40779103866218,-89.52959440001217,-56.710636312848465,-9.671800970149361,22.81582259035345,29.543871999765887,26.051960699758578,29.38196321028022,41.06557560772947,51.949115015887244,54.85701986144353,51.26940621719851,47.646908020593656,47.11694833707156,47.74544157915884,46.42955601331821,41.16796058708454,31.248965644854753,20.25009893141906,13.346669337286821,8.807474733826162,3.7812231069348714,-0.7776467465732269,-7.654022359811362,-18.460381538860506,-28.96559461844076,-36.91993605408523,-44.44918794808806,-52.802439021144025,-62.64213542613397,-75.90565249280209,-88.01266610111706,51.0,121.0,87.0
-23.28163530035103,-26.446596757669848,-32.26624079267907,-39.468574351058905,-46.538353462352255,-52.219071547269685,-57.39166753191772,-63.59574850928141,-69.93559460705085,-77.90474502475814,-90.68128656385286,-97.77167911994177,-74.93152288305247,-20.552541173487846,30.955674092553252,50.990634450188125,45.90941173284908,38.23392808500794,41.33216765524923,52.117797840423975,58.9229832613975,55.65247163709032,47.79564967565641,44.206991444438145,45.326280932516006,46.01618679804667,44.469369856332065,41.648822432726625,36.01302104350404,28.387156087186586,22.468777756042016,17.160514060160747,9.984623414340428,5.305754465184672,4.477456016102129,0.6968717943128675,-5.830026283191919,-8.970068413963627,-11.11391957003347,-17.15285879302594,-26.29158770814671,-36.20437086720683,-44.58664503652789,-49.758506181054464,-52.986925844878954,-56.58398138355341,-63.146048726004,-76.19298949960806,-92.0911159010041,-93.0015976618509,-62.321489003185775,-10.586299368203736,30.07857013789273,44.03947824122888,41.733669805721405,38.96039061284958,43.49966574432094,51.038441467103176,51.10376354572332,43.36656116134799,38.68080743996152,40.75925022282405,42.36905264156451,40.773654725862244,38.46773862367832,36.11784819201604,32.52143382471088,26.54996486821565,18.7322920875093,10.53850546384124,4.706445940021433,4.274156764173677,3.9995337444156305,-2.4235507432726093,-10.703586418826125,-17.663222720956366,-26.604797541937938,-36.84895853471978,-42.72557258734662,-45.10726457278416,-50.754271426553665,-59.642507052883886,-65.96970353916487,-71.65427263758134,-81.02895712104565,-81.1033844435278,-52.07509229147387,-1.0225024707557802,39.62583277191494,50.22816144345621,41.424189268388844,35.84714755985846,42.06036588226574,49.805839734665255,48.7383682592292,42.73358533138741,42.374015486375626,47.44414218697661,48.76744940516232,44.638977233116776,40.187122896824,34.86893700174275,26.325702341938854,17.795751026800215,11.205864796834323,5.583690453311075,1.0609785687188924,-3.44072877442884,-9.725161664313491,-15.956761276503496,-20.30840989065302,-25.392999886667518,-32.995255139592274,-41.045640599061514,-48.48452984272221,-57.80150965291379,-69.14583330615396,-80.09611092376076,-92.75298022825608,-103.98818332343882,-94.48251805893166,-52.95564491093017,-2.195793995010391,27.425233273986006,33.64829100088497,31.75360936053163,32.883239869541114,40.16344391184144,50.152168479251664,56.30032013801878,56.6581871320205,54.70033710263668,54.52226081441327,56.25997416854398,56.94979379292897,54.89850423749971,49.52926039206505,42.344576742343314,34.323363734511624,25.63917284870714,19.875736913585424,18.09941541251902,14.969104835518502,7.295998245582519,-2.1006823850202707,-10.997248828201538,-18.32262208636571,-23.814786897771867,-30.550509523024886,-40.38615755869981,-49.88931097714104,-54.74353846501138,-57.47671956039533,-63.79597568809241,-75.11695908254549,-88.68314088729232,-96.10537435703053,-82.80771920607032,-43.34352315119145,2.303916289847745,27.070505954184217,28.61214470434629,25.929259812593337,32.21235338941071,44.742709723055775,53.716767625206174,54.217282467141615,49.97416332652128,47.1914064090211,47.33178661120827,47.6728659176088,45.38251991169766,38.73499104762335,27.89178561829858,17.757294176962095,12.012359372640686,7.376201162257564,2.433054786930797,-2.3233446563709474,-10.497636780570163,-21.736057121764812,-31.4706888165746,-39.037016694049164,-46.77249210556705,-55.41327074426708,-66.0843222733891,-80.10098856307968,-88.91042866337251,-73.84858039667616,-34.03722994845385,3.6845006361561006,19.545154931154944,20.017233000788103,21.922758248963525,33.23193545005291,46.633191820731085,50.63281479378702,46.165412086663856,42.69895185029177,43.177962093616365,44.95151409308562,46.29959999683058,44.88451606688886,39.6897926549615,33.71277125550255,29.298556822228015,23.945969543936418,16.333487379975786,9.435679824680689,4.749552529610641,0.4574086684941759,-6.502022881602037,-15.48350835900974,-22.452251655820632,-28.35297345439885,-36.60984192273845,-46.18581170433687,-53.256390982556404,-57.60753319162333,-62.11340453074625,-68.96184591100617,-80.78105128161265,-92.0123605708229,-83.67978120590558,-47.44401776158938,-4.331003467102658,20.402246039340525,25.203837975776032,24.709309930745796,30.71028459310327,42.86743003816401,50.96057465165945,48.03366417431877,40.032054844753404,37.66293107416296,41.83494776334317,46.513520075393515,48.415954878485394,46.66170393930166,40.296088427056795,30.92324423658541,24.071012221172268,22.32434836438956,20.45211855005857,14.563107781637381,6.079130447112393,-1.2658150192032804,-3.1101820324983254,-0.8487256928821975,-2.5677814337727223,51.0,121.0,87.0
42.14190087087517,40.09382811676866,37.82908555022078,35.27380018005442,31.056622812809803,24.41499419221599,16.333770359910083,8.416721832291303,4.050591935966301,4.620701633233298,2.7549741076789265,-4.931883880141637,-12.752066789903383,-19.9131681686225,-29.673203682828767,-39.166149187628285,-43.47588446763458,-46.191511979774,-53.25634127759011,-61.87485012235131,-67.33866511461699,-74.13581841706471,-83.05460751550451,-76.12028894994666,-38.34387251573926,13.218710753427983,45.823304467610214,48.64618280937625,38.67526275519482,36.636828266285136,44.793747389396096,50.525260563291845,47.00232502029023,41.756495873503255,43.66299243640511,48.53265962848378,47.90687559572465,43.252006373022844,38.92699625682338,32.67294829123291,23.67438223759562,15.733793292806412,9.49609462989294,4.160746659703976,-0.13237085603468482,-5.071210999553736,-11.688485930259759,-17.357916530228184,-21.543412726778396,-27.371434300163433,-35.39893576050954,-43.18576488118963,-50.872174994094664,-61.001576081418875,-72.36018966757246,-83.42831861434327,-96.75020903314008,-104.38091538565799,-85.41479389906755,-37.5851725659017,9.24606658887156,31.03181824052641,33.27289617635982,31.498615961321992,34.38922383231458,43.066108125416875,52.55010279948895,56.90338598621144,56.12563796438157,54.34789777712444,54.958255696737815,56.66844913094364,56.691499275427475,53.66050161816419,47.545482059414475,40.14074127116587,31.784441499583526,23.490799085214793,19.107967526223042,17.611933144728514,13.158804385784132,4.603897957485502,-4.760448411853574,-13.335174097602257,-20.01898423111951,-25.462245546737446,-33.12977702359972,-43.41938211194047,-51.81791351934404,-55.46463403869478,-58.77358739916325,-66.60507454740969,-79.03371949288346,-92.03657016315088,-95.02313544946563,-73.69646601295972,-29.399647497778368,12.337314168273497,29.225224425219768,27.388722702463312,26.672597232421946,35.611993494454,48.083328157094456,54.71198522135953,53.16466804281772,48.84013342277012,47.009704622212375,47.559719263478904,47.37257935879336,43.96629846299408,35.909381935018565,24.59865032961093,15.698994061583882,10.74459454649343,5.895750619149005,1.1524426511510262,-4.195756973310743,-13.631910019354834,-24.84994500184743,-33.771162644407525,-41.18806234225744,-49.16755463648121,-58.17838999709683,-69.87482648737362,-83.96392031531222,-87.68554585667334,-64.02664545379263,-21.56739546868148,10.663957830412818,20.512799589046146,19.785343404730707,24.28251200242119,37.49164450651931,49.026860512053574,49.79920113519735,44.73556105577535,42.531032872824476,43.656542803811256,45.45975667059074,46.29227356007364,43.70192114524062,37.86099031086297,32.31046399587276,28.006992501126323,21.89085115535011,14.12465469003174,7.8881278148788025,3.6042875908598724,-1.1798978661413149,-9.085348760736029,-17.792425277822698,-24.08300679835398,-30.432884168864415,-39.41454991391613,-48.60443376695544,-54.67132119838553,-58.78685805642653,-63.73940160656884,-71.81355476796594,-84.77274333144766,-92.48419866360805,-75.65333393634948,-34.29266884004559,5.282397071127216,23.307987021699574,24.907529021638783,25.53112642099783,33.93932610265738,46.12616716032767,51.238335157652905,45.70140811042844,38.48437532235962,38.441279572357665,43.36976657250184,47.39159340326629,48.33199620234629,45.31062203981446,37.70089839045498,28.422773667129306,23.16418284754123,22.08866685148677,19.170726672481578,12.243733418887382,3.6322174187513747,-2.4892962711766473,-2.5552901690919487,-0.6439709928001962,-4.269795606239208,-11.207705833295957,-15.056520856059228,-17.90410677315345,-26.30243822312453,-39.950491664552324,-51.3842238324048,-55.56950141414934,-57.179803014159475,-64.05041247520887,-77.96188716871026,-86.03367614387926,-65.74627522369912,-18.479749100999594,21.264419660441984,30.145380913172588,20.875121983966846,18.015281469092617,27.192474978007095,36.85248970782714,39.516202138773956,37.52038838703961,35.55021695615126,36.609263129559125,41.69144594749415,45.345714389313656,40.94918203574544,32.723563885368755,28.665611902732888,27.408256137235362,23.262901558127602,17.914140703808286,15.049642457454164,12.2067493317388,7.52407388499892,1.284950216041407,-7.647345288526654,-18.146782555422053,-25.50728462375564,-29.374831746793078,-33.35232396225624,-38.73089440063129,-45.94819878582004,-53.878693630348934,-60.057812580517776,-66.94518961595233,-80.03921033087767,-90.51626957340787,-75.03339119608906,-31.61210287754074,9.677944874989489,26.038687357256663,24.836477578740055,25.294710776892913,35.522114546895715,48.00449188435037,51.7526260364148,47.145623962939155,42.219981744344054,39.94520277300911,39.27519910054731,40.70496882803582,42.75922177006628,51.0,121.0,87.0
32.623404758396134,31.67870160178615,36.42084786516141,46.0468351588435,54.469467763999674,57.05249424933872,55.510961832164206,54.23638887975214,55.49278477088506,56.92287337648016,56.17352130531414,52.14605764180844,45.47078083826929,37.85619722963316,29.21629810465472,21.711166597292,18.624006264959085,16.83446031998894,10.970522848157426,1.8677761671784359,-7.357759530257686,-15.505010198030975,-21.582234691032713,-27.32211869853155,-35.96612914453619,-46.28718567671372,-53.28542089354084,-56.15931315421083,-60.48612922577996,-69.81824512710503,-83.04238537420494,-94.59916382082827,-91.80490695050524,-62.46899387386316,-15.69134913405145,20.066155364138428,29.723128625416134,26.356349742113405,28.32776531407118,39.32467314732474,50.88304425401506,54.96529659602556,51.8852516523389,47.95664686265725,47.04688423112719,47.71712214663921,46.79809099971623,42.147935890484746,32.76892246881575,21.54133367055455,14.021770023335913,9.438355344484696,4.432870917788404,-0.14202991314320293,-6.46805608508336,-16.926826145226137,-27.72709005561826,-35.94128935318805,-43.40308508660616,-51.63598487923585,-61.1677190750341,-73.96146880604498,-87.02310818627421,-83.96893228088983,-52.464505350144876,-10.102231082753807,15.598758128803674,20.579582988288944,20.07942291657767,27.47628812405748,41.60336403893329,50.40322239194331,48.45445602182544,43.61991738653112,42.65632257482622,44.175594437689774,45.90280740530919,45.97829548597891,42.21885997216826,36.07563437365102,31.05182612347847,26.532010119530106,19.67209335511067,12.071089656085745,6.5206455474331495,2.425133367005071,-3.122050467965592,-11.74504666373367,-19.846813546655408,-25.720145998658513,-32.774634867902066,-42.24508786047576,-50.721357624501245,-55.91549093724271,-60.04707101349029,-65.60815566949567,-75.16457687905546,-88.41763712058807,-90.7638356132945,-65.3591341253721,-21.355529916685384,12.901993092294216,24.780593879647526,24.582341167531535,27.09390965795739,37.537884086613374,48.73915216928933,50.52688965907596,43.23066572560885,37.629670368278354,39.65505637094912,44.792924237004186,48.008062047831515,47.92053633883904,43.550236409089905,34.93938184121239,26.298632256757326,22.664300142363942,21.656962207681445,17.52594706050602,9.774843691484056,1.3873620899118115,-3.146583707908497,-1.7977292546617973,-0.990085748327415,-6.281527826235406,-12.75236458413794,-15.656532183303785,-19.588881629020534,-29.958219083482014,-43.856385613088484,-53.30816684136625,-55.91702869909736,-58.364103265700024,-67.56854957316207,-81.90883005514407,-83.81581302590935,-53.69514465510998,-4.547124869411845,27.05768933557461,28.125388088257242,18.644687906136777,19.8044849057778,30.483147334706654,38.37372037124939,39.18446407192313,36.793195400238524,35.43318576399386,37.75524983602647,43.29596562152729,44.95854315162294,38.52574865530824,30.966701406859894,28.316500717592533,26.610193729001338,21.585611086194785,16.847063687184743,14.38905326607798,11.024259744834902,5.905066422993824,-0.9680908561816943,-10.714405419862107,-20.755533045341018,-26.824111660991655,-30.40053182491126,-34.74893814239785,-40.61809210855217,-48.29289120491349,-55.883127844464035,-61.67656071860846,-70.04656015947609,-84.31271018935344,-89.54719419124548,-64.40033695479977,-17.927732706951,17.164560063203794,26.614135672739764,24.11418014914636,27.334100167756173,39.47891298279219,50.24646788366056,50.93372035700594,45.473340469269246,41.33210951578786,39.60262071074579,39.435156665384525,41.44788915923926,42.71328320431254,39.18085120155475,33.55942412256566,30.437519172592683,30.949148033102333,31.785003671365537,27.27437412868191,18.33605425471265,12.061606768191139,9.868375914655278,5.858738165245683,-1.8772841908568842,-8.449971835314761,-12.417424882744468,-17.247123511425322,-24.237265984164747,-31.279489649986065,-37.85252687713888,-43.55481763205113,-47.33601186022772,-51.426127329468216,-57.67872765668408,-62.996257247166085,-66.20430813044693,-72.05438136215511,-82.3396575988724,-87.23768366860772,-69.11934660587028,-27.003204367043235,14.37130654791802,32.81510979819217,31.582420349923673,29.20220021970151,36.28749561781311,48.32990547970722,54.252102636252175,49.82522320857464,43.04275193239994,42.60929595666322,47.24557135440003,50.19721458054526,47.50034666349159,42.12402984839846,38.687411487530646,36.27371703797325,31.24574883754055,25.26643872138537,23.263777010601235,23.902869365119127,20.997461878120024,12.836318934834775,4.194629002581988,-0.6800918344734568,-3.5217878618025273,-8.615578221028898,-16.45757996857792,-24.243782281081767,-29.827638940543977,-34.46272308104159,-38.874448451865874,-41.416523674216414,-43.03185032435261,-46.80280276180898,51.0,121.0,87.0
-88.73135509035073,-77.62604420024053,-39.91924715618632,-0.2260657852037428,18.670058663174245,20.21074510335256,21.138574825465728,31.318099921280755,45.217811344687185,50.77002079402415,46.88737665004422,42.897535746928114,42.983103277932486,44.70771386123061,46.21802423586499,45.31329211656634,40.51854888559347,34.41891093118831,29.856888631683727,24.81907410574293,17.38351997022083,10.218134611808656,5.288170967293177,1.1237299737520363,-5.3735881320166135,-14.341445493090946,-21.670159156962757,-27.476887355143006,-35.35582328469309,-44.98438042682729,-52.52351718604967,-57.07714896388418,-61.42692852092441,-67.80845095618666,-78.94531731153766,-91.18796937610333,-86.52177329928276,-53.354827959664135,-9.369502639179451,18.48205592416706,25.22647159289275,24.552220227429345,29.409923976227702,41.22399968620561,50.48644680967075,48.97108096481296,40.94507067974147,37.496864753762054,41.122026209348896,46.02394940773913,48.35270239180789,47.14811103770515,41.40206170637755,32.16261594670295,24.654846220597317,22.41095692631601,20.91576419141394,15.560574280203541,7.2420004768902,-0.5280009418147333,-3.238010234106714,-1.089018673253627,-1.9390981631974582,-8.3874282336552,-13.917741499763576,-16.339489196878134,-21.876458252961676,-33.947997616549436,-47.350267864098754,-54.58607267417486,-56.256499101078056,-60.1608645100069,-71.63669683293398,-84.86514354579835,-78.66496504145415,-39.858490219475485,7.722115614375883,30.04960510976793,25.22860298331472,17.482872418778097,22.466739833018377,33.46516536323725,39.246443838581705,38.5917225783179,36.162604835130665,35.635673440917174,39.2302069300785,44.56035638125114,43.79537389380177,36.02057711174784,29.705110298616454,28.047112295919103,25.460828871956906,19.951407781062752,16.019742412234187,13.622164863003796,9.690860329654672,4.157040367579834,-3.4930416247281117,-13.826409633919454,-22.978592250294266,-27.922342296206995,-31.51782298476921,-36.265380884996794,-42.67678343159283,-50.63500257195298,-57.6855712038201,-63.500437455931056,-73.78572475171042,-87.91204953729414,-85.79403320255861,-51.79454280285216,-5.354137299318333,22.2988199537548,26.1780757413649,23.979109999415588,30.218104646665015,43.308806714102,51.5413227970097,49.57965270897989,43.97050042405641,40.654942944097186,39.36903356922614,39.809273250972296,42.14524763735469,42.2037846982808,37.52156603207678,32.27881703328807,30.26270077401506,31.425643208060755,31.19019321063166,24.8499808838958,15.998224090934377,11.19763708911408,9.169290423705224,3.8344810942478436,-4.09521655134912,-9.750294303789937,-13.56846600596261,-19.12056483598375,-26.34058500830543,-33.20714901682267,-39.65905542810866,-44.824152190944204,-48.31879292074824,-53.072261128991855,-59.49310492956995,-63.99473791854099,-67.39424272180841,-74.73422229785112,-85.09062946183388,-84.96893594536544,-58.66623148894233,-13.627229176965276,22.42888904891344,33.7316457049111,30.243672584141784,30.22653559261978,39.737582124471594,51.09303154873073,53.87554242839244,47.5840416204325,42.12524754187505,43.70213586536338,48.560986079786595,49.99489103809748,45.9612363091013,40.84649445892498,38.07028726791652,35.16021137311627,29.371642494742893,24.165248624808516,23.44359005008925,23.651125093908515,19.05144123593365,10.115313038783386,2.3564578691121487,-1.500720407743335,-4.64158409592893,-10.693972447412907,-18.85740207393354,-26.088375875130563,-31.16493966490423,-35.82696597513232,-39.839472224582565,-41.8439013211551,-43.78312726935866,-48.563655116250345,-56.37936116111358,-64.85925881558829,-74.04064245380624,-82.38593516216707,-75.91064994502898,-40.285356894647194,9.040728320878234,38.941501573069424,40.0815234887952,30.62856176811231,28.593667522000104,36.76537047061598,45.50630232146016,45.81574564125589,40.37072694460712,37.596826993986625,39.64310703584936,43.10613328370527,42.51032508752075,34.77196832583804,24.527616058511803,18.154814281473378,16.391562064699073,15.742075934154634,12.971727171170977,8.881809725100492,4.610198648572729,-2.201934772962245,-10.821100135634566,-15.77093287903375,-17.45814151839198,-21.351468370140452,-28.286191437949928,-34.47852432513801,-38.722365427855486,-42.90593983425631,-47.57856046405711,-52.837100187290524,-60.64650398832447,-71.92024393114428,-79.08443552380427,-65.17254324022878,-24.25123403947546,20.920392303710095,43.41464182930167,42.83095318276161,36.489523790763535,35.226354649314274,38.93003842913891,43.56500221013556,45.756558637374724,44.596136362667345,42.15590524538148,42.68040338968654,46.125068567516706,46.01653813322484,38.19683410525189,26.783844971749552,18.879532041274366,16.639587829717094,15.793643445171726,12.790718339248855,51.0,121.0,87.0
-3.4344824830968523,-10.377387674494864,-14.750762595244032,-17.31021784147635,-24.775430076311668,-38.06872823669886,-50.26487896219285,-55.344375875298354,-56.80367699031806,-62.656722752722665,-75.97889799884783,-86.16852232025484,-70.48246641655471,-25.211493824513013,17.62264696562142,30.580841252195384,22.166189317953616,17.56214678664099,25.65148595077802,35.92749569737739,39.54284044133417,37.867574983087486,35.69413853456397,36.21072752856987,40.90420704812449,45.2607479824647,41.96448905990728,33.68566704816001,28.907186528547285,27.665928239767243,24.00596540245001,18.49835361867992,15.342666516604588,12.694333194834295,8.233184112524178,2.239789613891538,-6.284144005346023,-16.835086303271652,-24.79606847762395,-28.91958838457608,-32.74701215991493,-37.917515176106434,-44.88871572603624,-52.88970770958955,-59.327444310550426,-65.73101235747464,-78.01301958746005,-90.14203599053151,-79.08733092429874,-38.062080859721874,5.43372864986593,25.284248151520366,25.272233719227366,24.666948281923762,33.75066664747423,46.68168363836467,51.88647397786904,47.93639767901266,42.71206691424689,40.13972076192127,39.26723958914569,40.38626229807601,42.64014820025563,41.237935209740215,35.82882695158855,31.290733533909133,30.38648727815714,31.79504904872842,30.01483466846453,22.19102308214257,14.064071576461853,10.60829415141808,8.130082021992559,1.5612839518810564,-6.075161979025916,-10.872434844641932,-14.897916592445943,-21.149358674599323,-28.3902202908255,-35.113034122576806,-41.35888463260152,-45.91870844232243,-49.42933854075752,-54.89599663856569,-61.107998278173035,-64.8630479808978,-68.95555926961222,-77.75956025412654,-87.00503333242226,-80.33428728892929,-46.48503123003339,-1.101348396506543,28.22414591579149,33.35867953321482,29.295104599014632,32.14245414094477,43.36183380946664,53.066735736423695,52.65593424653484,45.4475170151618,41.87306892970082,45.0852062392692,49.55712233046384,49.283177319831864,44.342166311182666,39.81257293089614,37.446693754273234,33.75169868491092,27.539574334047092,23.503597759889356,23.716002855952706,22.94857960466566,16.70421553094565,7.515480808699725,0.8908481143316582,-2.25895284855429,-6.042261650783719,-12.961820618732382,-21.168245993096278,-27.72351708782071,-32.489008662521414,-37.14937450878734,-40.60560645128902,-42.26085062088659,-44.79006835966306,-50.60371197169915,-58.83578101328883,-67.36838032268513,-76.87326993425198,-82.95451415513477,-68.64376355253302,-25.92167586412089,20.78941280355273,41.72683402603876,37.41526855026693,28.843852635384504,30.178141479465406,39.78360960906159,46.58869567108915,44.43797659056476,39.033493287383195,37.78990337251227,40.711613765399946,43.603816700915566,40.94802130451641,31.7233293139495,22.13442419172058,17.28092421626867,16.284515212298842,15.203817369158882,11.81569845260354,7.724114832312098,3.0123562683473213,-4.737825514794915,-12.796232072238885,-16.353135465118303,-18.176443679793916,-23.186249423431185,-30.300029356443584,-35.837689821713234,-39.86549628424965,-44.22862591719854,-48.983139575604326,-54.71991298134336,-63.65102748837811,-75.06702554711622,-77.97170931805974,-55.62249026854241,-10.15112952541353,30.36145542886411,44.93737208963704,40.85658049710247,35.46222465022012,35.94045007040348,40.36388316407554,44.53601973919495,45.74218352197451,43.83723539895626,41.86061611862347,43.5814747720411,46.78760488034847,44.51108014930533,34.93138596187506,23.904636677357278,17.748495522313643,16.509166353316672,15.142244548411336,11.764046200118829,9.346060581941314,7.955568091690075,3.7284326767798817,-5.002455194369073,-14.52559869305491,-20.13211471408921,-23.489710632506466,-29.571895764652695,-37.833550097014296,-44.07777893439126,-48.0715667700231,-53.84237721585714,-62.24191258827932,-70.01176315176582,-76.51343398433836,-84.8547722016407,-90.53654766941808,-75.25511263937287,-31.320845150568733,16.097636879605353,37.266963689039,35.09907543731752,31.874276246766353,39.022810140297246,51.42905721752084,57.858587606212105,54.83217195794192,50.282471543669175,51.680871234640755,55.083061567847494,53.60599051670723,48.59705893467166,43.271001048782274,37.94748209087816,32.25990961604907,26.883587929784415,23.406120019643296,21.35400085701982,18.284731153436237,12.76848748379866,6.026657813027613,-0.5747059978094654,-7.624368838359783,-15.309613575266505,-22.93137988632956,-30.485707047545205,-36.46261739841833,-41.18248979967396,-47.05702048412687,-54.31421344244661,-61.7589995118472,-70.12175433989287,-81.14317271336768,-93.50107966801289,-99.7998914802892,-84.40824221674288,-40.64352563859978,8.256326157570628,32.16718202494016,30.166832727454278,24.718320808677746,30.053120584171786,51.0,121.0,87.0
42.78966274695867,39.89367476747806,34.23325618932961,30.629013090046,30.738842646542967,31.88379604229294,28.25850108512205,19.516089995270963,12.589819751109484,10.116745849629881,6.6719441914951805,-0.802000662182882,-7.766883726167687,-11.9242665680379,-16.452551886387454,-23.258338642308345,-30.379360904404727,-36.99679428259181,-42.90435003216845,-46.89823644145112,-50.742509307004035,-56.803693046444906,-62.46171040936476,-65.74707594400293,-70.96757413737951,-80.92115502050329,-87.57042781334513,-73.2138273430554,-33.24822660758831,9.927842784410398,31.826234971560837,32.220036702238566,29.03661586777951,34.836352419995094,46.85086617060142,54.1048389285909,50.81006744521277,43.67884604785568,42.250500779048686,46.57456371410973,50.111960052309726,48.13949610325934,42.78730753151195,39.002773559940735,36.69395291075283,32.080801793181706,25.91002902697457,23.25947621544003,23.8980391854989,21.73287718128578,14.08901427704905,5.1667633178633245,-0.2447859994274434,-3.0854580572032506,-7.7389637816551,-15.343677862932832,-23.31963068245079,-29.19061351284977,-33.83427911163373,-38.36589386843862,-41.192606976483,-42.75496544787013,-46.095109322432954,-52.86030418230902,-61.28325986113045,-69.98732808038649,-79.53348630576026,-81.77555547206423,-58.73303295987707,-11.183046739114765,30.13827366778478,42.259782641386884,34.461436010442206,27.996749878891244,32.522841692195975,42.52990431240166,46.82821932109519,42.77893571893464,38.10884310636173,38.349457600119486,41.79338265660229,43.608016072985556,38.77559434761379,28.657656629237263,20.183410208008784,16.74797168252329,16.159489143718158,14.4378997632976,10.614760799969604,6.544165772019152,1.114485552183824,-7.324167550986629,-14.324737987218558,-16.776435266990912,-19.212487836065442,-25.21601297872479,-32.14765921920825,-37.05778677688259,-41.057382878456295,-45.57765704449605,-50.45437066389386,-56.8825931564348,-66.93908446806844,-77.5654304700837,-74.61560967519642,-43.925196904666386,3.472948154037508,37.41072535026848,44.84232247397185,38.86208573338644,34.984710700106994,36.995686501872264,41.763993129830844,45.24369452007681,45.44617300810466,43.060186667716145,41.92086685710112,44.64841079753966,46.94854110239091,42.338990002295446,31.542513262518412,21.478571844072945,17.070882348942185,16.33954745802354,14.279204975269474,10.846804785247935,8.984594659381544,7.190724289603276,1.6034693002842273,-7.939622858528288,-16.62657752675139,-21.08403942834964,-24.84844547243917,-31.923724675410497,-39.97826787066074,-45.31151358658004,-49.3996932722963,-56.11574042936561,-64.68610885163463,-71.90090805708182,-78.64981343784449,-87.39773048739518,-89.15051934184015,-64.98149131836584,-16.2986576442158,25.502781410517336,38.089166765690095,33.41899642220738,32.840582134179414,42.57753177689849,54.297335175346106,57.768878076505466,53.18495665571089,50.02623955417672,52.85985335933465,55.25741075702197,52.31976485665371,47.04073560322724,41.74968562971519,36.349702725121,30.59269213410724,25.652064118123207,22.75428087171747,20.686575805873197,16.927975227898706,10.857960077870203,4.0958165001158715,-2.514153352688795,-9.8288625136009,-17.50733433473982,-25.164680512471914,-32.43643946742694,-37.84538467162189,-42.69004869185751,-49.07192699801901,-56.4675120162045,-63.98475288676774,-73.00987244940609,-84.74922205951607,-96.51084156560638,-98.32043305468852,-74.22780013398156,-25.432486594244168,18.470504845590785,33.434278883887494,27.92471005890957,25.083633352316497,33.18662525214611,44.21139133382606,50.148433593320775,50.509493647437345,48.013493416805126,45.74001623357972,46.619033034132705,49.45134515585785,50.396437926916796,47.892617820469084,44.15596957109816,40.00549571207116,32.71650995280901,23.74271323996967,18.003170105658338,14.931680564191385,10.070384695210475,3.998757363597801,-1.1609879412111777,-6.409590493776661,-11.875188638418503,-16.779763065887376,-22.864382258693716,-32.41372884530976,-42.30404542688893,-49.55134421151383,-56.994514015257856,-64.82642996342966,-71.07713315266268,-80.86892723009404,-92.5810519890859,-85.00901414037114,-44.48826956369388,7.074706743938469,36.011985677830765,37.28647612922213,30.343516017338043,30.648565093541833,39.21803779335673,47.25351087884258,46.818688604682855,41.32443074252023,38.37754168587725,39.68040641009095,43.018837029657476,43.45880825974693,36.9747828959145,27.499428188542844,21.469185497002062,18.016854399831377,12.656228175550627,5.18583655042319,0.07880326884360106,-1.5432437655478517,-4.659899680088998,-11.197755823568535,-19.950386948220444,-28.999269889860688,-34.252594428987045,-35.590951140190704,-40.800993038515344,-53.13044853571953,-64.81527803522813,51.0,121.0,87.0
-47.71441771021146,-55.25282104042203,-63.725356009110676,-72.73762870168899,-81.68645936633342,-78.35049922147901,-46.522868256673945,2.9661342853177817,36.792376884305675,41.05704541270529,31.71439955536453,28.172596320963716,35.368774898809065,44.73194468445712,46.287338421585126,41.092999930032526,37.651361224905166,39.188614820054426,42.749599903734115,43.008140807782,36.11544340698479,25.762223903517967,18.69280284644316,16.465807306577055,15.915939586424267,13.470646513187388,9.421984196101402,5.261962259938812,-1.093286563829921,-9.780625600665248,-15.404957743650108,-17.210416936374127,-20.59943407511848,-27.322235328485558,-33.79058638767074,-38.202372389314135,-42.309925775066915,-46.94286629962641,-52.045564152341896,-59.377038725279746,-70.36160691690345,-78.95434491906558,-68.7469410323315,-30.674037470369214,15.83073192080993,42.04318188015228,43.62887757135721,37.13858214310929,35.038329905273095,38.286494788165335,43.039426073552015,45.66334778110745,44.9079286937671,42.392438774571026,42.35944663477603,45.70112332393333,46.47196422239491,39.60509442801416,28.232141848331207,19.575121189991883,16.726985027070484,16.01532316200674,13.274221327860674,10.103272799823342,8.64570736462853,6.081402200637413,-0.8918721486712831,-10.796569597559875,-18.315714587808028,-21.974132124169046,-26.539139491652154,-34.36648877796421,-41.85289743003356,-46.41909231444187,-50.98982528779125,-58.563473620300435,-66.98187115532454,-73.72781853352495,-81.0374513162164,-89.45808602645646,-85.4509455559532,-52.410046282205606,-1.9250050755147683,32.18807004578746,37.42197729333877,32.20260553351213,34.769493047421236,46.31033592106135,56.39742411479537,56.93310742925374,51.69586079017976,50.363148411153475,53.98541996833756,54.9141665232811,50.857401518177376,45.49942894364012,40.2200934828718,34.70987916369023,28.992099988613536,24.61009151169635,22.18317066890405,19.862039393701608,15.36050603059528,8.896272379208014,2.194717933703224,-4.527167406350473,-12.06200602492338,-19.699468890271273,-27.38268008234814,-34.204054574725106,-39.17529503888195,-44.349694576770666,-51.17366101413242,-58.61082104885263,-66.33638600421402,-76.15181547120672,-88.39992867612429,-98.75798978778585,-94.56248489012204,-61.744991729322436,-10.677714569114917,26.012194384698432,32.88749756910162,26.034281943275726,26.482710740329694,36.55261556721014,46.602023480315054,50.711439604206774,49.9633468579689,47.16902337345099,45.62278113676886,47.4053127479161,50.06327666531288,49.982868989296485,46.811227196234306,43.100701910799394,38.3010104637409,30.059214265359213,21.62355092713186,17.05356554509817,13.817324296597642,8.286312982075769,2.4240986730807093,-2.616027015557521,-8.013330950498919,-13.345040769135883,-18.256847573053772,-25.293463745917716,-35.47469713074812,-44.61848507770804,-51.53616375597682,-59.375502377382546,-66.70511006709165,-73.24974935403536,-84.70280141580143,-93.4973547658839,-76.41916004685395,-29.012926722336942,18.69758124282757,38.565234857208644,35.17439713121308,29.38987339727475,32.537258536615184,42.09379531174278,48.07947144768299,45.35603546844578,40.011301242942125,38.37663859035928,40.59233647492022,43.721157941495825,42.289242817163036,34.1929443178609,25.27393886989006,20.428448042063142,16.788720919323318,10.566402740420992,3.2624035168405943,-0.5750842125944303,-2.0843570281331116,-6.248591117128153,-13.545658660692387,-22.690321190066097,-31.073725530012158,-34.80022144443904,-36.3159567518276,-43.84301269055946,-56.96653078705808,-67.29140113102814,-75.56489347294868,-85.5199477776236,-82.67482999908017,-49.93103767093919,-3.277678781011774,24.952145234494488,29.35634437530162,28.5592075381189,33.10791086897993,40.2616387877509,46.1928201865294,48.21748654868003,44.77561028592552,40.396725253749125,42.7994537228355,51.11399219995286,54.18993096267403,47.21987878988659,38.294633143766056,35.058936677623734,34.70806001243457,31.128740386960033,24.97641791252269,19.381873551926823,13.616079964304054,6.754187900492276,-1.0731473457609935,-9.732114029677918,-17.448362628149187,-23.570613730940476,-29.641953012512822,-36.63584983537333,-44.87498296360438,-53.66767922017192,-61.56847960374047,-67.60386776403826,-72.93448244210104,-79.52991178200372,-89.25337543411933,-96.99607081462776,-85.3785754871732,-45.33549594063287,1.224897079646725,26.382576445038243,29.941195763595488,29.169768738008216,34.81083330876085,45.66949867487532,53.528586443972344,51.620179044700656,44.33690313625304,41.765500098344326,44.50302464017678,46.93812715873221,47.620019031064885,46.799064268991756,43.67075750155397,38.52660101378011,32.50312803072964,27.67500750952982,25.008687982359938,22.267724719962622,51.0,121.0,87.0
12.229228034389216,9.547649860004944,8.21616957673354,4.568718421695171,-3.665233297083619,-13.424655680267593,-19.628554112542535,-22.962381115450118,-28.55204183544266,-36.77121374721704,-43.43763185287761,-47.5258403169826,-52.87617102555423,-61.08428655814079,-69.09593701364737,-75.60186706978045,-83.63174371297853,-90.53085118376161,-79.10518130253782,-38.1940700066642,10.904363740266936,36.21755747215538,35.90983979343141,31.76288907214827,37.52937462160519,49.9033222074843,57.6084473667672,55.56695187105604,50.604450210168,51.18720379330352,54.83352615475411,54.10620611498144,49.31606341518668,43.97237149727454,38.67130744725876,33.036038834682934,27.512512689701882,23.749143841910527,21.626229158484083,18.834110237311613,13.617866226659922,6.927697324548052,0.3032258576506762,-6.62811312695379,-14.289687841133226,-21.90627358692743,-29.533198238423736,-35.786875922467615,-40.530060093479754,-46.16877687556624,-53.31982719251827,-60.758116463048594,-68.87481731955042,-79.52425050025391,-91.95161889909704,-99.82937080164042,-88.22921379862173,-47.54852894099967,2.7336966429397647,30.820655564744847,31.168225358374794,24.908150772608508,28.7662512938557,39.87948860041907,48.44273223246999,50.865497384056766,49.24233698686489,46.43219412077955,45.822203399978235,48.2703410877023,50.42359020816725,49.28338120480721,45.71327101944815,41.97704856970925,36.25528038868975,27.37888799434314,19.884107525714974,16.226647638464364,12.453902597477697,6.490864423893638,0.9389642716803073,-4.119882773271584,-9.612036795351028,-14.75239142648659,-19.919886487103277,-28.035193363156246,-38.42197331176207,-46.70246402604003,-53.64950491019824,-61.709081769336414,-68.44379903496323,-75.9360176299298,-88.45975440539237,-92.11568988605437,-65.01402018539497,-13.5344194801148,27.73244837843587,39.06910246343146,32.94956029919562,29.27455513787935,35.016436956735234,44.636675443463616,48.083575906802224,43.6825839240543,39.05863387242342,38.70760149329635,41.6064611932617,44.020985266437535,40.49624582275701,31.350500820148643,23.45558220295615,19.489174592079426,15.306162927788208,8.35598967074612,1.678225288750126,-1.00027319763816,-2.895627460706785,-8.100937846143218,-16.05573711510923,-25.386331334364375,-32.71148702330476,-35.105137122325424,-37.61733282822192,-47.42618815327212,-60.4803004431857,-69.55603630018493,-78.48634045358034,-87.09516086401601,-76.34866464729923,-36.308333619020964,7.730672101585335,28.015158732524263,28.83735727752944,29.31578048490765,35.12101888918731,42.217735364405435,47.3037857141061,47.73480636392943,43.232186827320554,40.17232712299526,44.99458615813837,53.02944832233239,53.02829371230301,44.34364017080933,36.70473088267166,34.98923469092263,34.131551763783435,29.42661544327496,23.26967109363312,17.812930478423812,11.737666780793717,4.600196493832827,-3.5362482680270135,-12.149313587020506,-19.32650629905108,-25.265821638465315,-31.543285832058306,-38.89758083410653,-47.41237219869651,-56.11525147169191,-63.490844279254176,-69.1325180177163,-74.60981034686365,-82.00821683113908,-92.28039616345957,-96.49654404653162,-76.34437677696553,-31.011046746121863,11.31198123766599,28.936240113458002,29.444629715732393,29.997952261305656,37.69682563640303,48.67372373258344,54.043131298043406,49.57544855806995,42.83358521525982,42.27040544862036,45.40517643964957,47.27794144781914,47.57098379412549,46.15034310710811,42.34716038299937,36.81124532365032,30.873716938003675,26.752281753313998,24.308389854516307,21.379438341898833,18.826630166838473,15.692292665574433,8.32659144346318,-2.1015265937997496,-10.874423815520132,-16.24890711500108,-20.98765159436544,-28.135989714608357,-38.360022641002836,-49.37600459928613,-57.77540195250693,-61.944936875076635,-64.88471531651372,-71.96865392303168,-83.9007473771022,-87.79621136618705,-64.00082297335922,-18.575012124263402,18.064179624771874,30.45455519045139,28.298317288676298,25.229575725107075,28.770623115998887,37.436619110384385,41.25365195911349,37.40201178014987,35.3922297569399,39.36197112520851,41.57025045346599,38.73830005559964,35.54547581020063,32.897280705479574,27.621205300611454,21.44131859604735,18.501656156110183,17.86403180451025,15.367673949619384,9.600908246923183,1.8889253938167532,-4.802452224971694,-9.83457961754509,-14.159063213640486,-17.905419091813556,-22.164297510605934,-28.590467322385027,-35.944687933713396,-43.172771795601605,-51.03954890420304,-58.25248412825298,-65.29391674372542,-73.24614280127768,-71.17279971530549,-43.272923475998894,0.7482337279266554,30.714351635591843,36.53772741938093,32.42438842260935,29.817240990883274,30.43060329347972,33.61107559756007,37.489411120119044,38.13361387275465,51.0,121.0,87.0
31.69569818885003,42.93915061217151,49.73052982730376,50.68560828881244,48.411996482499234,45.897180551421904,46.31232956511067,49.1051805129874,50.47980174299881,48.36559737781187,44.64091210188766,40.68546013545267,33.891442278792475,24.832632437145648,18.52123976832146,15.372285761129422,10.861995085063782,4.761472135331983,-0.4997145265947661,-5.677279847612638,-11.174344899560161,-16.133483210100565,-21.859660259339925,-31.003596534697945,-41.14309241813376,-48.658556227304295,-55.91195275263598,-63.890472085729435,-70.20155839687477,-79.19678741057345,-91.55940312134788,-87.9472426704373,-51.33958369187237,0.9615123254054074,34.01669105434361,38.08062978910506,31.03422364647221,30.024588991926787,37.859354424847616,46.5972189251339,47.35475376207046,42.02788491890602,38.50192161491394,39.3195125368688,42.604380899201104,43.77920924306562,38.17771855500071,28.650249393213407,22.022474968112203,18.51265874244947,13.551165890530443,6.155971818122799,0.4927068024832143,-1.356416698480118,-4.02840274104926,-10.17532673976913,-18.69943377537248,-27.920509675504437,-33.87202213387809,-35.39272115369917,-39.6267515405147,-51.312842201936476,-63.550924087002485,-71.83183825253904,-81.55302002284697,-87.00180894963152,-67.27542680801741,-22.34001664470132,16.49231201842319,29.347385055554188,28.419808526128293,30.578621845122974,37.22344760516215,44.00576502511971,48.01788997477218,46.78251444254123,41.80441041237919,40.691130853437606,47.51942715027463,54.18338614247976,51.059360176022096,41.59858358870701,35.68846961839679,34.986247984179435,33.16918455450313,27.612469781010667,21.65365310070251,16.177835145453937,9.768855325633448,2.363554970948978,-6.057476615690015,-14.424915885193174,-21.091567497448235,-26.999540652063097,-33.53507269847888,-41.26514561955344,-49.96945298906566,-58.445685074516554,-65.25059943279771,-70.64942713262919,-76.4400484648796,-84.79553085311724,-94.89581400352418,-93.8401168546445,-64.96081545848398,-16.999421145113025,19.100789835392167,30.00862848737587,29.035517009627352,31.495538270460752,40.891662643700016,51.18218058455391,53.638726137862264,47.33279372956769,41.94374590455503,43.094069050345944,46.15717594966905,47.4933613657067,47.38421040367433,45.28947703863517,40.87901633741851,35.04994179100773,29.414478158788544,25.99277950168865,23.53121660992225,20.540109553964278,18.16287618936176,14.072545670688283,5.431889858326979,-4.991676200968412,-12.703741331448235,-17.525023868654984,-22.714596830839856,-30.82910378337429,-41.611980738334104,-52.20668826249438,-59.38339382107544,-62.66910025468228,-66.32320434641538,-75.15042080512114,-86.84058789986666,-84.23145612171629,-51.89378255982708,-5.828117884185406,24.02987526185918,30.624786382964047,27.05473461572957,25.417086348553113,31.12130580521499,39.45036034004725,40.645825385524105,36.1624393975229,36.15104633257754,40.54885564378977,41.11860970445171,37.6584570825333,34.876865011713505,31.6990637065812,25.709591819391836,20.168673011015528,18.279474825316736,17.457505615496338,14.030187283486903,7.442974224250047,-0.2474539919020878,-6.377129194294255,-11.138714780492665,-15.295264265250825,-18.981313636404916,-23.792732573197668,-30.72546790017009,-38.005750641970884,-45.392899372732835,-53.26419780997981,-60.165389246346685,-67.66950867022119,-74.52995403955022,-66.03125670643492,-30.9163655133866,11.95134089625981,34.47352497582593,35.63123535202868,31.324500488332667,29.690940469933448,31.12310527584136,34.811890776340164,38.176525899502415,37.38114921827859,33.63893815202876,33.67447393982032,38.02097149696784,39.405500902209894,34.36644446927186,27.321779849564752,23.358287665597363,19.04986219175217,10.181927299116806,3.332517605084954,4.026873690238466,5.256931953920705,-0.4551553646811112,-9.234117749094699,-16.58980745063721,-24.45611867092312,-32.696771215088816,-37.63777507843929,-40.7443978880292,-47.107359243875926,-56.16036637959248,-63.55756826879534,-71.3842661576033,-81.92738081984545,-81.73476203554362,-54.102270242390716,-9.655856049744159,22.974630549496204,32.62770906481575,30.504262192144825,30.983345883324827,39.150783078043965,49.676436599552574,52.30529661875691,46.13246189749776,42.518172102040225,45.42919818872299,48.00171855378457,47.47975041367255,44.04135616777431,36.83771903306116,29.086892358426716,25.58968664273118,25.278985192038547,22.260543455139292,14.836996769025376,7.511447819933058,1.445998541174122,-3.415260444863848,-6.698063005201681,-11.167297036787975,-19.730096449313574,-29.03663137935576,-33.6222152768669,-36.40080257860613,-42.33822869337574,-50.21981452649952,-56.498616477774696,-60.821643568525204,-66.85593219967835,-78.46232755702115,-91.19749915765856,51.0,121.0,87.0
-66.18851462449992,-74.31660836852083,-84.41224359458926,-84.64631206238285,-55.82851670979747,-8.98748083855997,22.827377452967582,29.511865254242338,28.395361694164187,32.24218045323544,39.318982925955844,45.56707527531572,48.26964000200442,45.46343441528994,40.72150191147345,41.97302736536424,50.04547260943101,54.41205712725975,48.51166942057384,39.22089747384878,35.16938315542424,34.855933281751646,31.84228413508239,25.79430958411663,20.095256584384995,14.448295720088966,7.722171029399355,0.03351475460409292,-8.583708947150958,-16.532869637456592,-22.793423941439364,-28.79206551240053,-35.631383909472625,-43.72027577734748,-52.51155466983082,-60.6228337639031,-66.88217116472079,-72.1980152997018,-78.4916819517223,-87.82165845236887,-96.63527450972343,-88.66312816536224,-51.79467251285079,-4.132511393763271,24.580064034185746,30.09667087085849,29.002582082703885,33.63366092891728,44.183927256148124,52.98235840764977,52.41110024926653,45.203456688748005,41.68868397137396,44.056584935875655,46.731250508201164,47.603790977789636,47.02812242602004,44.224847710812355,39.29174778285177,33.29349146381869,28.171243424226986,25.31632377426942,22.677337861226945,19.7886648936711,17.363155130682493,12.023856583965129,2.3759877206788573,-7.619623321007433,-14.26803064785846,-18.83778221240501,-24.706173349085507,-33.763113133957575,-44.85146013246515,-54.73400380149092,-60.628755859160464,-63.42106435061346,-68.23122875777996,-78.69168406895564,-88.60165130443367,-77.92330287208716,-38.5320694013161,5.371063324336886,27.906877325674717,29.979320894879343,26.00870610109556,26.289633081623073,33.741523785805015,40.774251237619616,39.486350621969535,35.3895351119827,37.347466486595486,41.33773999583216,40.291939937550396,36.692078925413526,34.18651861825278,30.21203276625458,23.838256794456584,19.250026767068242,18.150707358439256,16.80873726408549,12.412807903924328,5.18400243159329,-2.2253787401121286,-7.837425187336986,-12.400361194042164,-16.377167572602747,-20.15410965374734,-25.625974033042734,-32.87112463216537,-40.06872940932607,-47.67916494344351,-55.373128781155124,-62.13691230464518,-70.1081029016843,-74.53083011627857,-58.414715189622804,-17.8349586016938,21.222942021388892,36.330618318383436,34.35088603283956,30.498956355868106,29.818633489891,32.017270522947776,36.00082895529057,38.48106285814788,36.3284386536767,33.023398722489254,34.7473816684188,39.04522308015919,38.53005827783135,32.22821472487267,25.81766080724855,22.490694886515527,16.85554949351466,7.5520053073377,2.848589847614522,4.831491967575344,4.344185177776424,-3.009551896275078,-11.495112290754207,-18.694277377138047,-26.967724108518144,-34.548089941722836,-38.4825413791756,-42.11018726121555,-49.6682357385211,-58.54284786582014,-65.51103623442586,-74.38491259352894,-83.95542936255457,-76.76851890359555,-41.72578649406293,2.0206829224054212,27.90963752304134,32.47878872792228,29.94189780226362,32.60524466316702,42.406851307666734,51.598655175541914,51.03130638040326,44.33409126278112,42.92971645097739,46.47991756968422,48.13210084161487,46.837065859470634,42.31731152982937,34.389335743906514,27.54554159158402,25.3969490557698,24.93095375013271,20.404514598222416,12.548246286826547,5.6793914194749595,-0.13917044560176317,-4.464382056446784,-7.6846644298836395,-13.213213197947251,-22.665400174222412,-30.89847647457822,-34.30841811150364,-37.7263311871199,-44.59269894520476,-52.2993576287994,-57.84868495842834,-62.16579629573002,-69.58881314901419,-82.57760977248813,-92.86029481151309,-82.30194420772807,-44.53450464864601,-0.5551729128444376,24.06268893900595,27.772755769997687,26.471037683712865,31.031695041349934,41.41633477229149,51.83461972162586,55.11419559027179,51.54778103729731,48.055245667329814,46.9125047520441,47.11440720892944,47.83928216866432,46.45530023157398,41.75227865114465,36.50516661537036,31.77663104926153,26.465179650101664,21.457918962565856,16.72953959905575,11.185061920142324,6.1869189797266175,3.0230529662937453,-0.10919759089996019,-6.427771865504552,-14.865496459046978,-22.518086908280946,-29.12587049100538,-35.22528740468393,-41.73587707221577,-49.440629451657585,-57.64141950327767,-65.85319679594393,-75.7725676861025,-87.72673651750553,-93.29683461673855,-76.09231671372609,-33.01638621822028,10.65599941226615,30.24719645690961,30.205625212519983,28.31209152333468,32.29455302903904,38.771277902847906,42.85773485730145,43.54784175761256,42.83604665889364,42.356909184346634,42.311214389116834,43.0955095042792,43.89840259665809,42.35015307616103,37.27504387987503,30.428081029255225,23.6507777946045,18.311114463922618,14.126328296699254,8.121309365333952,0.5508206694567992,-4.877593406471932,51.0,121.0,87.0
21.78633092361419,19.120617695554383,16.300752184431882,9.572900792594865,-0.7075927956738746,-9.92494856948044,-15.648942822077146,-20.268263327525613,-26.986684382792536,-36.88058122368803,-47.98869973609408,-56.90396476868784,-61.57802635667512,-64.35439000099595,-70.66587821210305,-82.31513802506313,-88.5688516652975,-68.94409529123415,-24.792143639627724,14.565987833793535,29.991579161106184,28.875802657021158,25.354356007346105,27.846128196658345,36.3354000404394,41.28989409660608,38.06001702167403,35.24034646316378,38.73398852217631,41.618133054218156,39.24762046707842,35.876916852212794,33.355952872264965,28.478484376025463,22.137498013275703,18.67153009153586,17.98452625902443,15.887820405707426,10.539145973148184,2.91450538887142,-4.027868963810701,-9.217816383167111,-13.616091323353464,-17.423931400335196,-21.48494345552027,-27.627367179801194,-34.98469218856712,-42.17657659003973,-49.9862495405997,-57.36350489196305,-64.25473848731437,-72.36597083727546,-72.73178171737081,-48.49873017407776,-4.9153084047461535,28.249586798279765,36.72028551741631,33.006124245748076,29.966438126524054,30.184790740348735,33.07931064225049,37.06933243820555,38.34592647792472,35.15059685708511,32.9021663531305,36.0750147392623,39.61165367048689,37.12347781450056,30.093365498663864,24.653526171238436,21.39510833394625,14.26617756317716,5.359659505099041,3.0205963313168973,5.386535617019564,2.767352292413451,-5.6174319623353615,-13.606848665275548,-20.93055644231794,-29.43525922271415,-36.03779768738956,-39.292735803498786,-43.86519787158232,-52.34680286273939,-60.69647266411468,-67.65202798822773,-77.5889536610054,-84.55066109999096,-69.22440981991105,-28.56999805008049,12.014862444562228,30.942555431713934,31.763771075501356,29.885775286345776,34.88990625301049,45.632255346185076,52.60428538510573,49.17318360694072,43.08862156110798,43.80228336324258,47.30845673523195,48.02248946592822,45.93243309087224,40.26344079851904,32.039078407133864,26.44718509836841,25.37096545886934,24.187845862931816,18.238271273868225,10.392529823223597,3.9167300144776713,-1.591197156859444,-5.39601310663229,-8.871392806000323,-15.647563259438959,-25.490056920347662,-32.27888822306377,-35.014880128820366,-39.3889366030686,-46.91637300335636,-54.1700419995733,-59.07007289995177,-63.77590325585003,-72.86268492542976,-86.55337237501506,-92.70728582670068,-73.73103558406007,-31.078620935474905,9.161217224100099,26.6989703972409,27.190131435921003,27.034419486828284,33.60656749575408,44.776726932153544,53.72018870993011,54.49410706347633,50.29469228215206,47.52943941106696,46.858165345354365,47.34680308609056,47.79465584326003,45.3601442220773,40.15820462752347,35.14703894631178,30.300559497538977,24.930847626793568,20.13438476613078,15.201488111888978,9.583824233542105,5.099035521617549,2.275740736427662,-1.5394894352227415,-8.816346681925964,-17.208860176666764,-24.511732094694764,-30.91248898509664,-37.00993658353504,-43.842433904739764,-51.8126141715347,-59.97900147546572,-68.43639650646176,-79.17280879252151,-90.65743111660913,-91.32209504264861,-65.64501145382172,-18.95285665897752,19.159296568968944,31.443940808329554,29.22375184213625,28.875649423281846,34.17752748916898,40.32110814621389,43.352210684129076,43.37583511913011,42.65564217552051,42.28672280918509,42.445389721716026,43.41642811521795,43.80012995419997,41.21072087813713,35.372180909397045,28.407305709994368,21.903254982954856,17.10261897538662,12.675589067975734,5.945284029649831,-1.3712162998452864,-5.859279023435381,-9.272258894802038,-15.739830399048119,-24.221709587108805,-31.92447644050115,-38.7529659465746,-45.862070067448684,-52.861253010309625,-58.513828739329085,-65.48173250028707,-77.62139920471425,-90.52466345150329,-88.50033192483966,-57.60328318333842,-9.132546290600807,25.863594994714603,34.316343882670694,30.25042367272265,30.944190836276963,40.473114736732825,50.74289320190548,53.68796612247804,49.50512613443433,45.17486554867162,47.08294189649886,52.99214284316611,55.102329684853125,50.09631494243181,42.92817457046467,37.2455259130422,31.861603896535673,25.532148837841362,19.784223873527196,15.346118763050324,9.279966513669688,0.07795020705653002,-7.9671238756989045,-10.909980761278714,-13.530582919284265,-20.69374640313449,-29.55825574252278,-36.341935054521166,-41.600359527451666,-48.485275365412946,-57.47876125109961,-66.97147665817988,-76.6161185468312,-87.92122765016188,-100.89458792188643,-101.87449014659342,-71.57966346773111,-19.61371134630875,18.869038796694024,28.698982927740612,25.361209826630088,25.508288478735828,32.04884262560624,41.314106643692014,49.07450892595766,50.800710533786216,47.55911824743132,46.405089707211,49.41388747727528,51.0,121.0,87.0
37.773806046401695,34.0571196238867,33.31542611987973,37.44101168461531,39.61010485172172,35.30309459777281,28.13112365550959,23.74006808730043,19.900317256634874,11.470700898226017,3.8039576658696226,3.653620848511304,5.444431612157835,0.6507356329704017,-8.130853620960346,-15.646872227183424,-23.31579420575123,-31.729728285005585,-37.194049328023695,-40.229245269435644,-46.00721344578821,-54.990113238992414,-62.673474488503224,-70.11845960600645,-80.6725933552702,-83.16354287546636,-59.32814612594525,-15.46311475085417,20.002870722763667,32.38792451675224,30.876673748855506,30.474684758336196,37.715986314490436,48.530553404480656,52.619187155099986,47.076952756072586,42.5361387938736,44.90602554971152,47.85048076966027,47.699398603044,44.71720225809962,37.95497022232204,29.93780084975614,25.77439105987563,25.342569166163727,22.97701937964438,15.916815076261871,8.38963749670069,2.2099391470089045,-2.879142537885421,-6.2808972889344,-10.358526311104466,-18.39513131008706,-28.01464169986123,-33.26220359721597,-35.90012689347718,-41.35228518695231,-49.20337227515637,-55.81399319806515,-60.25579054970103,-65.77468391964494,-76.61417724508456,-89.95742592040418,-90.31695443007683,-62.98233275913002,-17.875047893861986,16.776581813529937,27.841853676844217,26.636294171076827,28.21939029222215,36.59533614874086,47.952862161621226,54.847238808432245,53.43427909906113,49.217454857160774,47.18106592554538,46.8976644224224,47.59686854052005,47.48416592521458,44.006891914369085,38.6122865351372,33.806046172399526,28.75950633926656,23.466043265875747,18.798044086940227,13.59255218897097,8.089877382444742,4.172726064077697,1.4510087425507143,-3.3064250184976762,-11.289057055936452,-19.442857512434554,-26.430867246646613,-32.66871860172401,-38.85990276586567,-46.05690992981782,-54.19272271033927,-62.32199647662566,-71.23105819522738,-82.70774728023771,-92.73783408621733,-86.99418077545674,-53.23660527583829,-5.712413554935156,25.279262006628308,31.4104824371309,28.501441050448303,29.968661959838713,36.117256648131644,41.58237091466539,43.578581617365145,43.154367049626536,42.511560030391884,42.25439260030674,42.6629653673306,43.69605394366539,43.43785087799644,39.77915315818474,33.38645207648662,26.42079242763468,20.31786624949152,15.941716894290622,10.993312114821338,3.704333010209619,-3.013328811447735,-6.727684393794382,-10.76071407502114,-18.14050138188733,-26.583318430471778,-33.936267512299295,-40.744384761638024,-47.97620451644944,-54.615187762843945,-60.163325923065116,-68.42659526415395,-81.78214401320682,-92.33423516751176,-82.66892007508355,-44.11029239390972,3.5721591409370137,30.755989688957232,33.512445821112664,29.477016049295155,33.00129513760104,43.838451524049084,52.506025973640746,52.993383311994805,47.879070807409065,45.00210921434903,48.690600602544365,54.32188160897885,54.26431268039069,47.97674503505834,41.12571648155803,35.759598081332946,30.108354884607298,23.710581857831723,18.446926766228607,13.917869202930014,6.862185249915385,-2.6568692295110248,-9.295876111878812,-11.348262750785834,-15.140999983616132,-23.30539456700767,-31.800324166634297,-37.880649355282166,-43.31996150495293,-50.94023497964107,-60.2183397180247,-69.71613041482638,-79.59664168704874,-91.75034745933476,-103.43166635164992,-96.70761277230987,-57.3547806355651,-5.718918385534598,24.34325363517609,28.115892181667807,24.67818284183553,26.87041708928842,34.62549908148596,43.921577118644876,50.32838810638806,50.084093831252275,46.75447735303525,46.96700338089317,50.50335169823826,52.81412062636525,52.14406519428046,48.72386706052855,42.17077974860329,34.76166667588831,29.599439706019975,26.108503433738168,22.15716212940225,16.146876669356978,8.184885701938493,1.706932444890656,-2.239352647399588,-7.742463694587652,-16.31581055648697,-24.269309606020144,-29.585698736143364,-35.57380103959965,-45.35339223361587,-56.23487229371391,-63.49228106254046,-66.98773067142231,-71.61709101139449,-81.89858188995126,-89.03459007820912,-72.1054606640953,-28.18656804878308,16.2946684463274,36.21362974551402,33.81068003179181,28.65118363628093,33.50372302866347,45.117828390029636,51.99007357400876,48.818371514869774,42.6738126835408,41.322329645151136,43.847057741219665,45.492650875287524,42.70541697518237,35.19853170475474,26.78347350704931,19.520053037544297,12.895932532609796,8.400376245113321,7.073800992661915,5.954533143123273,2.0449539836018036,-4.7343549827580835,-12.80208998698982,-20.95470715245191,-28.142466070645973,-34.132438898298346,-41.57091355918348,-50.46568698914296,-57.9654461027637,-65.24484299394268,-76.11149695238021,-87.6534297044472,-86.78457646501774,-60.38055521678355,-15.808917661682349,20.85257148333117,51.0,121.0,87.0
-92.28984060390056,-85.42370159482223,-50.600049658174015,-5.671317189840136,22.23575735541737,27.944956298751677,26.409299519264575,30.01350732965706,39.862212479415525,50.73664529084416,55.19665931933486,52.154550474159194,48.368481675325256,46.97104565242504,47.02719499347044,47.792040921137826,46.85606570774951,42.483863560769834,37.15076104013717,32.431783723291495,27.187515791210846,22.077581963504628,17.40218891217335,11.943200708576668,6.747661195718991,3.369116827563558,0.44343965156258713,-5.384406541280936,-13.752127331350927,-21.570100633561207,-28.287669089238673,-34.415573925223015,-40.80319653929729,-48.35853018068753,-56.55828102575369,-64.71560274986457,-74.27977323406563,-86.20042752410396,-93.51191003668592,-80.11848234449653,-39.538849836284996,5.95906203217449,29.14150457632091,30.66062001708109,28.244324712862475,31.488517056772157,37.974369463318325,42.528401719695054,43.59354280163687,42.9310661680654,42.399210030063756,42.27699175253424,42.9491880791989,43.87134229083824,42.768112962895394,38.1081293624861,31.363806604604257,24.501762388393477,18.90742586150578,14.729464013829578,9.07511524565507,1.5127652676223644,-4.3534315777462265,-7.625542391571654,-12.576884854880182,-20.623037444120087,-28.832730884702926,-35.89889192906482,-42.789714923764215,-50.04081372050123,-56.2384594418718,-62.04539406580304,-71.87068026765185,-85.78693059178583,-92.40867918710428,-74.20092914431606,-29.76852343381721,14.349204631182584,33.456128019143875,32.178913298160495,29.4424663847093,35.73578696841789,46.99035736971223,53.52528107627785,51.792875875943075,46.46381230901113,45.44721812546985,50.48415557593937,55.12015935820969,52.85527676073746,45.847062909649026,39.475112525684615,34.237805115458805,28.270682906137772,22.002588316544674,17.19752043149049,12.253573376195513,4.192065792968631,-5.125965805415684,-10.165817973417157,-11.970844303209242,-17.170381785595954,-25.928384860890347,-33.80684804465693,-39.35614462699329,-45.25334779626102,-53.5373983507828,-62.964156512009886,-72.47883517412869,-82.78219514315032,-95.6712521024612,-104.43214675224702,-88.53140721628122,-41.99320076069008,6.12922278010184,27.446669153634957,27.00300346355649,24.56099938287077,28.712892371407733,37.32926594196397,46.29639313145916,50.96467122680385,49.083103352238325,46.30515272156498,47.83911427118204,51.46192854200972,52.904854843583934,51.46311820904133,47.12366526474546,39.94115935886174,32.98795898546681,28.520895230760964,25.09314237093652,20.686922807628903,13.943773512793705,5.991172576111938,0.43980323055027726,-3.4857401689799627,-10.003212112302437,-18.87310711410656,-26.0082058212095,-31.034118357245575,-38.008246519769706,-48.630046803757885,-58.824681921928885,-64.74797896451376,-67.91298258047496,-74.02591558243205,-85.16567945649939,-87.37658725063906,-61.42341649281265,-13.906966430015446,25.04071109569185,37.04830715407021,31.74917909723078,28.88202759504609,36.636539001840106,48.06545095151055,51.980530636846545,46.876606310757445,41.66800826363934,41.86468584822956,44.60282412477043,45.24633175292887,40.90058683149326,32.67852738586076,24.591493897877175,17.525325232750745,11.268837132831782,7.756615207571906,6.909668201213628,5.169612027993319,0.3217613571210949,-7.00437993254264,-15.182721887609175,-23.191647690824375,-29.91366773171304,-36.023649890127224,-44.12680051637536,-52.83998020167036,-59.89891224218179,-67.94411144029638,-79.78634621760374,-89.42446797519604,-81.99521096777825,-48.3406870483476,-3.3042817449838426,27.289247633606358,35.9498534359991,33.540054927717065,32.551240617495544,37.46564181222635,45.101569845296794,49.755405291968,48.86320131484903,45.13918594809276,43.90339546011352,46.626236416498685,49.14003477306869,47.18604713700455,41.435080777960266,35.877603877111255,32.92679453189095,30.19106771445091,23.086253060521,12.231432143690215,2.3973350263339284,-3.310905942307341,-5.493678194051264,-9.50583648385829,-19.30616100400638,-31.52103299494165,-40.51404623463558,-45.424621421746416,-50.75143331577689,-59.02701649073121,-68.02269977866533,-75.06551058931558,-82.43543241075848,-93.89046538788585,-99.45861938240144,-76.80226225888218,-26.027415108681755,18.83407804524138,34.613484188480676,32.66816414506416,32.384707874530726,39.633935377918355,50.439638077768066,56.499879058709126,53.190768779430826,47.56129770857384,48.515985639713065,53.55441179900433,55.097534040056594,51.362593685936325,46.32652057533208,41.76598414679803,35.48704263402529,27.75150775076168,21.577085213557275,17.70199292963741,13.170685001600884,5.702188093661313,-2.8079966740517923,-10.32764533512728,-17.725594520938124,-25.195892185041096,-32.10840731470746,-38.197370346953704,51.0,121.0,87.0
-5.428669149903854,-8.692432189473953,-14.687271155193905,-23.100266975075247,-30.971342330847246,-37.84855517693357,-44.8855992860433,-52.00265270905893,-57.79289136931746,-64.29299500033851,-75.73821739153225,-89.2425888627659,-90.30243475816593,-63.31390236671614,-15.467363496278454,22.797605805698566,34.36500173090978,30.79316847905359,30.26859780402455,38.9237845629876,49.69600041080981,53.79877757890829,50.263650635905805,45.45842564731966,46.45757702181403,52.24937683223694,55.2667456711851,51.029572325797275,43.81485172331108,37.93456078995555,32.63499952979189,26.393848106479627,20.447304899161242,15.949186793927268,10.291851263864025,1.3804430682870643,-7.1834262533013105,-10.712984591543293,-12.939816218816718,-19.529243950598747,-28.451937658352982,-35.58653186824542,-40.866366356088534,-47.41558541074995,-56.22338344907465,-65.70747466257964,-75.29019592155043,-86.2344392913455,-99.37867862703942,-103.27968861650182,-77.50114198537494,-26.511266806572927,15.464839860815351,28.63893033288747,25.82532784140103,25.068256085516367,30.929910586030715,40.06710894251669,48.30673136726122,50.98163469426329,48.015309277366946,46.275735788830815,48.899591954681526,52.20400161660505,52.75438158749431,50.5465882830108,45.2564545244309,37.73673227793363,31.454670737766666,27.526866010735922,23.994110635858995,19.00603874826019,11.61197324249641,4.036909359575769,-0.6611401110717989,-4.986866263793343,-12.494434856173347,-21.251923223234037,-27.536020075984315,-32.662693681937895,-40.79637650578074,-51.86655917203583,-61.01698841299299,-65.7438913202647,-69.09633755566956,-76.97987016343734,-87.75226787445823,-83.16168284205199,-48.754461900985135,-0.4416021769551095,31.322889053852812,36.373236073140816,29.983771160421185,30.109147009732812,40.10552666982622,50.31231372422539,51.13299181461214,44.960394099489825,41.180595584957885,42.62182983716315,45.174285087628874,44.55557952467696,38.74400894617871,30.202983393358007,22.492008906205673,15.575026898161736,9.886419049013673,7.367190142675134,6.655829651921729,4.104319593779012,-1.6146353241134475,-9.338156338193247,-17.553746449519693,-25.31026185813868,-31.608776625055768,-38.12154247516792,-46.74153632444922,-55.03301150091903,-61.90820804475712,-71.02643669004385,-83.34640313048736,-89.7453132142721,-74.82697401430042,-35.25880545502741,7.837866390342729,31.765712348883767,35.74177797583269,32.73136613172564,33.39461159216628,39.652561498040356,46.96076186341722,50.04476775453014,47.84233025629219,44.337148634936625,44.38861932770946,47.62643876001226,49.1090936929121,45.76152129989104,39.62969071390064,34.765652881404776,32.33660144978553,28.70620925156904,20.134304422466975,9.096407236562484,0.2570457562441547,-4.1367013869396105,-6.178283186722951,-11.75832693344147,-22.86811454217583,-34.62221263562816,-42.20687332267403,-46.70703013671253,-52.86984799535018,-61.71493134564411,-70.28264865984008,-76.91111293710388,-85.37845899911147,-97.05974695015068,-96.59198862955577,-63.90350098676549,-10.776608610893764,26.42247877161503,34.852798493226125,31.878879072137696,33.76235452013652,42.71138587965091,53.05964686734234,56.41455456847461,51.27621588435824,47.0302970607036,49.918962844520316,54.5935767107457,54.43824706280159,49.85055473179938,45.03518286100699,40.20520673322833,33.27872037313513,25.694659681164563,20.299759476760986,16.62879633563653,11.304147469152658,3.2013348617708113,-5.075288994042798,-12.432161500494027,-19.9064989153843,-27.27321167331562,-33.941382197914784,-39.90149306552487,-46.537584631264245,-55.486619691037845,-65.38870784503823,-73.55274044227055,-84.21822075999586,-99.0021305225343,-99.37576868742711,-65.58255365894341,-12.718064825784761,24.544624826374037,33.75785587859633,28.963831425009325,27.851546037629067,35.80483549543254,45.34429727156984,47.21408532836541,43.496038545046744,43.00434158016989,47.128123358497504,51.0285444762754,52.5893506273214,50.00588550789158,42.92558579937652,35.00599113821224,27.39977991486702,19.577373456294914,13.819281224696981,10.334115542977338,6.032495947044725,0.3965609377212955,-6.089767510929505,-13.986759884411224,-21.295443292156605,-25.23062912513581,-29.143205808855974,-37.906697631077684,-48.74264301038872,-57.65358890266037,-66.70838165056801,-78.32086440357455,-86.54561959563162,-74.87162714894406,-36.409306133302024,8.134131806132787,31.571504150914066,31.852444429243448,26.003164444365147,25.44630097465137,30.836530205309035,36.46071072772669,37.51049816032638,36.481951526250654,37.339744825663324,39.15654475320681,38.71874434812009,35.825277618414724,32.216077328277734,28.064928670982837,22.976712966382866,16.79920802146607,8.773243697618874,-0.13101008668991113,51.0,121.0,87.0
50.0107516795713,52.68425386948634,52.3851259560068,49.36469503914631,43.177751300976695,35.65674378462547,30.14239551700245,26.55949397092958,22.772483448744335,17.099545519802195,9.250927748970868,2.3747320177371214,-1.7241681734219447,-6.7989412232650945,-15.106468316103161,-23.38024946422818,-28.94458087719805,-34.57579142007854,-43.87033286331752,-54.92128142484937,-62.800305172187635,-66.59997700962819,-70.7004968203234,-80.31567057958715,-89.04457468160761,-76.21270614466557,-34.81284269773682,11.478371963547563,35.1843671553059,34.73567798065375,28.873130292227806,32.25352281967867,43.59283573077217,51.67960951655474,49.647277904602646,43.302545543005415,41.18097190592176,43.46373080479437,45.47112172372215,43.395555696464044,36.34843107842374,27.833618685290133,20.449726931721788,13.710346154196998,8.797629610333226,7.147185709981298,6.228083328581599,2.756855200023464,-3.7197563666524203,-11.705442611580766,-19.894248301232103,-27.283196213266375,-33.31504096035753,-40.438109627917065,-49.31636513271823,-57.06517205555056,-64.12287783164463,-74.4496378370386,-86.46761833457582,-88.21088215265914,-65.39942537246053,-21.873454451065466,17.201159280122063,34.48736504377732,34.97492159601528,32.29349049548774,34.748423254241814,41.931431157519214,48.43674239133258,49.8567980947571,46.70281718792282,43.87416804858532,45.17476786751927,48.46396033435065,48.635570527920805,44.090924191431554,37.95132672711689,33.89272089600617,31.652664595761216,26.752908416259093,16.965640367193174,6.16326823099102,-1.4845841954762522,-4.73272458566886,-7.186902816991789,-14.52951477129928,-26.479690932176272,-37.331052343823,-43.610959285855735,-48.16275785622197,-55.24121075926847,-64.37196321137048,-72.33442125847661,-78.91421206324983,-88.72192677620055,-99.28218559925804,-90.78212922780145,-49.088558859008096,2.939079631403497,31.375961691892705,34.17608659822092,31.60350303512584,35.77128404317915,45.93147117944495,55.049210806451555,55.52681323752381,49.46274371814428,47.193243066220454,51.47180593281206,55.174767661989975,53.37799211788307,48.35730053853161,43.7615416208434,38.43712624180778,31.00405540683027,23.847298371177995,19.191176607166,15.398622634728094,9.173138721409579,0.7022935910135448,-7.24658617492125,-14.562457588083523,-22.077795888631897,-29.290561421104393,-35.703594910810835,-41.65860031038734,-48.85929916101669,-58.41991307058557,-67.9027187101245,-76.04629043678422,-88.46832831631264,-101.82772144780007,-93.25589749474669,-50.682659569926855,0.8470806025411906,29.799412739688613,32.89439532338605,27.73849910290613,29.360212268724492,38.91488937305251,46.8496790328434,46.31001826098049,42.744643670621,43.923965529602675,48.441992419512154,51.76326073963684,52.37336473483795,48.29884602469815,40.57022736177491,32.840400540888815,25.099815159696217,17.593504836204108,12.704636052364325,9.276031141772503,4.487907109788788,-1.3606145454758276,-8.238060213412316,-16.335837723769128,-22.776926038309682,-26.061649371527164,-31.140815657517216,-41.098144272253876,-51.521239279193,-60.08049283208006,-69.82802465756276,-81.65171313557575,-85.96691590206402,-66.10422585854216,-22.73210398046145,17.769026516809568,33.394265211293074,30.044404372467476,25.110879914956232,26.557416086072568,32.76388394478135,37.252276264035984,37.19430497960398,36.47387696479763,37.91960935405117,39.35436476897729,38.04663463592043,34.81756348131081,31.092413947409597,26.700408044612555,21.321219239628544,14.698362574019034,6.160309624033699,-2.445039933732739,-8.66544794475989,-11.573231474908104,-12.89040061677369,-18.116012802246516,-28.144606253518624,-36.80155057331962,-41.86724841845367,-46.92270067945849,-53.519219355350884,-63.40275575135705,-77.80154096632978,-83.21052535582238,-58.97295461818234,-12.155567791786327,24.25152734935965,33.36631115509604,28.07939449209142,27.708558702929917,37.696178996473016,49.003774175652644,50.83895379832048,43.80637170486085,38.034608953297415,38.08535212076494,40.6972088455028,42.93159713745863,41.99872771063797,36.23503614085301,28.911634026845213,24.05791979596476,20.61137920226558,14.01951061151148,5.475317169488013,0.724210378908384,-2.4525156438953464,-9.414295619350025,-18.82238438528767,-26.01502085478886,-31.106969739222702,-38.080099439893345,-47.37316782098202,-56.51161283335725,-63.756124860364245,-70.9071161894391,-81.62213774549079,-92.3277246444021,-85.92342127566268,-50.08423367088247,-3.0113180631078325,25.52476894779545,29.73197815615236,26.18169747836115,29.592885380235344,39.47846582626975,46.97516441583276,47.50053382179598,44.19857333129964,41.994522662982156,42.873746561237986,45.26738287081639,46.39531073974818,44.720850544804215,51.0,121.0,87.0
24.57284454701006,35.75658697130764,33.987586921703375,32.345653949934146,36.53116008977299,44.14464979346187,49.45333513238712,49.254354003218474,45.5968210747705,43.80270946174497,46.15031742720684,49.01206930632826,47.733111341022,42.283217515340304,36.47608807968434,33.2052498820404,30.731836009423375,24.33798478516365,13.718524064918237,3.509394919471466,-2.8220755056933293,-5.242256117383163,-8.6524062773841,-17.726271390675645,-29.982359329057786,-39.60745381760055,-44.86024745050474,-49.86953946459057,-57.80378001678892,-66.91094033711957,-74.22343495527531,-81.22973292527449,-92.27478038820648,-99.89816784105297,-81.89203889269672,-33.32216961642691,14.417252294628062,34.02813378803551,33.13857064173229,31.97872071704608,38.315831006809475,49.078041792498325,56.24345445390284,54.021240266817685,48.03166249944445,47.98246522188503,52.95167406467768,55.24103050479233,52.037736893915955,46.945534894797284,42.4252097514151,36.460187515222884,28.754868863566706,22.23844478124788,18.17033370084264,13.936192305073126,6.831211238784633,-1.7247201388904263,-9.360313975093206,-16.72245687648081,-24.221210207526482,-31.237033975144662,-37.415782358276964,-43.521421240072,-51.40827949724007,-61.346992828905954,-70.23096503593081,-78.95639274198234,-92.970310903794,-102.75559111844656,-83.98750122274711,-34.99552917764665,12.298100668237572,32.75098378112405,31.37409887577149,27.178495107249347,31.609372587455873,41.872622182039635,47.543964607137916,45.13813672559942,42.46983856755846,45.14104536316821,49.62015367439573,52.29066400182856,51.74028044817984,46.25941834426592,38.25568760654529,30.666840647572933,22.795617183593812,15.861537898164132,11.727275025157267,8.070235748120798,2.864373454130638,-3.1984244817966063,-10.517620431786328,-18.540544763106112,-23.935364076028605,-27.057742469282115,-33.61468538876572,-44.30412392257894,-54.099571971972644,-62.62082479711957,-73.19330755668821,-84.43081271123212,-83.24360843570979,-55.1636352054203,-9.330356702719358,25.101055527400344,33.55940611050396,28.19175752168392,24.80852304750093,28.104972850194027,34.51838099639333,37.60863177946208,36.83468052333251,36.688075157640576,38.501921602245034,39.29088153639343,37.21277393560946,33.782468668442256,29.91293579621111,25.248993900091666,19.574194883598675,12.411166122571867,3.540162027198439,-4.54882800343438,-9.85340407348991,-11.910721176044275,-13.776151651621488,-20.734675741107267,-31.052556815529744,-38.510586282904015,-43.188377151847135,-48.66030002588999,-55.87098673162525,-67.3072306965545,-81.35232134611756,-79.71063406135626,-46.47053964636543,0.8147570756169125,29.549203781952812,32.33612126790478,26.888349016147163,29.731414769567525,41.41265195799116,50.763354571489295,49.33152655500761,41.58888665081642,37.53419657450275,38.74207452269558,41.48669412756266,43.12460078865922,40.78507545920452,34.04125510597736,27.186884696411273,23.111346737203796,19.170706426000933,11.456052643598742,3.6121067428426312,-0.050662038957059286,-3.986110387233178,-12.105142077263181,-21.25888314296341,-27.528221383366937,-32.805673950167446,-40.62301633560083,-50.14282885072409,-58.80727723264246,-65.6465732827555,-73.56051109606005,-85.23851131034598,-93.1778643499787,-78.42350541441562,-36.14992574803669,8.004062068146666,28.734162806292716,28.617124738802396,26.18043588026523,32.14073486686153,42.255386060245556,47.81516440421339,46.697148627967735,43.28537443397771,41.947647481314455,43.53349308482826,45.83376934597035,46.20343171280645,43.78673304055462,39.90557399850514,36.078646244094166,31.577487904012177,25.00038546151559,17.411682120892618,11.133253751690994,5.922504766017468,0.7844547099739196,-4.304471944162205,-10.559841261437414,-19.23044760203495,-29.15550408119797,-37.137271425521625,-42.52565139452605,-48.83438977703985,-55.6840489321647,-60.33072368955588,-65.90011961675458,-77.99688308769133,-91.67293190476956,-87.77904895100103,-53.585930022254516,-7.368025847156924,21.399001534820684,27.66669253710969,26.791521545782217,30.94297846061588,41.10280719597303,50.253587480274504,51.270363248567705,44.98440815533999,39.20047503286146,40.38959240702516,44.55500282702592,43.96051998748044,39.69729840756867,35.395861308619246,29.827122510970405,23.32471402479501,19.47436859836026,18.495766804111895,15.607943028285693,9.155213457689374,2.755694019800211,-2.120135735576261,-7.207404491994357,-12.609732712692352,-19.06438062435448,-27.894829417572847,-35.744810210039155,-40.9204897419045,-46.264979673813556,-52.41907619631027,-59.19613397153662,-68.2191264396167,-78.97436545462949,-79.5362087646052,-52.03068726448279,-3.423729064684913,32.38577193693487,37.56019483132138,28.725319207065635,51.0,121.0,87.0
-39.11234762730877,-45.5411591255768,-54.162980302855686,-64.15672582818894,-72.48729883273288,-82.42328370223775,-97.26287255306924,-101.12640785526543,-71.91707159511466,-19.521470096486283,21.275079880568285,33.78992982392879,29.68342839761863,27.43892754585826,34.403463790584304,44.39405620193402,47.46926583932965,43.96694766821851,42.72061076058867,46.496899491435876,50.626146407254176,52.56565577265508,50.65615390238589,44.003816005574315,36.015926408204194,28.444754947680934,20.560861143769394,14.404041629835525,10.784548321606461,6.707732490467041,1.1866303827467821,-5.146962539792408,-12.885663150972645,-20.497887631905854,-24.851878576739864,-28.385269958579595,-36.486158390317485,-47.38722004522047,-56.5449116692903,-65.36088643814475,-76.70440243851156,-86.20371286693715,-78.09353976090684,-42.57542416234012,2.9998082270019837,30.05286894317011,32.56314779683185,26.59499021153231,25.1109988616006,29.941798210640222,35.94369866160901,37.60333302727516,36.55615914480308,37.09972690560966,38.988926976403036,38.95722328017902,36.27735862478223,32.71868875427885,28.66577951185474,23.712513408354777,17.708949195383546,9.952200435628738,0.9962779977249703,-6.414663396323416,-10.74671601201157,-12.203276441703386,-15.147913192620745,-23.67331365502371,-33.66295662974266,-39.960755513187564,-44.610498865788166,-50.51982697469566,-58.58692480933082,-71.5732911688695,-83.59982962527951,-73.29838841800056,-32.67441288954571,12.023860550535227,32.49842160677784,30.64164151663394,26.50786871500693,32.576725013120424,44.91380567513233,51.52206794686413,47.25181941361269,39.7571347815294,37.507734478240216,39.50826483963056,42.192801913655146,42.97170229664141,39.15987056373549,31.853055893132748,25.734968150629772,22.19457466142089,17.3449349584121,8.873085595978102,2.180793246303158,-0.8595652337034496,-5.9275675690971115,-14.887447795903114,-23.40506220834899,-28.944949255535462,-34.75805526959296,-43.31456637224773,-52.833338737630456,-60.91828696228972,-67.62293381514341,-76.59556778167844,-88.65022546767979,-92.03907332776178,-68.37039768151159,-22.070194220451352,16.84117908744091,30.09418541142417,27.3764219497895,26.993216588052494,35.06251279907434,44.59880190811845,48.049558322791576,45.70704459941223,42.570753015380554,42.16697316905858,44.254560335492016,46.22617927436933,45.76320842517471,42.72740693226788,38.77383910534023,34.93468039199311,29.900442700826794,22.79615838022789,15.40863931307717,9.59244090762699,4.427562236394685,-0.6666689840178428,-5.910825806089862,-12.811106486988093,-22.0942683630154,-31.795188072979492,-38.83134594050049,-44.13695257362572,-50.924359695989594,-57.260636330495544,-61.54038713413594,-68.63625974137422,-82.43585646524517,-93.33213010171482,-80.84215703095532,-39.97933424502641,3.57029994261135,25.000198293625107,27.40318878557166,27.233752391329517,33.46299203829028,44.2580320776108,51.52608736991154,49.94262856048035,42.85006058090502,38.77605577038107,41.71128048061041,45.01792844489156,42.86538228181519,38.44746224121741,33.99784176020747,27.9021193343858,21.806044998520882,19.06192098539777,18.06601266305158,13.997500256085752,7.134991593377683,1.254845016580041,-3.5148950659309683,-8.764625386237247,-14.256055665477303,-21.431344607421966,-30.466856444884606,-37.410333190522856,-42.34938910665553,-47.99879348231069,-54.26723956093949,-61.48731543489826,-71.38266397863418,-81.07612772170361,-74.9006433995361,-38.870822596626645,9.716895494813315,36.81551804188685,35.22717081968848,27.163770962576756,29.834056617255868,38.31348324443915,40.51655480364134,35.18669954069083,31.231698893610403,34.32971800083969,39.36742912249527,40.14399483746053,36.99244714372669,31.731172140543382,25.55278961461474,20.259010723145465,16.027306803925935,10.963998856490875,5.3657307734484485,0.8035193706720193,-3.0238695802653934,-9.60917498775337,-19.01310122781279,-25.738546055244825,-29.48029764239109,-34.12940521451401,-38.497855857365074,-41.74135486222501,-46.58272883693946,-52.633667580372475,-60.77061374719219,-74.54078729146447,-84.03573620826673,-66.8927192415684,-19.916925705179672,26.305718668260205,44.337420705401975,40.82821746728504,36.27341618659339,39.53408770982037,46.842556330379495,50.06429820586669,45.943926564610784,39.555904725959955,36.72242743918422,37.737091283863094,40.47251549761375,41.545928376956766,38.466651988755245,32.99820891516374,28.154211946990525,24.180833780494588,18.71317622752285,11.396428477276839,5.024746021003174,1.2896083124563276,-1.7317959044961473,-5.395563489384232,-10.046704223935183,-17.636897248760285,-26.87028154643199,-34.364989262113774,-41.33826894738639,-48.62806097366397,-53.561391612664366,-57.552578672275146,51.0,121.0,87.0
-1.4022724267460038,-8.019420820994302,-11.365644679236183,-12.613556018856814,-17.058919046434394,-26.741763740433665,-35.89925337355775,-41.273965196247545,-46.16287779168617,-52.52720950550305,-61.765905591608046,-75.9052052846443,-83.89275540977337,-64.07047652619232,-18.528651558633754,20.965700810668167,33.459123253511464,28.825636020388465,27.09751362137297,36.003485278149604,47.885731333541244,51.27010142397327,44.89851279635415,38.44803448666582,37.842322482035236,40.32096330681813,42.747856398296214,42.40802209043005,37.209744914927995,29.79252193157315,24.53886179914566,21.164414708808398,15.140111797056337,6.472938345383533,1.1224833966385641,-1.8761759274834153,-8.243498385538002,-17.61744920346473,-25.252356349654722,-30.39427798839561,-36.9755903779442,-46.086659162322505,-55.38988319698708,-62.88143358532622,-69.80355505715023,-79.97819981433351,-91.41586433473273,-88.46736111611054,-56.21288543786566,-8.713223980168996,23.321460706654236,30.067812157336398,26.429620654467765,28.608074819535343,38.10502984096669,46.37126335199445,47.769323762461994,44.663872588007905,42.11167536202347,42.610140803982695,44.96399196275499,46.39833117891603,45.09586185653529,41.59449523113011,37.673278453262974,33.68613446708629,28.029585441371033,20.565437306567695,13.564875643330055,8.096633498391148,2.935693834650917,-2.1173937155375357,-7.66113614183521,-15.281339616008397,-25.00484823915799,-34.18108185140338,-40.35423286607385,-45.92556314530683,-52.97276099487653,-58.60931853034209,-62.98611075603697,-72.03179333233113,-86.72743021849183,-92.93739819520964,-71.27892622138292,-26.164494947689324,12.435125778632154,26.9284863441304,26.992790632394343,28.2813655631258,36.41107218174353,47.09739578156557,51.9944794759845,48.11770477824799,40.99525654176095,39.028304784243616,43.055287828866625,44.9422556217005,41.599336800221856,37.232164691164385,32.428882355822786,25.96107898021168,20.60748362982066,18.82613169505614,17.333778904719853,12.124274110339622,5.233334813015143,-0.14011229076451354,-4.974741733377479,-10.319906263850086,-16.048979421425276,-23.9994168834658,-32.82141551926392,-38.888210317343905,-43.8684200799792,-49.776474712994286,-56.18133269581702,-64.02281376788613,-74.63431447412701,-81.86982084455202,-67.51925115956676,-24.520889595461238,20.841900279847124,38.62428922794891,32.40826406572647,26.673167510450135,32.29382958916986,39.930538734448355,39.45411947081539,33.462828897473116,31.448826323737435,35.97042241024167,40.11782752468921,39.533688871326305,35.639796980839336,29.971292166586498,23.85829944853873,19.011950909729833,14.694774692690295,9.328789208641739,3.8894473498817206,-0.26233330037143576,-4.490344068009287,-12.247829177919757,-21.42831507744012,-26.91977619891311,-30.674048363910515,-35.55810886150049,-39.438964081289484,-42.90719484306697,-48.28755462499467,-54.557645766613355,-64.21609662066163,-78.66995622891228,-82.64643987971458,-55.5223752266924,-4.753019262569533,34.75493981342074,44.5727741363705,38.92490446547399,36.402358210583316,41.5886762646725,48.5020328396514,49.531427876998336,43.992481233621426,38.259603695611794,36.703879730454894,38.46668028518307,41.130464551013,41.08010911316254,36.97905982363379,31.44978311903139,27.00292267957854,22.849601875934045,16.698447697642823,9.317435416547337,3.7063885047623586,0.4615561257746297,-2.738115888105246,-6.559041112408783,-11.88766423693114,-20.32359290929363,-29.258064639862933,-36.300031062012714,-43.52266364378677,-50.35497182524401,-54.61762530895009,-59.10300738910048,-65.7779948984616,-72.10254900010042,-79.97059240399689,-90.85951644179639,-87.00001399405424,-48.25483509250547,7.6776657516341364,39.93453171463683,38.443007133433916,30.920505355207016,37.897643649166554,51.2066732138484,55.93734888248097,51.39452570986343,45.732452712752654,44.014940569874824,45.69786572329661,47.44620242556072,48.11850370728034,46.997072413776,42.95485840328326,37.46617959492377,32.04634233730346,26.014204678975013,20.00361531229058,15.416566938254084,12.09572771376243,7.894106073977961,1.5848769064889858,-5.261732452435634,-12.302679319982921,-20.014098781929434,-27.12383670257554,-33.42441023205094,-40.92224798569393,-49.98653536930444,-58.4444700155231,-65.09024397811913,-70.33083984226188,-77.50476523423723,-89.77935320565034,-99.35370961638729,-87.63909696830872,-47.02679691711213,0.8337943772646698,28.840668824510832,34.74213820056645,34.90920836517613,40.15145801870041,47.213569126014065,50.66019810224162,50.293389912817396,48.990516371473376,48.942159502803996,50.613620105460804,52.74654164848824,51.98047332801535,46.00076459312439,37.93010627683193,31.78028298946509,27.37716294420933,23.12613235133648,51.0,121.0,87.0
44.23599696534266,40.4367245471602,36.585943583079114,32.284741087577245,25.987610808020655,18.383085349169132,11.872071121548323,6.609846124321711,1.4587264278399228,-3.599204689580377,-9.596716406234266,-17.947260133857007,-27.87329386604176,-36.271970646566366,-41.82814347911061,-47.8873212020737,-54.87657742596578,-59.800352928725225,-64.85342324315356,-76.01410348901804,-90.36941832495354,-90.03810866510175,-59.542413677178814,-13.00464542495056,19.072357606371213,27.628261437864918,26.765422691043554,29.96277759821166,39.60631768702561,49.41094458722017,51.66863680288208,45.99807074373629,39.625537196635676,39.86027566340884,44.1725933232169,44.36585350815982,40.29112607736698,35.99431902808948,30.682815926422254,24.11396315435206,19.755912394932487,18.6221274894229,16.237882587380966,10.102722828589307,3.497860765406141,-1.4931723462746935,-6.493997046021877,-11.879368993174682,-18.055797245092574,-26.667660825795874,-34.890204167282924,-40.28045326740751,-45.488161593959326,-51.57970177580463,-58.208422642301585,-66.83282892211012,-77.71453229591137,-80.79877229131196,-57.46704270228036,-9.943503021870319,29.39195428825938,38.275730559327805,29.75000268443991,27.28535076427787,34.91826875080496,40.76854943810168,37.8801806826908,32.125797975585925,32.29178810323742,37.549637324933215,40.42611418578982,38.65603988957585,34.140512078749225,28.16597616050844,22.29104419898114,17.817877204027535,13.249802571108162,7.686285513191648,2.5389617699695095,-1.3087428649209998,-6.299820299296111,-15.036863446296623,-23.466152926026677,-27.951770665032218,-32.01436193779326,-36.871628697212984,-40.32738672869392,-44.27507763028919,-50.02917684087207,-56.75313991266988,-68.19958697147509,-81.9871341809193,-78.44608206485952,-41.949011416601,9.330763102332526,40.4651926320692,43.510249868769996,37.39323258349611,37.24370284637142,43.79834616237784,49.618583844729734,48.394014682364784,42.045016627042976,37.35502990956836,36.96276828997481,39.28688764986314,41.544276012957106,40.244451537947604,35.374468864729415,30.017191776582827,25.890095077446816,21.324161531662607,14.564351675600259,7.404595769675893,2.6128252714584126,-0.3839976886587425,-3.7926817724093627,-7.834632422578194,-14.027817837533064,-23.05182369730312,-31.441978199690542,-38.2787494558893,-45.693749748414646,-51.817288526791245,-55.699153660092534,-60.88497766254203,-67.71788303011218,-73.95797772342172,-83.1479851740981,-92.50997944860845,-79.51376108480298,-32.00813295692071,20.81938391336717,42.15461281763962,35.43811843835559,31.352537917417173,41.8945087184803,53.80879378780827,55.23963930997058,49.54894940372432,44.745388778134945,44.30655839078228,46.29787495061627,47.757086588962,48.047518882336156,46.125834495266986,41.39670109431906,35.91085066024205,30.381132952404748,24.202857798931174,18.49660025891146,14.393058099576821,11.086357844761396,6.246695943220892,-0.40833541181856825,-7.229439516170563,-14.49356780719522,-22.193818065267575,-28.957374442724454,-35.38573848584418,-43.45331289218019,-52.589160452808756,-60.55588746685106,-66.6825086521016,-71.96827760507821,-80.58857682753148,-93.54451582244235,-98.96991202150546,-78.44636551279372,-32.46949818358615,11.619335074533794,32.244434944588626,34.60756477916961,35.84965715264083,42.320244091551956,48.692147779088565,50.8366859299517,49.88308751580284,48.79815004824244,49.265304752832535,51.29416368191866,53.00291070226638,50.75197276993206,43.6508429443634,35.88035288028978,30.42583236567001,26.13343194683752,22.09169138001469,20.275006903664202,19.013064085534868,13.836044644636084,5.396293379201367,-2.7328155013328517,-7.843960303992842,-11.925044444113402,-19.58135166893209,-30.476916745864166,-39.449234225307684,-44.54197031745007,-49.290642909278404,-56.2900288181661,-62.99823366616463,-66.7185309104001,-72.83826605583789,-85.5001165113624,-88.86233955872238,-61.02752120568403,-10.642289215416762,28.701669161248365,40.23468940343505,36.21711413637592,34.19595741326118,38.58084841693799,44.56652474672088,46.20208828021464,42.43939437960501,39.53159749188947,42.70891339781076,48.08612936994028,48.19951771391212,42.645363273328186,35.628523577301856,28.679435962317402,21.55450799877167,14.823337382170568,10.054217446443078,6.7132582842692266,1.2522051434649233,-6.974908359116821,-14.333334656596247,-19.20266294310872,-24.765223307162827,-31.885468169465298,-38.15292313714842,-44.517476416448595,-51.592638501359424,-57.58447716754466,-67.22342108977925,-85.31908555052141,-98.40192151792442,-81.27178065508916,-31.71043168946922,20.31940222549575,45.98921796927132,44.5363884358897,35.14723772148758,34.768480563801305,45.24286612140832,53.92728558747264,52.206257556718114,51.0,121.0,87.0
27.759822457693268,28.857822769357337,37.34715235442283,40.777924078424995,36.04485756530937,31.361033184093287,33.61462804670509,38.87772352715919,40.31849130047871,37.56058281431223,32.5157712241817,26.36571819824699,20.868820087043527,16.60774560765968,11.703105280231139,6.08125357285835,1.3231076590058855,-2.440481689762471,-8.484222971287846,-17.798753508737928,-25.104015217589104,-28.977600753011412,-33.45474298708118,-38.02235480665079,-41.26554743655394,-45.82345705497383,-51.79710031655169,-59.37893817235468,-72.52553956201831,-83.84754238046136,-71.2249510733877,-27.00097612002515,21.504680311143,43.62775543620841,41.737246279314206,36.46358810656681,38.69863389114952,45.939165886913806,50.08291431334108,46.79073671085327,40.27486415753156,36.83888325012138,37.449383400513774,40.11515460038228,41.63094063544903,39.088001811583126,33.740263586041884,28.71453907084074,24.742697100857153,19.58432171186428,12.389164850611976,5.717517812144193,1.6837691280683917,-1.2897668648233231,-4.881004665481728,-9.293255427644539,-16.446074190012123,-25.70161374995625,-33.46510834575733,-40.35064691471668,-47.74753072281212,-53.049157771059086,-56.91947115766717,-62.83549348789896,-69.54416499469754,-76.09109358057037,-86.52037802872354,-92.23569240209368,-68.8036099538371,-15.254682858695254,31.007052173096664,41.82126774959161,32.82337550990297,33.199181872198594,45.98024640174138,55.40985986861673,53.926143327075785,47.812173662421344,44.16313547817521,44.80673679529889,46.829672138774356,47.97874770164729,47.792082115626776,44.99262204679573,39.791130746891696,34.36391955518709,28.643640535600547,22.431986406648562,17.13729558571552,13.450035766411986,9.932280856927987,4.42896537832087,-2.393389351549934,-9.238594171231657,-16.735331308277885,-24.278019423160124,-30.74902819843433,-37.5064900570462,-46.08849278094469,-55.07625962090062,-62.51032366974464,-68.17270670751076,-73.90072506896901,-84.13105172598759,-96.7460767094626,-96.28557296864358,-66.90432106299066,-18.12690799382239,20.24001644871883,34.038820723767266,34.474402455535625,37.31472992091272,44.45997688162509,49.77858256636211,50.74406288624546,49.47266944594513,48.74562035010687,49.73086975774816,51.964007743338364,52.91065233492613,49.07409936459955,41.25840935586495,34.05743430196158,29.16725790601,24.877994699660288,21.27513949985528,20.094616293503503,18.000016956997325,11.590521346590528,2.8480809728276255,-4.545260562353394,-8.906549269987448,-13.64335920789547,-22.59356396454008,-33.47952851617478,-41.230307635944285,-45.750231768123875,-51.09974715606466,-58.46556803622731,-64.31798013079083,-67.8337859129262,-76.07559750420486,-88.62106292108255,-84.43605552961164,-47.42105269826443,3.2228285685445273,34.76709576188207,39.73837869498865,34.95805755573421,34.92810395910009,40.43868885950652,45.67882538759055,45.50053776367402,41.152303670905596,39.81153516887539,44.41350766621707,48.852944629211166,46.994070179131754,40.6246145972985,33.62729989149348,26.637015507049377,19.508245986677036,13.18828003235106,9.077958166064695,5.491035011171028,-0.9592690839002571,-9.364007610230063,-15.913267748612864,-20.580822208519262,-26.778572853760203,-33.82548482103969,-39.869183570412,-46.59143748406306,-53.402480778600015,-59.606622959202966,-71.72773368340641,-90.7641661584964,-97.3800565525091,-69.3804369254718,-15.279684070329417,31.070944845163183,47.677200196192835,41.694839039966205,33.681244060392494,37.0689329714208,48.58732537697114,54.46880102911872,50.38201679112902,44.38553860548115,42.56506806946931,43.561056360281654,44.79336307264435,43.208215342557715,36.27268501243742,27.704306767210454,22.416943811323677,19.40783811126768,15.659136975165849,10.891193816255148,5.996904226776861,0.8864497477470733,-5.645484684832028,-13.683072232633123,-21.231181301158525,-28.247991160826306,-36.53204847248257,-46.27956222829279,-56.50624877778886,-66.32271988827215,-76.02123491655418,-87.78383810904772,-102.11427536161933,-109.83718427429855,-92.99833558785224,-46.455637401566186,4.591857919746823,32.850387680339765,39.10353986943107,39.225541539599035,43.35149198862616,52.83320475041747,61.28576697726609,61.7658498718634,57.27173596084359,55.81053095602478,57.45254993516172,57.23483749489393,53.84065513472331,49.01975566968744,42.98992658160839,34.696349478115025,25.05281474433759,16.34891012486748,10.724941435543759,8.446561897694641,7.079637945679367,3.8597570750958323,-2.9161289176894187,-11.017606592646253,-17.19045198236345,-24.631419263192946,-35.97352521551515,-46.22567722815176,-53.22081622612271,-61.63182106327036,-71.91269247366009,-82.42150454320951,-96.51931680731863,-110.17805832769021,-102.67500175471932,51.0,121.0,87.0
-58.35766045939392,-64.85403595521328,-71.29321894563905,-78.63992681944005,-89.65736958175478,-89.35277492236229,-55.257827373876026,0.8128917150731245,37.88276277154396,39.74003576757299,31.214210640029346,36.217104632883554,49.71000262392566,55.989101174023936,52.23684054005193,46.31468340376213,43.97890887289391,45.41052093136921,47.27279219209598,48.10153465776524,47.30744990836331,43.637075095616225,38.19290269862251,32.7901729046434,26.85071407283406,20.743908082583506,15.927505876843922,12.530476562003964,8.5856756480711,2.497035619387558,-4.358953378349231,-11.317347761499954,-18.986426189200376,-26.25051105033323,-32.562435449134554,-39.804737669330464,-48.76138481195851,-57.41767564433637,-64.31056730672853,-69.63527437501398,-76.2543021273648,-87.97592319385382,-98.87873689199431,-90.99231873229483,-53.57237479467949,-4.792243976139561,26.62188063029847,34.68954516341496,34.660463126237765,39.19257687447175,46.41144456772216,50.46813063734903,50.463389012583924,49.1205472091048,48.84446781023963,50.31489078865396,52.53985395531773,52.384047351262225,47.03206040139956,38.94443049550844,32.454580900159286,27.94311062711968,23.65727393926424,20.71131424781682,19.836742388840026,16.58084746572528,9.14352182435936,0.4217261246384489,-6.061823379032003,-9.995253002767129,-15.763535772876537,-25.79103167369808,-36.17820487782557,-42.70802825996863,-47.05285269205854,-53.11599842225213,-60.49946454183063,-65.3671486189796,-69.38824789075771,-79.84963490376603,-90.32543875606594,-76.97941192338243,-32.574186136280304,15.285487500160777,38.43439940898652,38.46262552409915,34.20200508862492,36.1604198667135,42.26976813105267,46.29367665987362,44.40044696210642,40.14981695532641,40.65981806401052,46.10514274172553,49.025332693931276,45.4011773448037,38.58286237395926,31.627003750805557,24.576441491995638,17.52068782849081,11.763243781373124,8.16355643695394,3.992029642527869,-3.3578026325893426,-11.567255112267786,-17.302254462225157,-22.129564834466372,-28.871487226635438,-35.64313006472205,-41.667725666652295,-48.684302727225784,-55.087732043469444,-62.155069495616296,-76.97302185041877,-95.21430564180294,-93.22646596937143,-55.11408674714051,0.40416522421823775,39.11803544526955,47.3944247794091,38.739680579683125,33.284667818392016,40.136502579768546,51.3783375166914,54.080045067390046,48.42324981024184,43.387189788128666,42.706500850857765,43.9825630759257,44.81346626917126,41.71613962195775,33.6767255288779,25.76276125770123,21.47955570800466,18.466480143220114,14.343407697150928,9.465537478479712,4.585083541492308,-0.8022701895891364,-7.883016220184187,-15.99137743239151,-23.224528401296237,-30.465140353483278,-39.23219432292308,-49.23495241536879,-59.40410297707508,-69.07558919227371,-79.08317023408726,-91.82967704552014,-105.74304756389313,-108.24867834058087,-81.99958622308057,-30.59767093734153,15.639327463183928,36.24495269324532,39.1407302268438,39.78952454818775,45.69541891395619,55.7895191748295,62.342502929819815,60.580977574555355,56.33251208437879,56.19102593630827,57.74121198679497,56.51655467022262,52.52856092983083,47.46021538745496,40.83287458957968,31.956805692491734,22.334388255028465,14.339420660816721,9.794394338685183,8.091514378793171,6.4489863344754195,2.270822184391124,-5.3367092460268974,-12.984846481500215,-18.963703678060764,-27.612743257349564,-39.330878024599016,-48.41324513874765,-55.338631040026314,-64.54991020109873,-74.85227814811046,-85.97716595300517,-101.18914289472254,-111.2409490137081,-93.93283154194835,-45.56569345903836,3.987860234391413,27.17124548816991,28.707044888357586,29.06097572051522,37.78844931188174,49.07355986643398,54.205544004110216,53.263673532505955,51.947709064237124,53.46336171117798,55.83324497493906,56.17924655138457,54.979510745696786,52.654879021790926,48.13268363004553,42.47918367030193,36.5987783673698,28.126975749760405,18.21899570972725,11.816035410421398,8.879069333909426,4.632584942857323,-3.218261611015266,-13.85793494918862,-25.851621693590786,-36.60926090154797,-44.86095331904868,-53.45591424863682,-64.06388862743731,-72.75083866532623,-80.17243763534522,-94.55941797671812,-112.28678417208663,-108.4600106560811,-68.2215810944725,-15.142922257560636,17.208851231361006,23.819413360926948,22.23699377973042,27.696118361152575,40.82066012148963,50.46728525058264,49.51544664764052,44.90513404039346,45.564147655410885,51.42707712368653,55.70377637483853,54.66080225371653,50.300330494396746,45.16140514588332,41.105343526778775,38.95881889698055,36.23365515380953,29.393390904263114,19.67925124408228,11.142083222835756,5.790572495446978,1.6492282679944317,-3.6373884287052225,-10.505986896120925,-18.604020709763354,51.0,121.0,87.0
