7.373878706352601,-1676.8382109276258,-2139.163816871,-1793.3864361929384,-1509.8742575906288,-1435.2960694691128,-1349.7193949404023,-1196.697193780029,-1045.924599197513,-923.6748923445045,-812.0951612887836,-703.140695717632,-600.8192348202338,-505.99030527013537,-416.99677431493313,-334.06632016178617,-256.56042168488466,-183.70606155721484,-118.19936382137949,-61.91897217121032,-13.713506862841971,27.703716925931595,62.687738906981124,90.28961359318906,109.62241046924841,127.95044757160524,161.01675666494017,214.04651134705685,269.8782650284056,309.7643563083081,330.8422423172884,340.8857954252077,347.3457391152904,350.6265447645354,348.29300523762623,341.3054830580445,330.41489095133585,316.66745966156134,302.25480989882146,285.94705350284863,264.14114559641354,235.54148909259018,204.13816667278908,176.16969600091596,149.97957904469507,120.32262999750046,89.59271137789167,60.42957221097747,31.660602364516066,5.413705247423955,-17.891727702459097,-42.14390060592634,-69.22999033097433,-96.5004261696274,-121.04934750522034,-144.57420766102692,-169.0787574712708,-183.2298967010079,-168.84130004529385,-131.8084869806308,-100.28411014846665,-88.46692227998425,-86.00117357351145,-79.23876749670282,-67.39919487077681,-56.37038506111036,-48.828823714378636,-44.84593249884706,-41.52033719286046,-32.81058609209429,-20.334820059051445,-12.397547145699676,-11.66817432623325,-12.786826151849105,-11.648196165737254,-9.102993381007327,-8.589592873174857,-11.119818013529063,-13.929441699065553,-16.310239354684366,-19.926892632458433,-24.51697456397486,-29.154887269983465,-33.71333955834752,-36.498048547729056,-37.318781168722,-40.966369314706036,-49.410932103493806,-60.77777214742983,-75.11261500722728,-85.32495974219336,-72.64406445496957,-32.837339789009654,9.828052960285142,32.60667131549294,40.51909450424626,49.974548189751125,64.18439226961291,75.42287874363454,79.37579810456484,78.98099830480554,79.63774981912891,83.7813104852744,88.98711264350023,89.99915448061518,85.49942003166768,78.96735968817416,71.11749860671793,60.59430867716236,48.42970518542272,36.338514549031416,26.088091478781926,20.153513212387804,16.588855030467187,9.192858252798858,-2.7774303000447405,-13.567838373381193,-22.214846036726865,-32.303940859780205,-43.31180295084407,-52.64751184926336,-61.210255179479994,-71.89614707257239,-87.66231447584484,-107.7548757855287,-118.22473685631753,-100.69368163966297,-60.8977360446101,-24.104330029854857,-5.033301378984353,2.1686111549412113,9.046094928019611,18.320110130860872,26.71166910763668,31.594034679329507,33.86563688427256,35.52544862722097,36.58466076720911,38.514955222509805,41.83913570234107,42.84435611939599,39.51712164729448,35.5988752553511,33.31674642584301,29.680530701715934,22.877496511565468,15.260350286386686,10.419769274824358,8.061867463555117,3.7821164149056057,-4.201772577830175,-14.367513831541753,-24.192690938414266,-31.25936189313262,-34.619221122098715,-37.44727689990447,-45.20559924646179,-57.574041793978175,-71.04345727578614,-83.01760606315298,-82.71983577241087,-59.42321891296946,-22.780313968236012,7.375567296279379,22.602513794275055,26.581371788520414,27.8117141787946,33.755094061165146,42.46197633273118,46.939131934178576,46.099009288028256,45.76025720553087,50.611563443826945,57.06208501702724,59.605519390522176,57.921908351812746,51.40571661087099,40.28192462460791,30.610929351320372,24.437028018158546,18.196300278116514,10.627155481132577,3.8961221732219546,-1.3692004794668617,-8.036937521559413,-19.33504066933545,-33.467856138102526,-44.09271585202784,-49.41571303657925,-54.58753768551729,-64.30098833751829,-79.0038066873271,-95.97170285769987,-110.3024298715882,-110.43654665156544,-85.48172806373319,-44.90437761663254,-10.41342995564315,8.57788236388388,17.608294817159095,25.61854878060374,38.165202902519134,51.76316624381833,57.372491535023954,55.5770141949246,54.924714119517134,57.639295087383765,60.27450714454533,62.32113484448992,64.14982366817787,61.20200977345588,52.43741779893168,43.53102962913156,38.438758066366546,36.22438200729563,32.65683342307382,25.0510764948726,15.236780836910679,5.746919143804983,-3.770228567965229,-14.772071721464323,-25.726446641598,-34.742637481757264,-42.464281120333496,-49.860133139774746,-57.633935542366984,-67.09141380864654,-79.18728097040649,-93.84656179031285,-110.52162168743524,-119.14279933798646,-101.79301211151105,-60.375160938966495,-20.31030999012149,1.2476716119813251,9.548356282619928,17.624532393609982,30.134430702791285,42.778034986992544,50.50439448926842,51.85340705735617,50.56687873479128,52.91185198436187,60.48547184504207,68.03367016969989,68.85525630955158,62.57850287759817,54.28251511419577,47.063278032229675,41.654994675726584,50.0,113.0,75.0
-84.78269636781887,-76.08801191745862,-63.91526426353043,-53.81835333659815,-47.33533173715949,-44.10027262696615,-39.7110984631719,-29.24553796564347,-17.261892226116835,-11.596625026244894,-12.08205159136971,-12.734147880160227,-10.920769638301756,-8.607723793061488,-9.095758208698788,-12.022749328307652,-14.583681743650255,-17.190756418515843,-21.212799673474787,-25.858803883376996,-30.509785359228868,-34.80856166965207,-36.78267120417108,-37.86432373784566,-42.99306474461336,-52.430730398358534,-64.63918533125488,-79.22569283653169,-84.76706654269262,-63.279225038750646,-19.39179657089521,18.764371314728788,35.626931130496054,42.60359295898973,53.86709153825521,68.07758300226773,77.29673725452362,79.45873025946517,78.87014153970269,80.4888387835864,85.40063387631854,89.90546350241313,89.13921803878333,83.69091057936085,76.91410220823869,68.35632676770807,57.15720976474218,44.872793009748605,33.06747614042109,23.88012817839368,19.142476550450244,15.06483957830748,5.986961940625969,-6.2315886329377275,-16.11978986608263,-24.893913939611387,-35.53418401036594,-46.220288161148375,-55.07734976305133,-63.94992938202133,-75.81419282119492,-93.32828885987699,-112.74742924739991,-116.4126289128784,-90.46061626165937,-48.906528135424374,-16.69784635296628,-2.3286054020735945,3.871326158018182,11.584845186976787,21.00027870587004,28.51733085889709,32.39883679272258,34.38691309566154,35.87853023261901,36.95181384459645,39.43303551111982,42.57075821203524,42.23977857488191,38.23517124184461,34.84197912949063,32.5681576096104,28.00057753667798,20.58764636645867,13.470048642399851,9.656314044655158,7.193713311133342,1.8223722169145369,-7.015358480945021,-17.362661742663267,-26.60033542166277,-32.577565959888126,-35.21950474148233,-39.04313083578883,-48.492284456418844,-61.42914612189827,-74.91402526273188,-84.89189390833005,-78.37651003720188,-49.28082774464967,-12.719708074524524,13.294857892125538,24.5862441846204,26.79203242397738,28.912297171001196,36.31966935877434,44.401274050330294,47.07586230039429,45.623787130380904,46.62582788626232,52.630377872505456,58.297531415821986,59.51053376570666,56.63401582572337,48.46449892330983,37.07480281116247,28.595660216886266,22.786569476217384,16.081732966433634,8.494899387553764,2.2984411622540137,-2.970856250849951,-10.771216840225025,-23.380188269377317,-37.14945328932016,-46.01882914131215,-50.65639806757121,-56.81690474335311,-68.1280193781994,-83.82177928091153,-100.73259515336736,-112.48371722313651,-105.86207656467958,-74.3938759013445,-33.5238266282501,-3.401347916200869,11.801784399271359,19.672517308190404,28.71824338569366,42.40635724221409,54.46243240326628,57.242237496487036,54.985135951555,55.489940671583035,58.53575811314055,60.835585349539826,63.00261925577482,64.00670768585424,59.0751871923504,49.61370221555833,41.618173885624095,37.65936007980386,35.530148223350125,30.867737732989816,22.295390020525108,12.412636918253261,3.088848695614792,-6.7949616235392325,-18.074953073082625,-28.533632678990248,-37.05567282031161,-44.60393568840894,-52.02669268707921,-60.122889915640954,-70.31676043279124,-83.14507689259182,-98.60905070451682,-114.67164004667849,-117.32986879039568,-91.39295499081192,-47.47260120874465,-12.04898003284669,4.396378043184702,11.466698481929237,20.874544737104127,34.042879810418,45.66268273528256,51.49264547868655,51.45819493865436,50.66320307969555,54.68645175129764,63.00975263015269,69.14925875559439,67.57433067733048,60.176976751135456,52.04075507542129,45.28289690108114,40.548425383854585,38.291375211166454,36.1705748355408,31.10064424454224,24.3406695250439,17.161774736077366,8.698745420298662,-0.4560616901840433,-9.520218561992785,-19.635708798402888,-32.05433113170154,-45.06984560709698,-55.05621119488795,-62.115336514188094,-69.58168301465263,-79.26440249545252,-92.10636322300601,-106.07716673417843,-107.50925525163596,-81.88644408074875,-38.51905874675671,-2.65077078289013,13.42032365315597,16.171760635220657,18.12308666125187,26.817618137893657,38.04785283113933,41.80795692406415,38.1049960726647,38.26980066197552,49.07830255612497,62.11173888884222,63.937165867928314,55.83968561110342,50.07032284492414,49.78375630075533,47.20433691485426,38.0638892902578,27.04552366352702,18.20513044381234,10.410915705473396,3.7812502685378027,-0.5354728167223038,-5.307050935198797,-13.885513447088686,-26.370792092259848,-39.56132437602028,-49.93356961232118,-56.87491908495585,-62.84245805910256,-72.04907893074862,-88.00343423178947,-103.58914949954246,-98.28839190803245,-63.659254865965366,-21.085426686160343,5.231851094103615,13.515634663527539,17.066021809535037,24.901163767910994,35.543326053718104,44.493132552356506,48.5588421914136,50.0,113.0,75.0
-116.41715998405334,-111.89432867956694,-78.85162294503493,-37.826095529968626,-10.919535397995249,-0.2927160295267487,5.7774813250720065,14.285543420445203,23.508733707219783,29.989775025063935,33.05043470560931,34.88458680101307,36.17114481857615,37.459076398631886,40.43787826090997,42.97946002593661,41.28876952493311,37.038481604203014,34.21176827300989,31.601305475871747,26.057487095488867,18.319752408847506,11.996090904529632,9.025336976847262,6.047628237457196,-0.4404829444420068,-9.959318289110705,-20.261123672332477,-28.7268047548692,-33.578406533150805,-35.914557590208844,-41.169090258494464,-52.067805887161796,-65.32005282735224,-78.58293426143653,-85.34620807084889,-71.9689807668908,-38.50526691437481,-3.651888747298868,17.926281789119578,25.7897122290827,27.01300194021864,30.540122398869045,38.94659042984529,45.832143858000045,46.82591551150737,45.38394722128875,47.976960794792326,54.60390887557289,59.11844213877791,59.10367293691917,54.878424983032936,45.20846830196052,34.174753944076095,26.824510440517077,21.029971200813453,13.87438110445791,6.503644371418927,0.7991400215970742,-4.788256162414642,-13.953847582305858,-27.546210757300514,-40.364177332766985,-47.55520123197428,-52.04307325530296,-59.50939276182102,-72.3331425146167,-88.75442899274736,-105.12645596403324,-113.09780434819152,-99.02940176773777,-62.490637268159,-23.17376836561617,2.2891106851456353,14.414830754144544,21.86292579697859,32.281912055146094,46.530388616411365,56.28188416745573,56.66729533126324,54.69528431458984,56.28901482661334,59.32753374486725,61.39957584429424,63.6301013034669,63.31044946793897,56.535274055309515,46.9434349363845,40.07449502901604,37.05004282962848,34.60200060125976,28.718810412972722,19.439473666791518,9.659842100221628,0.3825058926875715,-9.966344552775677,-21.295335197488814,-31.16366274526109,-39.29023825698811,-46.73532584364341,-54.2413308630922,-62.79540491695212,-73.76788477607413,-87.31757864392051,-103.52200437474477,-117.73649014532516,-112.9180918454131,-79.36642584456598,-35.417121659049165,-5.519621557551616,6.755961543548234,13.663532439778837,24.483833818080154,37.808739652739185,48.038268411453124,51.95110066464657,50.99530797642002,51.20648042823326,56.865350561442625,65.3469297310391,69.55884000329297,65.78701638759182,57.74220682682008,49.922155060109205,43.6672164009173,39.67141475585683,37.851172782795715,35.036635731606616,29.199599247435696,22.344543623635694,14.862095324003427,6.061190674670999,-3.0676526273289686,-12.25285473127231,-22.987567055672265,-35.92307879635533,-48.37162162270917,-57.25590569212393,-64.10913957242109,-72.11249620583699,-82.61160991530495,-96.36522793127519,-108.65762153794044,-103.03855784030507,-70.09520080222208,-26.41630223849638,4.000490945491007,15.033088793022369,16.311520304675327,19.883022538853204,30.27508718187924,40.197331612878294,41.11393009628041,37.21384727757595,40.380876605716885,53.3066783386086,64.11634870694135,62.10084240243069,53.49136210323963,49.67664683528411,49.643800443670614,45.157829511076315,34.77530518463491,24.262266518721514,15.916296731987725,8.282295340956514,2.3404111432130748,-1.6748913473292493,-7.322290478941547,-17.178307905580233,-30.302402288105018,-42.93827608421494,-52.23351295218442,-58.53442636120836,-64.95647013093202,-75.96044010501356,-93.31056390226202,-105.11805337197053,-90.83230248025248,-50.80453149490439,-11.2712306803759,9.00728150582024,14.403773307129953,18.811717267132874,27.88655381234601,38.4902946463582,46.23263907442379,48.781925335615654,47.94926775549891,49.01254943753228,55.01703907524002,62.1148807590564,64.40835006102839,61.0062582009136,56.08412535923753,50.68507920392957,42.72643030428367,34.80739449010445,29.539904666736785,24.099999267453374,16.92072677723687,8.131707099049025,-0.3603396116157054,-6.638860348407539,-13.540969477285424,-23.502843036987255,-34.29642129387283,-42.82188942364261,-49.63724353317307,-58.45155191724174,-70.03765521557975,-81.16650114023705,-91.73857563213056,-105.5793728714974,-119.58899469280769,-116.98408466977664,-85.8902370038705,-41.86323076560301,-9.535905711515541,4.869598965753438,11.272310823529768,20.476143165028137,34.028990748751006,46.21517463922696,52.2970380904714,53.859916586987715,55.81669020129497,60.04875084864099,65.61640268185158,70.01366006868616,70.96364535867724,68.3013365502667,64.11290746156682,59.84194428749823,53.63519369228596,46.18404088586554,40.582238682247535,36.52759660339737,32.038109247002616,26.994192924672642,21.76274802447955,14.338335961026223,4.077566096125079,-5.925381135320666,-13.647538600894725,-21.75218087997135,-32.793490839140645,-45.61743880778387,-56.7316489447556,-64.68927146872615,50.0,113.0,75.0
-43.04069379199068,-48.852684898872596,-53.70208995929206,-62.68146875093545,-76.84302906157303,-93.71053801756949,-108.88055060335861,-111.77602137104793,-90.15472121328571,-50.388351049301754,-14.11779608087222,6.821357363850813,16.64668159064431,24.342800555382727,36.244189735138065,50.254146024131295,57.21398653393511,55.91471667663256,54.76929997628702,57.207540761010954,59.99845191293233,62.016045250542206,64.06184811357433,62.0049342881977,53.7526470503277,44.53358838790654,38.8827356437796,36.49555915551438,33.35452044529617,26.264246121530913,16.55771647793913,6.97234417643762,-2.427819727829443,-13.243827591135751,-24.36924403412233,-33.64226494910749,-41.47093992942535,-48.870762512843804,-56.53702819236985,-65.68280598257411,-77.4306006440196,-91.72855671088202,-108.3845836369341,-119.17222391011009,-105.87295631582198,-66.43246393201714,-24.70529749455079,-0.572358817501894,8.698323039056195,16.270759603880474,28.326068355635236,41.296155210225265,49.85823632554394,51.96353847682964,50.644718332423594,52.255273116482726,59.31311395813672,67.30578149170138,69.23793754370335,63.64449017260854,55.35380536679199,47.933896964521026,42.24138178379674,39.00466852473565,37.320591393249934,33.61051230836792,27.235786463888996,20.30387544989855,12.43476032905139,3.4033811643023837,-5.669209292618251,-15.11945992243597,-26.55004347603549,-39.75797782016479,-51.3357149260918,-59.27568990926199,-66.21729787495455,-74.84956252711866,-86.25547060446263,-100.61104870723648,-109.70073911398292,-96.07465847312456,-57.35571612618353,-15.568085151993822,8.92662786608647,15.821148673913212,16.692285334516672,22.304857172782675,33.70615343386416,41.492360521720876,39.95676313563243,36.98305667405037,43.42082442801775,57.35615270418064,64.90627038692199,59.676392043667796,51.65096970002997,49.65090905629115,49.075376606690995,42.557020877432585,31.514279364817114,21.691098329802486,13.657245658574357,6.300695053502873,1.0955675572638803,-2.962616923832665,-9.71184950684673,-20.767339940817795,-34.183514126992215,-46.01488774318811,-54.26373805488722,-60.19730111931893,-67.45591480830409,-80.50449835238362,-98.24336898260167,-104.30910276063314,-81.01246187760651,-38.06843655002041,-3.2379996822164507,11.474550468505223,15.28338943657535,21.009281709450132,31.0007148450171,41.18647346513962,47.509411704800726,48.69566895202724,47.81233237992718,50.28884254993382,57.24693200428638,63.45170133055048,63.86097584189007,59.57193174026665,54.68180557831584,48.653433393779174,40.21082609589058,33.0770841337513,28.125648364906944,22.20275150302139,14.521355165587552,5.4976512925003815,-2.359400746137832,-8.381154751228665,-16.12556621585841,-26.70790189085432,-37.05866553159846,-44.82335006111324,-51.83253123185297,-61.63117894863184,-73.42496442596476,-84.12164491217325,-95.28769956522223,-110.12965294175032,-121.4534807414881,-110.7798621926151,-73.2505291867983,-30.604895011492257,-3.798493127137171,6.9593211400255655,13.363069025849448,24.13461104497092,37.98110913517878,48.668404051804146,52.983542060781524,54.2247678267966,56.8109701707396,61.60933419062366,67.1342255199124,70.6960286281633,70.51182638955787,67.11940325425402,62.93614696043623,58.31868055954683,51.45548863448571,44.30631863590516,39.35146662261789,35.32751795387568,30.59074016722405,25.55210412872308,19.947890589867143,11.579085636732437,0.9910534126141541,-8.348038496714066,-15.775738568591732,-24.621660941435522,-36.45179779647865,-49.15583501609044,-59.27970371014455,-66.8539439360227,-76.33531339878589,-89.52329795745149,-104.03106697408477,-117.89786341553511,-124.59207486820542,-110.75970211078362,-72.31432208248361,-27.28474963888377,1.029163707457335,9.239594349251757,12.744723285163703,23.890103035454338,38.59928739400086,47.54713682972943,49.798629919154,51.08572125415492,55.836065879115345,62.0863946824932,65.60688958081198,65.49598427245971,63.347339004660974,60.5200116209874,56.29889572451515,50.25943118712652,44.16790463430168,38.95127240932189,33.21939284907862,26.173468449765377,17.92534140097383,10.596159779745886,4.853248029798231,-2.1332421954347343,-11.793331173867262,-22.962143301356537,-33.58096969773985,-41.41762481366644,-46.88293447869124,-54.89639536943008,-66.90427736205339,-76.56515780359604,-82.83935341060682,-93.39142803366572,-103.94259039717176,-94.58311207216404,-59.37264810357114,-17.615882890891225,10.791709459085142,22.841274296750456,26.544703247047877,31.042549454859298,38.765605033333706,44.566595835352665,46.056062809424496,46.47386719861358,49.725224799218,57.00089463276564,63.99983382495403,64.78690204465235,60.54418820942369,57.49318441533857,55.31774492722497,48.39646876211163,50.0,113.0,75.0
41.02998575503256,38.495633281494726,36.59386335257587,31.93617270778043,25.25532126294543,18.179085703550058,9.89714347273119,0.7561564439845422,-8.292183052455464,-18.163466507521736,-30.288592611904537,-43.447024086272634,-53.95512030853317,-61.218704335460444,-68.47948200104216,-77.81381314081426,-90.19911581788945,-104.51332271437745,-108.73386271158292,-86.81680524877667,-44.384546326197615,-6.321486773407002,12.309923961498678,16.114021754412118,17.534904763954344,25.296288925191206,36.80690317461786,41.89895042261416,38.65673629402931,37.63558458772484,47.183868333234926,60.81552476335466,64.4922444954412,57.03285149963163,50.42786482319049,49.75853030077285,47.93893466367887,39.54290162153629,28.40643653285112,19.280376975146307,11.42392327134995,4.522937668739149,-0.029242864382760393,-4.496159861231462,-12.482971723810316,-24.571950960748904,-37.91440635416447,-48.770921966360284,-56.084725082115675,-61.96377282271267,-70.46278632042021,-85.56345109639392,-102.2348227391922,-100.82722491262246,-69.40825321428834,-26.149748147330026,2.962920519003564,13.010333653772967,16.413745371826877,23.60028565498482,34.12812649603599,43.54208030706159,48.32730600934227,48.41478670852484,47.98827693179752,51.99011783492396,59.41122945772745,64.2567425187299,62.894782331525064,58.131774565555396,53.19413017029067,46.3664675280499,37.83360955666709,31.566043987288882,26.5990487499782,20.161583452692977,11.9867386953639,2.9736201443461936,-4.1650391234545285,-10.290498260180584,-18.980780798466245,-29.886790728403085,-39.5737378136932,-46.74435290353748,-54.29896006709536,-64.9980835657588,-76.67918318080501,-87.0956441455344,-99.21832005062663,-114.4902122183192,-121.38579496490132,-102.11101618735454,-60.20444704022342,-20.832175635327285,0.5224735056577918,8.7096182743532,15.897456498794764,28.08084864201072,41.64843275966671,50.53613873091889,53.408749335378204,54.732269846328684,58.001749641162995,63.24086821162664,68.48163310543792,71.04928531897788,69.77622594770703,65.88690047558089,61.748036528527805,56.5697779732036,49.24795201892052,42.64626003042048,38.198010547879804,34.04943904104352,29.122491788286055,24.084698137705328,17.878606036822404,8.60937769536553,-1.9693161310526501,-10.575037907684676,-18.041591641666027,-27.765721014006488,-40.19507279236636,-52.45396412740329,-61.5742571382739,-69.20372738632702,-79.83874297898689,-93.68233657771373,-108.21828776848024,-121.10587240208535,-123.25420169466018,-101.78273245881435,-58.77932964398289,-16.739925355303264,4.985075969559828,9.92627202422577,15.06262901969992,28.258077534697875,42.01597203764084,48.69082183451066,49.980809782442,52.06340641694867,57.70693938041414,63.49639778893565,65.90329217165149,64.99355800950289,62.594875420768275,59.50395733512967,54.694099849934005,48.40684791664174,42.615470574961584,37.40470588703777,31.33646565152234,23.858337151708273,15.601290008494816,8.86527263075605,3.09173743609405,-4.672225513936762,-14.94446056342086,-26.192927740949724,-36.20470166395452,-43.078323163505885,-48.70600195129151,-58.146398445742854,-70.22934335808303,-78.42766593434068,-85.20965276276011,-97.21339705338441,-104.08905393610435,-86.557207895322,-46.8491743940669,-7.577725347944963,15.709521873671806,24.314727604882624,27.46900635871456,33.09382939390223,40.88570489398703,45.35882226802579,46.093055294236216,46.98888391188888,51.49291209395267,59.36299039293068,65.00107669058988,63.79554164897638,59.35776281665605,57.029945420099175,53.960846306498674,45.40027190563801,34.7563878490729,27.731633476803164,23.553289306564846,18.497533307606414,10.351013952730185,-0.858900307705648,-12.851972190429299,-23.43828246989324,-33.658847909528546,-45.97899511951296,-59.11901380539392,-69.75982649766462,-78.82609138128763,-89.19432119721118,-102.0191349551133,-116.15689874155264,-122.92901461640044,-107.19058787017521,-67.48964657802831,-25.3027608323213,-2.0321946839799896,4.047523167173603,11.06780176394261,27.755130666047194,44.97359706452613,53.59054629431197,56.02048145334955,58.479471183286805,62.77211685541829,67.2986657283108,71.21606000784155,73.04766846616351,71.38677623792579,67.89947456689445,64.06716698456827,58.289893181297494,52.22460611247948,49.10737423441168,45.927444649920425,39.62415503592852,31.311039759735298,21.25526856626913,8.919153462511314,-2.362691030333876,-10.33666358615804,-18.79314578797565,-30.75076815826869,-43.701687132445855,-53.70360820822275,-61.53875173948187,-72.26085659691547,-85.21444569301984,-95.11975881335864,-105.7167355015307,-122.0647982193555,-130.2586098548746,-108.86469665019837,-62.55718863725392,-21.767242965443977,-4.199631348826272,0.7040768443063345,9.171329638369704,50.0,113.0,75.0
48.72334881058874,48.0795216685559,48.581946290132315,54.01400343369933,61.34382795907549,64.48984875143279,61.642213301892276,56.72450487244332,51.53145653486561,43.89538441660223,35.697242002513164,30.173282183393013,24.924282756624226,17.977237866090945,9.357253834597785,0.6390101218913705,-5.862268933065465,-12.448819729094339,-22.04418785546973,-32.9468513048636,-41.84603491749977,-48.69563116461678,-57.07216714786642,-68.44849845151657,-79.78048341383985,-90.2156422118674,-103.51031955946772,-118.22268218477889,-118.96504638644076,-91.3754112329288,-47.462997861140224,-12.714950477860667,3.7012052963283337,10.42297455915659,18.923111002358574,32.155095294452195,44.89234102648075,51.85246318389111,53.71899722279911,55.427469214884326,59.368168809018194,64.87880585820535,69.59444347920129,71.0666735767986,68.80779706896334,64.6646229076753,60.47723742523516,54.60249384626076,47.11649431306638,41.193154990021284,37.06090593053345,32.68914257611979,27.66166275151717,22.52964260929053,15.522060935145928,5.5166001791785435,-4.730524910411861,-12.68547404265886,-20.522179222441867,-31.15867273586894,-43.927883173331054,-55.454822595282764,-63.716437268012996,-71.8442006471414,-83.63167281272331,-97.88079361209444,-112.32322500331641,-123.4605154465692,-119.83771485092466,-90.84250197317309,-45.3503326301471,-8.069449624663369,7.442672227740595,10.703180959400694,18.17690607513483,32.664273058330274,44.766292703879934,49.356436774330014,50.25371226566904,53.38963998988612,59.58564514183525,64.5959599556091,65.91119081803345,64.3742371457076,61.802087197978366,58.33218960839754,52.95039244814335,46.6127104160067,41.1239758328753,35.775849342616205,29.33359655214489,21.456987692709937,13.430278129609059,7.235838738869528,1.140109574439031,-7.4328236183829555,-18.18084638385584,-29.320899216044946,-38.54083080227069,-44.60183421902273,-50.89680612733969,-61.67276392493376,-73.14841572531755,-80.12285160023065,-88.15957497720656,-100.69295826969554,-102.02120070762076,-76.52112056795494,-34.43207236714545,1.0006634412394892,19.355324679585493,25.341088250767047,28.660413668814932,35.37157630400634,42.67873485923717,45.81086668269752,46.149100739219215,47.82670334991782,53.58569102399949,61.53564095197219,65.36172188901273,62.51805679179768,58.420068389281596,56.52154868981577,52.073566724028495,42.21221522262074,32.25674319031349,26.403532461351347,22.31850742784314,16.507976527232433,7.358964359411876,-4.374076287774313,-16.084472906657382,-26.29792710989425,-36.95860362965239,-49.866814644694074,-62.510091916294535,-72.39788891247318,-81.59918100023471,-92.63803392152853,-106.14161459870432,-119.53656465586646,-121.2245352673265,-97.57006941052425,-54.324529376973274,-16.200768400320367,0.7913971709205302,5.208637496722578,15.05859108455259,33.26902327350976,48.44177051249308,54.61952417137245,56.53874892674674,59.58548103102966,64.11725070296087,68.5221079561679,72.06180366336956,72.91285189323506,70.43975226720133,66.8697393961645,62.64579373746141,56.354232900529496,51.033873640394276,48.423144336014325,44.424146691975295,37.35765105408744,28.647093936505993,17.85565055946776,5.345387771992963,-4.931029998824539,-12.498407295162188,-21.90754834709186,-34.59462327991926,-46.99205926815347,-55.98067310983612,-64.17517451975955,-76.04618839182498,-88.4641482542163,-97.6947915690897,-110.02336952788977,-126.37936518901985,-127.62115700483255,-96.91654824187978,-48.83994332010354,-14.359381565281735,-2.3341762786627798,2.3378533379826343,13.137210499225745,29.558423932776883,43.362357390767805,49.40799019886144,50.588838607696026,52.45409688708144,57.24318653794775,62.96632464937635,66.5599319271172,66.55593016646756,63.310076727266505,58.9831468317881,55.80795055549602,53.46371486138796,49.564493134405325,43.18171909653847,36.51713991736023,29.918598136129354,22.9499457885406,17.017865067089467,10.114144083169004,-0.5791798406908744,-11.969519720882593,-20.398215701504245,-28.571216147406833,-37.75996660536293,-44.71955503334561,-50.319754860714205,-58.670279897644626,-66.729048361335,-69.52334791463139,-74.03247779628697,-88.94419798453387,-105.71038501803595,-103.96640958686174,-74.68407771983144,-32.16540924657107,0.7339420765979291,15.754879599067628,22.38691659620639,30.208636596221105,39.11570522757187,45.973702574002985,50.033021122394,52.18766642178169,55.0662008176929,60.53508165397493,65.13095105953074,65.10354111938027,62.30609653942584,59.67566556242731,55.84482778114351,48.06699577457525,38.17110428220724,30.77906423452226,25.80497495430164,19.439364618379837,12.828639600477832,9.414476767851836,4.621216314255731,-5.426852264778357,-15.409622645558061,-23.610974027382166,50.0,113.0,75.0
-65.8407422070386,-74.83460831131679,-87.63241862394479,-102.09109936078444,-116.2226469033047,-124.59021932184942,-114.155503125446,-78.3965467248535,-32.695890323662034,-1.3926890077583725,8.828966398100963,11.943405578099597,21.970836624836018,36.8276745659956,46.82235058063773,49.700920978467465,50.75248737598924,55.013378738865505,61.34499824609626,65.36406898012362,65.67392532169784,63.682218095192624,60.94595759019197,56.982292229072826,51.11770182840717,44.91490005120512,39.64363552838877,34.05008585786704,27.2009365230463,19.03101192899729,11.447194818769145,5.619876449239614,-1.0436951824543201,-10.381437662679868,-21.454718572200225,-32.28543950825062,-40.57514723703154,-46.13145479161879,-53.53057933657078,-65.27771299432636,-75.59100930098413,-81.9106888143824,-91.65369484071594,-103.2450453582618,-97.50102562143914,-65.0058606011908,-22.682864735999544,8.048797789035218,21.940607795554573,26.167867480865972,30.2058804775397,37.71380086501762,44.067884758026956,46.0155878204421,46.32589393970669,49.0364971381055,55.899338622586754,63.337679129122904,65.09654052606335,61.15239154170487,57.7390314739132,55.78299438982867,49.66252207378949,39.030088813681054,30.154435802495104,25.22407636978343,20.926517754594705,14.22427385312266,4.136844995387713,-7.881010823896466,-19.162567004106073,-29.194630110070356,-40.48406505348228,-53.73385061252024,-65.6283142527076,-74.98141045851474,-84.54113212256901,-96.29760516250077,-110.32577602983233,-121.97245341264681,-117.2571130175294,-86.16063107343524,-41.65773758953844,-9.051454027206093,2.493878266506263,6.948494653021843,19.859750838878504,38.475105607662556,51.07444130982704,55.29700723523877,57.191440473460304,60.82834186765749,65.43711699944033,69.68885160074888,72.67443150854889,72.47380342527168,69.41617768650919,65.81023054380928,61.00457780639654,54.50871314535031,50.12670037626401,47.5932397564543,42.63985332263755,34.975484051217386,25.806402788936985,14.274831640173351,1.9869515389118197,-7.227738771665851,-14.843641527696978,-25.33344372508212,-38.41208196381789,-49.95254721478062,-58.16897495223206,-67.18899756422842,-79.888832684421,-91.3488468233118,-100.56206770465798,-114.83810880759737,-129.42739481775138,-122.06667662109804,-83.38408917079731,-36.44677178893793,-9.004387156480892,-1.0538800795846255,4.590391829060642,17.623272603359023,34.1819959631262,45.91896545012885,49.978157203251605,50.873593368569,53.55701802084826,58.95563329560326,64.32167402087242,66.94914862908136,65.8850960180462,62.04683684109428,57.90029917320637,55.134800465287235,52.602883729806585,47.914267060837744,41.187079895442714,34.676124344031564,27.873255933730857,21.126263515896156,15.308063467262379,7.407231660926669,-4.060905030871316,-14.688275400769786,-22.60521474635602,-31.242633800910536,-40.10480832026881,-46.26232601064764,-52.392838511479056,-61.37202198763259,-68.0293442581651,-70.08248944168022,-77.25396486990081,-94.45188202162565,-107.92287418611345,-98.11482682298316,-62.68367911527099,-20.88750377400983,6.711959234531318,17.942630848259938,24.36807793718272,32.83315013168801,41.390764745306996,47.413937872108725,50.77661083616064,52.79044172459325,56.43051366232863,62.19904356171811,65.61997749574083,64.39832779424096,61.499247052025524,58.847880983655884,54.04004987344569,45.20400250521394,35.64890178685476,29.26282580984472,24.20992023787083,17.328304786135135,11.54343775683297,8.520279060429573,2.136674322381298,-8.592756077144195,-17.770428460007924,-26.41607939569775,-39.18604150902656,-53.144474535932645,-62.87702829870922,-71.06772611254245,-83.05837653576188,-97.89179362238679,-113.7360835909962,-127.1136917210804,-122.82512257736965,-88.86561929596623,-41.170401103191026,-6.855444768077369,7.873147819941411,14.898014184450137,23.74835439216672,35.385546465211874,46.488658073368526,52.54846797053941,53.74673719357246,56.15245958612668,63.608325671967926,73.5557320133944,79.78536175929565,78.16278282589357,71.05394056956375,63.45428882121793,58.43262394978843,54.81351644893264,49.66740088071424,41.72859257208655,32.898494782426866,25.87666464950281,20.224185589843856,15.216742785765037,9.834389038033793,1.9633513157058533,-7.906144450191639,-17.44471024412085,-27.120695350369402,-38.68242568728388,-51.01501209638577,-61.38344633085453,-70.64841937611443,-81.49480969165462,-92.99948811745736,-104.40550858817814,-115.93717918305798,-119.58238488539388,-101.24081911697377,-62.416566734990255,-24.05476997950789,-1.9300537052677413,5.760368948649123,9.980900965756256,19.946964165652997,34.54302921718854,44.91979859356984,47.950250039468216,49.20396223660893,52.71397279750087,57.30007815737653,61.49062265660586,50.0,113.0,75.0
46.81710536105654,36.035027998630646,28.423541612018795,24.088428623894984,19.321530631868704,11.640371133014705,0.7438573885657044,-11.311396065856824,-22.109627186672775,-32.20965248483982,-44.21063494935812,-57.46816110316276,-68.50093032030732,-77.59285542260626,-87.67832008351569,-100.1688995603079,-114.39303577786228,-123.02704713482795,-110.90614378314764,-73.53425368648546,-30.11059442291564,-3.837509207077126,3.5946899879922976,9.545757865693272,25.20265952066591,43.09514233598281,52.94605267199414,55.80207844229504,58.02844542890819,62.15098504454805,66.7202066611209,70.76467629873302,73.00200752374543,71.77659460732227,68.37590925846202,64.65360101475505,59.1746252936276,52.87892868615486,49.41016137607684,46.51971545003701,40.61962397134556,32.49269132793457,22.746221316678223,10.606523243608876,-1.0681521602721564,-9.365677337223785,-17.471059187410372,-29.003119540340535,-42.08545896523311,-52.585576042547316,-60.428569410972834,-70.58581217849816,-83.5964644577699,-93.95857814886533,-103.94510983143941,-119.83443288697889,-130.54956975768403,-113.63683144894792,-69.1252889644869,-25.912910271000957,-5.394296986675973,0.10300486973731654,7.560492389742689,22.43069439801504,38.3618127471981,47.77617659243896,50.287889977140935,51.33535677709974,54.9154985002491,60.660658079730425,65.43683592093724,67.01822251103619,64.97037217020711,60.76265546715017,56.95533724367388,54.49088897383721,51.54355826561369,46.07009322239959,39.24478926907864,32.79679254654207,25.82329791956233,19.418200390826893,13.415237269978642,4.346597333565942,-7.448979018537291,-17.129952379696366,-24.913111467836767,-33.956412175953545,-42.17082555436564,-47.79571492153874,-54.78037436604351,-63.861465489552074,-68.83518991464007,-71.10473035492231,-81.46000887998922,-99.69601296302574,-108.06348359010076,-89.95979793753048,-50.1448419703979,-10.937898669942458,11.220444799555437,19.778049524352507,26.588070149066592,35.46139256649903,43.43386090558022,48.628124773060385,51.389482492280045,53.544979502681734,58.01810557476702,63.64729820543958,65.67672628270846,63.56421826032235,60.74972945997696,57.83671922331003,51.85484780422849,42.275064265919916,33.43979984513642,27.87263581545453,22.403489616235124,15.314719755816371,10.568139248533967,7.296991928167039,-0.776586414076405,-11.560167782202932,-20.055026678263104,-29.634635922709013,-43.41422798022015,-56.45418489402604,-65.09272423742961,-74.06341869628172,-87.19522578524376,-102.37609770359808,-118.2857051567735,-128.57295641819624,-115.9443448641636,-75.15572701975327,-29.074854822103507,-0.9637435014228402,10.09597202255718,17.09808420935641,26.91764498923176,38.86257973878385,48.89344900588406,53.18845957548813,54.02732874972762,57.79242405732685,66.46627783409022,76.02647539212663,80.13374256036998,76.44910006374496,68.71028243813514,61.704683094052264,57.38528436681155,53.58184245770697,47.648123096967,39.10629783791936,30.652361815902918,24.156757785209997,18.725540762326418,13.792981451847636,7.876832544718698,-0.802748314705058,-10.743693861357356,-20.130521586551566,-30.242879901707703,-42.30313305461202,-54.27426819981196,-64.0202395344429,-73.58996900649302,-84.84481546546048,-96.25466069622443,-107.83943064574181,-118.46134087265366,-116.95599326642326,-91.41059987822122,-50.26100983095613,-15.778817429550143,1.3642329435401699,6.805854687727574,12.079500100571952,24.04046767312158,38.32223543449749,46.40338204317782,48.19269121403205,49.9822189759266,54.0181321658767,58.58555628451099,62.54822373011105,65.50722929171314,65.97898083569662,62.04523610014857,55.293052064608965,49.326116040915835,45.240425218600535,41.19129541526248,35.39571382815626,26.87318677567449,16.802691379662544,9.588182746276319,4.327587433227232,-5.159958657353646,-17.72179276196031,-28.09563693116938,-36.878610144967936,-47.7557380478302,-58.83327071401976,-65.58945998449643,-70.07019225475605,-79.6273801330343,-96.0824486593469,-108.35211738376273,-97.88586596259921,-61.44001992797441,-21.311824994830275,1.3055730519824034,7.520552920596966,12.18392013337723,25.759892891574538,41.585104099954634,49.275993109884645,50.45407519610482,51.14701923063912,54.66921503529615,59.95735278930613,62.73866528881919,61.86899311191311,59.75147564702852,56.824346697679225,51.40354236916295,44.019848243388864,36.69951022503206,32.63060532271564,31.702080552170102,28.47700323896404,19.27922109434688,7.0114966831066,-3.8503963583643066,-13.049160188082805,-22.328839748978787,-33.00742467874886,-44.119159026708004,-53.19456033702013,-61.33142735022847,-71.62725112577309,-82.41307132447086,-92.91394941000492,-107.42368136479202,-123.56367544809382,-122.75705611966995,-90.54864672417175,50.0,113.0,75.0
11.233869894221717,27.33187299788776,41.94204007593899,49.01263791797579,50.49208668066257,52.038566709551766,56.4763564282262,62.27376291915062,66.27464278463746,66.77148362241012,63.86567100527933,59.52375294500126,56.144067208293045,53.809759546576196,50.24638960716061,44.10507789262917,37.367510363876235,30.844410182734592,23.832792823623084,17.775919138612437,11.23616093466746,1.0135437178811033,-10.611009478350752,-19.38653776198692,-27.37969578252239,-36.59800083458119,-43.96568843793771,-49.46737578908482,-57.41327441196326,-65.9436079758081,-69.32690969683486,-72.8913119891919,-86.46089097001497,-104.11085539834707,-105.83315184839664,-79.85974123415879,-37.70378984762502,-2.566787759374511,14.535440879945742,21.541117265282605,29.028116348498664,37.99847406079212,45.22928667819698,49.63382475301716,51.93564748348198,54.52571973420868,59.73533445537872,64.75705379175776,65.35504128905772,62.69719889185983,60.02211186788659,56.550872780083665,49.32613584534691,39.42362853244608,31.55219048358597,26.480804254676514,20.404271910600276,13.539014617274699,9.773296508512692,5.59065568253772,-3.9407513154568665,-14.255883442618742,-22.43476895140645,-33.27611860276078,-47.57000895305072,-59.32153713651132,-67.3478392463239,-77.46256695860768,-91.47837156457817,-106.94945622201756,-122.47291213695698,-128.03911486609513,-106.4772824781097,-61.00873604515311,-18.677143455723893,3.426781626707575,12.038860446630807,19.584509493531534,30.282172665304287,42.1849820613096,50.771406144375,53.50460499497186,54.59148435893425,59.883003271856424,69.41636647127032,78.01285669891101,79.78403073362095,74.39448308733687,66.4450459460815,60.21441717770379,56.37898474096866,52.16055011081559,45.38287933946195,36.49908101585343,28.595591052711136,22.514512658742955,17.277558825135394,12.295226099276151,5.6570577817238,-3.675900030475505,-13.507623068246078,-22.87687693782445,-33.55563049248573,-45.91968541386859,-57.309483362763885,-66.64436967550338,-76.70681973396013,-88.18754389548752,-99.52160162940007,-111.27697320898008,-119.99669973464073,-112.1596019012741,-80.16592668731501,-38.766536186372164,-9.065087794242968,3.646315696551449,7.868028435228071,14.822079612819161,28.362976508249062,41.51227562474024,47.31036611368524,48.47676136361147,50.97581610110735,55.3569643348466,59.815190103121346,63.52982700082343,66.0164178549091,65.3069967975262,60.218233264355554,53.36640066459021,48.0018402802039,44.168316739285174,39.74661810096021,33.2390852745244,23.949635625837224,14.272344660877934,8.156765062806915,2.1729678935826504,-8.748431323136467,-21.061152485885096,-30.60277751410697,-39.74953138427375,-51.1734159512072,-61.31800537063815,-66.80580919191989,-72.03599190828072,-83.8898114246492,-100.88360494922337,-108.32385358679751,-89.41190660815906,-48.946438585061365,-12.600940357724616,4.244782839293344,8.311902488712251,15.154493494923418,30.723797227741482,44.79229014867727,49.99673571575576,50.49280500225576,51.82094640709069,56.19387890304119,61.17334055209587,62.77920999003074,61.288667613884336,59.066684704765244,55.549074631353214,49.39242152997764,41.78033450428808,35.059818915204936,32.23115002215384,31.264354455698555,26.436639798695904,15.790690995630548,3.6436478171940028,-6.614575007919984,-15.637880787396965,-25.25725475629119,-36.289578605550886,-47.00946641070572,-55.4651547706935,-64.05671428782492,-74.84426281028863,-85.33212921339243,-96.5252376567095,-112.45795703936166,-126.1307629722708,-116.55439572807224,-77.23111011368096,-33.916115781498036,-11.264190399129976,-4.714395286792869,3.546615406814301,20.64796719339523,40.2079612679477,52.973427842197665,56.58515708392735,57.1248092467045,60.383147720802235,66.5178005748697,71.45239979403819,72.22755974168601,70.11857123734185,66.92816908693314,63.9577408741492,61.453173983910624,56.842487262085434,49.73812765659369,42.28386605644434,35.474674534441014,29.930560488928144,25.074515026974638,19.11934076405375,10.4800097010631,-1.1306429292825655,-12.297283251360685,-21.087934477267623,-28.582742111825162,-35.87635393248602,-46.11040209869146,-58.872567723220726,-68.81119526570615,-74.77858844568648,-81.57152088154177,-94.2655776856732,-110.36597955830692,-116.65085776154824,-98.18673843931379,-59.91370126032048,-25.702813426657176,-8.293017807193856,0.18356913229404231,9.49576634839422,21.71012909935193,33.22444627430036,39.524312576725485,42.290635570611,47.14621301193549,53.81152617908825,58.36202845723423,59.66690333281327,58.92527931711044,57.52373284025957,55.09408232274552,50.22214205546304,43.537802413361334,39.26001442727747,36.46270279615234,29.155021987899225,18.61905074545583,12.172060732354844,50.0,113.0,75.0
-25.0751580773409,-37.266578086769094,-51.471128845087335,-61.81576813422087,-69.81843414228165,-81.22427785174682,-95.8511556487766,-111.59330475524055,-125.91185041883746,-125.08230843894093,-94.81626054561133,-47.21545745367042,-10.155102450542588,6.6646995920970165,13.963767764086686,22.36965809797247,33.76552588410362,45.22043819146369,52.10594031323764,53.669436639191886,55.55499262606508,62.36138068130077,72.29790980976487,79.38424791762432,78.80131536989192,72.1319532627207,64.34676719064181,58.95352240727044,55.33082579631104,50.511622158763636,42.91487690992052,33.99761188696737,26.703846814497524,20.933785156094817,15.86451274569452,10.656131827125547,3.1807598147241274,-6.577280940305096,-16.209887436742257,-25.744186205892422,-37.03558015688767,-49.443512973443106,-60.13582244421593,-69.35165358302002,-79.96297634404635,-91.49088749914384,-102.84576304225769,-114.55266956500441,-120.11577478056459,-105.16458230667037,-68.08909505659456,-28.3814519977339,-3.860439214569257,5.202938978816011,9.209096288811395,18.200793142254277,32.6510341894308,44.00920700503474,47.80656001596028,48.92390541805416,52.13767640818882,56.692899913147286,60.978356789529144,64.42399481602597,66.25451452308705,64.23810481067775,58.23981419527994,51.58914722298155,46.82158313045357,43.03847822944305,38.12705951360304,30.828139227753987,20.969557864327896,12.10705369599823,6.753948056907877,-0.47565988344811033,-12.451013128314976,-24.114567850828966,-33.072428665748504,-42.86720517135613,-54.48472979096701,-63.34852746594836,-67.98121767425816,-74.61253984645012,-88.67979829175607,-104.91869030988082,-105.9342692626963,-78.9642482641471,-36.892973190135386,-5.681320483474702,6.059393545706946,9.401279577605406,18.993027228219177,35.525785923985254,47.165036214755155,50.32824988427479,50.621884704540996,52.783178184004406,57.78399102604361,62.070161838508206,62.54434518164367,60.675628278833614,58.28075331322991,54.02754728895803,47.26088488111562,39.59730988947964,33.790080525971604,32.014300222087286,30.478276453368608,23.854905544597052,12.19179950777623,0.4642487327633109,-9.269715558383986,-18.282986837479463,-28.322647194524162,-39.55287967618141,-49.67036864101174,-57.74760919751142,-67.01443376317711,-78.00081582718072,-88.2759454710972,-100.61022934803329,-117.43082616929979,-126.65933993901392,-107.59664799411163,-63.598459740030655,-24.89367448903427,-8.523405138805762,-3.131222973674744,7.675901348342265,26.507810120399746,44.88550685243708,54.800624088546584,56.706551073177565,57.67287455812669,61.99081678106965,68.2780317022903,72.10720692912987,71.8132685928512,69.25239318488649,65.98811124430785,63.26457698032443,60.44736034565171,54.951120405980184,47.54995181460603,40.2257429017467,33.725516745968214,28.535139058194368,23.5377292436561,16.968188355307777,7.338430725543226,-4.580992586598944,-15.043406467631169,-23.353775024639994,-30.6064413951924,-38.40192258781269,-49.7555079682291,-62.22612099602709,-70.81144709474823,-76.36817886167006,-84.54280310405144,-98.95932820976489,-113.98638455061075,-114.18213933260971,-88.24304995310521,-48.58942733383726,-19.027190760791182,-5.487950381861564,2.557937985282222,12.804264457817304,25.354925330555435,35.66837664584499,40.41423924275409,43.33600340987949,49.07233462492791,55.46045827618618,59.04765378113957,59.580862283083675,58.56720305989027,56.98658276124433,53.988483096028375,48.32175924796249,41.90475126025912,38.580562675453535,34.970534770372176,26.12083661900042,16.107119707750844,11.378983170482734,9.476424065933912,4.64124702457142,-2.9956772639934637,-10.028041551928595,-16.171814806659015,-22.502239784991765,-29.01368005218719,-34.982001855112806,-40.37484819567168,-47.56621318212066,-58.19745236947759,-70.49205028174866,-82.61487783794757,-91.57164946454337,-84.99887254881361,-54.29164469291644,-16.17299894358835,5.9913790648066865,11.447859883228638,13.74311771676848,20.222702486734732,28.244984777896374,32.5571083572089,34.743315287343655,40.03551318401452,46.417148906142344,49.83860462480016,51.67556578158231,53.78690143781497,54.02725890298227,50.53297346107825,45.27869651636647,40.101720670378675,33.756743201945376,26.109139337071706,18.59095723642055,13.358566833293914,10.717841768887679,6.7539242557040025,-2.602235352451216,-15.170553023888639,-24.683754081911772,-31.03559058955423,-40.02376528615163,-50.774445249751295,-58.962225028934164,-65.6602294665237,-75.00813190247897,-88.85906477132592,-102.14908018935104,-100.07515141146118,-73.00333825168026,-35.121840854092255,-10.440702263808415,-4.123822865817711,-2.9408072011032527,5.631368034043133,23.250952577435108,40.64320592536507,48.369660267332705,49.37883544036453,51.6456226225346,50.0,113.0,75.0
62.06980315027784,65.20151278264078,66.15368097461531,62.808200910298766,56.215136018757086,49.996161900808005,45.730558822957576,41.80489367785052,36.30851963358853,28.17052558705977,18.07130789386631,10.311752040865699,5.170612577582519,-3.592871406419926,-16.09802782247703,-26.891671573117208,-35.63524742367755,-46.185067223118814,-57.54333760976927,-64.95973862248512,-69.33111469643794,-77.8822603880899,-93.74778495625333,-107.66337795226103,-101.00709110769667,-67.14881670711262,-25.896121161248246,-0.5238109459315423,7.146570414592102,11.117712978643498,23.52125893191859,39.833653663078096,48.764064527533314,50.437480419272205,50.927709900559734,54.020384135241166,59.31028264059718,62.60986584111385,62.1121806355028,60.04858445569049,57.331978775769976,52.277169792640535,45.052278158847514,37.560627708708004,32.91259802182883,31.82503348075043,29.230157439264538,20.80710561459417,8.620126551803892,-2.528014675431136,-11.861764190175759,-21.024285248910328,-31.50842569350211,-42.715882003933565,-52.11978470926481,-60.1548120822285,-70.14858940141502,-81.04613439794473,-91.38386465476499,-105.17961951798316,-121.86289292767634,-124.63937635610077,-96.33154818828686,-50.526999074189646,-17.95826159451142,-6.72055990025439,-0.9861598115836507,12.5533324072663,32.321316646791,48.79561575058046,55.90515870418635,56.779617282689046,58.53781636540418,63.78757912246778,69.81017731372968,72.38879929622422,71.21913820342762,68.32661695652425,65.10318259438961,62.58846017187751,59.18237501526177,52.895580243600115,45.38131453832094,38.23160732593624,32.10156970515013,27.157962772070498,21.868705006274133,14.549870449465164,3.972983935656391,-7.876904318206256,-17.59962452054574,-25.53544834296538,-32.649812946599376,-41.274873357719756,-53.51656847133461,-65.20445355605679,-72.52551028038457,-78.18727140363418,-88.10068804278806,-103.77844837283607,-116.35746608671582,-109.34124237418851,-77.06102256835172,-38.260077007356216,-13.813093463412857,-3.1003215561970725,5.1671936815417965,16.337187316770965,28.808213260589206,37.58794106496727,41.1429326236214,44.67809405334691,51.05698894345295,56.84845493295588,59.46744597071573,59.36985976758431,58.17610313043214,56.33539779798285,52.63885824869711,46.32925375701884,40.59941915957926,37.891455802415905,32.96360923018698,22.96674843646476,14.116793643447474,10.844298788496543,8.513065361208724,2.560401974206806,-5.181209841558601,-11.827673693109169,-17.968560203284106,-24.38044201539998,-30.839225669174777,-36.52952660263315,-42.14045667818956,-50.303183931370036,-61.705532531535326,-74.03767627151042,-85.87768312317786,-91.98191892780137,-78.38135024987717,-42.77544532284494,-7.587421978214008,8.733869752907554,11.891305680911236,15.154474013706453,22.654994315411777,29.986084739842276,33.120994717275124,35.87790012088412,42.01721562128028,47.75122569096177,50.380372860790814,52.29194437066093,54.18907817747902,53.38444104431404,49.04850097302732,43.79948743811052,38.443898289113505,31.633476159321635,23.836513272133622,16.756729099629514,12.429835530955673,9.951923993250878,4.655109370423924,-6.176654265296783,-18.44343230859039,-26.581927514902425,-33.21347081617548,-43.1869396572539,-53.48015121871926,-60.86546020965944,-67.93537115433737,-78.58324469463449,-93.26192190702595,-103.87889180605039,-94.6869018950275,-61.99788270876714,-25.904948564046613,-7.131619266522367,-3.960378908869176,-1.5346466035084285,10.038829094301578,28.862500442071674,44.00413865102163,48.935767535122125,49.71410106295158,52.788464917385156,56.89165339728109,59.36225566822733,58.54491193298678,54.93048340001974,52.28583336661299,52.11626307531073,50.0767714490025,44.943787808178676,40.96050954645701,38.418995262853855,34.22392628420359,27.895418119348488,20.371011521337376,12.64985262788865,6.480195776707952,2.5648367778507484,-1.7055223855101258,-10.0028832011737,-22.511522137880938,-35.40654994218237,-44.358879150925894,-51.43669964841294,-60.69104980546299,-71.1503122224361,-81.45229842849724,-93.80545023859403,-106.89302902787068,-109.28189179307637,-90.31965147184133,-56.28966045735581,-26.342240188990196,-9.78035231657722,-0.19153046235639817,10.834674173480352,24.198208996007544,35.12202386640376,40.27912764217297,42.14209405942128,44.645749929197976,48.88959314038761,54.37431617902334,58.813477956782634,58.73207783532535,54.70404813382963,51.8024799305841,50.88866336329969,48.071425592479905,42.708111750891135,37.77559603251865,34.68244972671045,30.575064803335838,23.234542099868463,16.40893885681104,11.744008005638468,6.270243383280271,-1.084685610307101,-11.19263140586892,-22.89789155861809,-31.815489491019136,-38.68988271195798,-47.99124909877177,-59.778327961886895,50.0,113.0,75.0
-83.46549877309869,-38.75440260929986,-12.982833168995363,-5.340925467512311,1.9227252253244778,18.004645652085195,37.832596841067996,51.85451294109053,56.45884964493278,56.9665883271242,59.729876818286115,65.66213917614067,71.0198746446513,72.34249215605054,70.49027569166581,67.37031567348552,64.29937101406594,61.84486527951545,57.64077642490699,50.744835658907306,43.25064467034466,36.321022656737284,30.59394776299336,25.74823131830141,20.032628051556657,11.834147282742723,0.4851952610865343,-10.95640963426424,-20.012630811382696,-27.637034955126364,-34.81021507713078,-44.5098839428906,-57.22558135128701,-67.76699213093974,-74.07705827807456,-80.39063905642917,-92.21191332752217,-108.40453734888735,-117.02599127529177,-102.18961619680718,-65.32061421455307,-29.308786125291043,-9.814651692963652,-0.8592014408970474,8.062169678485294,20.005462825741063,31.929968747951758,39.010887212196046,41.89290940436903,46.31165787131426,52.9774894727276,57.95104732860053,59.650946811574016,59.077867115181654,57.74317346083521,55.52939930975099,51.038091890562974,44.38078798170501,39.62188543270859,36.995116792688165,30.455082661341297,19.923778412253494,12.671050851502503,10.382230868772345,7.193237477470449,0.32453758907399605,-7.241497247566586,-13.590277672989894,-19.79322829153358,-26.27001341907134,-32.5885194340178,-38.05276318755458,-44.13398869853546,-53.338519291729384,-65.27430917760883,-77.56025841614708,-88.75035600029967,-90.67026621922751,-69.71304250208973,-31.334214942283545,-0.7746209688685193,10.336340105409507,12.420212518728528,16.978383734165583,25.073452024452504,31.307039271227463,33.65295816692516,37.366049772095295,43.949763167622095,48.78030719932928,50.881090584047165,52.9358644227672,54.350369690539715,52.41479006639723,47.50659595880085,42.331724890434955,36.643598767502155,29.4238774699825,21.61664938820064,15.174123400077915,11.685851061827673,8.939065641956713,2.0391637552832518,-9.888088521445894,-21.299313898983186,-28.332701759421994,-35.74751675388642,-46.371552045410695,-55.89385921584148,-62.73769663189195,-70.52901248935102,-82.55103180140989,-97.39928465884866,-103.87256229530044,-87.14275812121122,-50.705346511362244,-18.31596424732438,-5.213499379989939,-3.813495122235162,0.7158140216828974,15.12127535990754,34.13638919045555,46.40510683508693,49.15999287302106,50.309907543596985,54.01447501064536,57.85770995553061,59.51101928758497,57.664140435955154,53.88129102678288,52.104161878714315,51.928484756174704,48.753056997930926,43.524265601960266,40.22578792137962,37.45993135631202,32.57270897536331,25.809030669526777,18.093570251968842,10.632949116272007,5.159839635048887,1.5614086273913588,-3.5981839307015258,-13.282640719116065,-26.447279220181283,-38.454346368075036,-46.35310291434116,-53.838131733890876,-63.70996732736513,-74.10001755315346,-84.69188815755443,-97.85094832420889,-109.32945332252683,-106.12972524525198,-81.24528363495892,-46.452121172391365,-20.25720238683838,-6.757621220530476,2.6426229872306317,14.614764796167922,27.845540682818957,37.19950202952772,40.94463525379056,42.69771201613128,45.69895766107662,50.39843058836569,55.9299317593511,59.353716126334284,57.77856293285214,53.556118581925894,51.49418357244635,50.40223875195737,46.680764861615835,41.10219775270302,36.74567283325255,33.79098699340952,28.715686698635704,20.99448199241373,14.956214953367612,10.34368106957358,4.351396804369067,-3.6739998298610703,-14.606147279903164,-25.880680424619,-33.803463876108964,-40.99076432828894,-51.32333707249999,-62.91417686159263,-70.71351323770249,-76.18454303576577,-86.31141605969754,-98.10792069086187,-93.67949118225748,-63.27292259563196,-23.788843798775336,1.3310684480064652,7.955182759124236,9.066961733539388,16.19523778922841,28.954744199706546,39.05658291059823,42.255962554630734,43.775842229773524,48.843405605233,55.3104210276215,59.0804143223225,59.127354178987005,56.36699141098162,49.82934498434766,42.48735702197037,40.857636019344795,41.283031957236474,35.952251387243656,25.7512817002132,15.999934983064033,10.355611178980675,5.739307473534544,-3.5465199795763382,-15.556304537608115,-24.805927209630376,-31.83377983458351,-41.01207498939259,-49.93632670867362,-54.894082796451066,-62.053229846091064,-76.14179422135877,-92.00724960848271,-103.11280028817819,-102.59722928649181,-82.72461342724068,-47.59154415816797,-15.248599632128597,2.176565327350197,9.582052502460838,16.936548735455183,28.92989886181394,42.365243613354544,49.788192690525264,49.25640210231559,47.53840017827904,49.550808884051,52.63611745567297,53.96088439844949,54.43828788901203,54.953481565115055,53.964506016964854,49.73229404544608,43.808422013051285,38.954772142391036,34.976559874639584,50.0,113.0,75.0
11.701805989612422,9.814806334821522,5.518831417437918,-1.9561911474167577,-9.173547329233811,-15.352733722067256,-21.642438146188123,-28.154137880330605,-34.2467928495924,-39.61790413610896,-46.411279734297665,-56.620940183143574,-68.84957459765354,-81.04144163657767,-90.91782834641488,-87.30033781512516,-59.41866483079051,-20.668109174814436,4.241952673309325,11.195218516733474,13.236277620347787,19.142565879251336,27.31296531601342,32.23477033442399,34.33622744530225,39.14755990146207,45.69931956232244,49.549581830038754,51.411081462009435,53.54242649444745,54.20705929005039,51.173985800140656,45.973149335853066,40.82494628355204,34.69822176415513,27.160627682840563,19.50815174026228,13.868437609819914,11.027048555458986,7.549663402885232,-1.0474829892235182,-13.550050235025246,-23.708654042343348,-30.13595562499687,-38.614814831713055,-49.43473156911831,-58.042114556291835,-64.69715092486697,-73.50041722515567,-86.82650908794419,-100.88397425842,-101.79139359817331,-77.78578569230007,-39.824772601159246,-12.516419409091096,-4.311842836611994,-3.3437053740694274,3.8740667513636096,20.64029068041436,38.779043757263324,47.92171218304565,49.291506978203095,51.172066352058884,55.23947601825975,58.63994268353044,59.34659796579511,56.59878302442988,53.03306048050032,52.098571825983726,51.43753430649253,47.23028212405443,42.31943511048527,39.54033873229112,36.297421404460316,30.764144566753654,23.643019322099295,15.829560181075713,8.793836150373119,4.025125434546655,0.423140004169395,-5.898480698580932,-16.879249392806223,-30.280111298986387,-41.097617370390466,-48.32516437061679,-56.4812086551041,-66.7558904326527,-77.03618551758089,-88.19568739367476,-101.83082164374308,-110.5025393002158,-101.01892904004019,-71.28972394939332,-37.452161319098245,-15.324944332037328,-4.053900734344813,5.752441312568326,18.525782581813317,31.143384797362476,38.76439975634946,41.452247237231575,43.38001633901719,46.89715215315644,51.99372287911719,57.314220074126624,59.43475390501363,56.57807954236361,52.64493483085548,51.283679103655615,49.65861722746401,45.11757919190472,39.620243550308416,35.86521323330284,32.70126457485764,26.584086067769196,18.944836387392236,13.639402283452615,8.801966614867794,2.2778517532858324,-6.536964526341301,-18.06463565034909,-28.523766443155555,-35.724269390955385,-43.59885855965679,-54.79066155345155,-65.68027248434922,-72.22887105096386,-78.42564646463813,-90.16085113019038,-99.36302768941162,-87.29281403812688,-51.57832950914736,-14.410036832622096,4.748839944261191,8.14895833373298,10.290444447025054,19.607218939913015,32.519210051594165,40.60161531287248,42.518569449974436,44.84390296760314,50.78125690003609,56.795135355474166,59.42891793756383,58.62585907053217,54.897287059171504,47.44644439002983,41.330774241750674,41.2084073729111,40.472553857129334,33.28496395035337,22.649504451707912,13.92892365119936,9.227270966484507,3.632398064286021,-7.019078148571525,-18.644690019420736,-26.849535702123354,-34.18602153604466,-43.913611061336574,-51.68019168370944,-56.33456467205683,-65.5010734727479,-80.87771860954726,-95.9481070693565,-104.55472278003913,-99.01120069826194,-73.49129317015111,-37.10401791347352,-8.62997249887553,4.868598889511953,11.364452348691893,19.917284056671,32.98426279295228,45.404384969054995,50.26430819587752,48.51544769301012,47.745209959136936,50.53423962362313,53.20721834847287,54.111802643279134,54.601688971447466,54.93985150523375,53.07502931686527,48.050564887507186,42.233868088160904,37.79202010696753,33.8227565809616,30.226623624313564,26.739365441381327,21.83447309872097,16.258888157800623,10.286971203153692,2.987978529138907,-6.271488744975407,-17.16586295089456,-28.255151210233016,-39.27396009415406,-49.31530742669342,-55.65680341702642,-59.65377916500574,-65.66701784975875,-74.65332019673396,-87.11853302321273,-100.68100537637953,-102.39952284826343,-80.00897532283102,-42.535860495654305,-12.793214781203977,0.29697546996887597,5.083270910030504,11.550654265514849,21.99603649206695,33.0884280795875,40.91986511576824,44.287009546618286,45.17267896522907,46.23224773950252,49.541496639007676,53.48747565915973,55.27234509380341,55.41515841901234,54.049072100776044,48.91249931203285,39.96661318431777,31.35492267383995,27.15970019831582,25.500839292807754,22.126900771411808,16.19474004249166,8.855323353881227,1.6042387283311563,-5.931357174476777,-14.971695349247433,-25.748188318054215,-35.66717801589613,-43.17533094392606,-51.170919140858935,-59.488505327171175,-67.22339221394358,-78.49501448173508,-91.83353121345644,-90.62713974450857,-62.93304291792103,-25.852593271111743,-3.862452035288419,2.9100795789818283,9.8522387941241,21.48023229333425,29.70221531290399,50.0,113.0,75.0
52.245691675022364,56.39613219712094,59.19486998569757,58.86615950211666,55.453040033573096,52.45544740017226,52.13152640873899,50.58748595444566,45.65118047614438,41.34380292230497,38.80174350845108,34.92438723715641,28.825927184606623,21.414033244067785,13.628758713280364,7.160310879440592,3.01411351517961,-0.9597855730254082,-8.615043571338495,-20.70359035588491,-33.86746509042618,-43.39026950832204,-50.40989450565708,-59.32816661288708,-69.77502525541875,-80.02859062753485,-91.98084324050672,-105.44610714155218,-110.08330495517649,-94.06898917539192,-60.997727504895565,-29.56468419730749,-11.354917814334554,-1.429592714877697,9.16611569277699,22.435873989537242,33.98485447883849,39.884400534731554,41.916537638317784,44.21096508524943,48.23161862731455,53.62717114027521,58.422570882489296,59.0524736904894,55.28603544856714,52.009268959224265,51.04306861443809,48.634462852133794,43.470162320933305,38.313021393017415,35.05802354544979,31.322279945444933,24.29857959771076,17.150023393686176,12.353339241820006,7.104542464896733,0.02528497956935867,-9.670296171955611,-21.4220571840295,-30.839095373017976,-37.714522609949476,-46.53510881687303,-58.23962725772498,-68.01702008718986,-73.68901567649557,-81.23826968537975,-93.89583649370581,-98.71947080708003,-78.73116927538192,-39.79462647803683,-6.702632454475007,6.765423085987003,8.292077133333098,12.198864163017596,23.357574063126606,35.62324581073825,41.566868764063564,42.84678303511984,46.26906600362376,52.717717733647135,57.97206498540886,59.483429567059,57.90674243626566,53.06026982488637,45.167229472836425,40.78128576387685,41.49361605833007,39.048394464608165,30.323129803534467,19.723664788321365,12.253331922552425,8.021735449815882,1.029136701998044,-10.571179009672528,-21.390265757351035,-28.808250670909576,-36.81512096985557,-46.62488983952434,-53.078041766447186,-58.209846474784314,-69.53324204860402,-85.56704380775598,-99.36610641968299,-104.82036768425522,-93.63902145581918,-63.2697152709975,-27.374567090363392,-3.3756749566466158,6.98062628203711,13.364155218263974,23.3298258064242,37.00187794771991,47.75103481553179,50.1315723657327,47.90218693190779,48.30055209939692,51.48418924301185,53.607180695975714,54.23810218685486,54.77312621897356,54.733310680443,51.89456824252314,46.30327147060164,40.80471927926803,36.65470269768395,32.70061916278531,29.29781073462806,25.475075518146063,20.236727135601246,14.614637256052072,8.349122899934281,0.5305699005983955,-9.31148257988094,-20.395703625891894,-31.43172130334902,-42.39919628756426,-51.5926914199491,-56.841588354991856,-61.06710719926906,-67.97109622217155,-77.85243539608032,-91.29131728014511,-103.15920298621607,-98.51104345844342,-69.72907973196358,-32.32066741942359,-7.466695090334685,1.9919070234116298,6.51614157488987,14.249936246983674,25.331875605044686,35.81030751685995,42.3059649507376,44.67620101212672,45.34337982221221,46.933107960477024,50.787577828038934,54.25816272205619,55.41617506595007,55.260905509624166,53.03641747877309,46.601818771883856,37.199250443138894,29.63906637546103,26.64339985261659,24.808746438955215,20.64164623275748,14.144830381338956,6.718413977771952,-0.47891458017728333,-8.352388634084093,-17.952014496069012,-28.87534020365013,-37.988888578735,-45.33291931779913,-53.66165155511255,-61.67272002295393,-69.91880308558177,-82.6203165868871,-93.90880468571919,-85.16369637051773,-51.85191571333432,-17.389288533999824,-0.9845736808527862,4.337317578664564,12.995586213766353,24.56311619301923,30.705547784438785,31.364749473000597,32.702833848253654,37.398896522624916,43.402607957959766,47.370622896404555,48.69683976963243,48.84809327937725,47.49442892961707,44.06875621759486,40.358782954477604,38.49843085527823,36.67524536760469,32.005131597080336,25.788494824674146,19.91909954715618,15.40145691257648,10.287737486155375,0.8859505740705086,-11.775396909462314,-20.23585635373368,-22.37033473343208,-24.882066715908834,-31.856265247959467,-43.269513019937975,-58.16065327003558,-72.39111940223296,-82.9427798670873,-93.66471629494487,-102.09373549256495,-91.39085260659583,-57.03053510315803,-22.134929398206612,-6.397875069307228,-2.947561012951222,2.175015334211348,13.643690410116378,28.609807154722727,40.03032096649355,44.84212353951813,47.197142421199324,50.779274694880115,53.98862932052396,54.86027523082404,54.3716778264901,54.29672840679063,52.82600796737635,47.465493372272434,41.70037448997477,38.302603764115815,34.655481384188676,29.769015954253586,24.143384400161093,16.699375522519315,9.14298546554988,3.996283267733459,-1.6441736369116,-10.613048963286301,-20.851202651707457,-29.51282593265329,-36.30234394405799,-43.27808567262787,-50.67854303347549,50.0,113.0,75.0
-61.50824724549804,-69.94133824931228,-75.31702113314712,-84.60880966913248,-97.02252645475279,-95.82331652431294,-68.43714867254768,-28.594795939416958,-0.7949579549009027,7.742452706467616,8.71128137374659,14.79114143831567,27.21174317839293,38.12510362533771,42.10134558896801,43.40741588954146,47.9841763536801,54.537760593655676,58.80980302224519,59.28973193949091,56.924934282355636,50.90129387337017,43.2196792044397,40.74942073379681,41.46058642315758,37.045605021258716,27.20416526715707,17.090629471774403,10.903323466243412,6.550472287787348,-2.0211091492438737,-14.031973843279268,-23.79543298562157,-30.83669002307211,-39.66225360451393,-48.98901709184483,-54.31293093603861,-60.68625233272181,-73.99405777265562,-90.04873968746621,-102.11725000458738,-103.66739981047435,-86.53367510165536,-52.5523710682209,-18.77066893999586,0.6622674196350153,8.78498811233524,15.712794983628775,27.10273630617883,40.77014855352982,49.325022115924256,49.58494552581991,47.570695525614184,49.11811150123533,52.31131365921516,53.871668594235686,54.3703927656944,54.914407286217084,54.27336071233446,50.46127255248099,44.576733090122126,39.51340129729064,35.50931029690072,31.643312525449073,28.33337328983366,24.071140995694194,18.623804276954363,12.918189289475684,6.279748143043135,-2.104961822858782,-12.461733055120863,-23.604938646126392,-34.61855901853271,-45.387473366672744,-53.49402975797895,-57.9352544531174,-62.74123098890197,-70.50508270327363,-81.38524981435364,-95.42115256703296,-104.21411559087456,-92.42033039117597,-58.68515932459463,-23.308219075242153,-3.51546641479802,3.30023430475433,8.278180487667083,17.25333213512243,28.61191455324053,38.176517025612426,43.32800741794465,44.927126211167746,45.591566081791626,47.86237828493164,51.99094197048114,54.80943659685723,55.468434067946134,54.94718235986257,51.64609263733126,44.01520284604157,34.59747901060713,28.358917304144196,26.218813232984516,23.89274899374262,18.957210876256905,12.014184128315955,4.622168184879907,-2.6223157774155235,-10.92164252568924,-21.07468233014651,-31.82118258793544,-40.13490632875159,-47.618971017845126,-56.108083876953636,-63.83359887911828,-73.06010059482004,-86.74437739207897,-94.21447885375854,-77.40896607101453,-40.720254435974645,-10.644819404523274,0.9182621300782822,6.172549957921929,16.441241484895784,27.11664686713097,31.2046257544838,31.448511832867897,33.74079109420427,39.1601317728106,44.86147222667105,47.95764121719536,48.82946789042,48.668543437679716,46.685133641959986,42.898983118806505,39.6127061134432,38.15471244735996,35.62716081549429,30.26465908045882,23.98885932872922,18.48698078018827,14.157103239078836,8.123350192941249,-2.707489874659103,-14.970666836757152,-21.282814925989438,-22.749168188399597,-26.41539255050636,-34.709579600007466,-47.325400065777785,-62.58795847389587,-75.74742786181822,-85.82273193229346,-96.91941102579509,-101.71926518225702,-83.26788290212521,-45.689645923952014,-15.468941690030414,-4.8763444319656735,-2.0274947864839983,4.844772622542785,17.88721990682979,32.56824603727143,42.00971341024993,45.52120522329922,48.09153176498703,51.885786907054495,54.484746472574436,54.762895954405764,54.28696416071213,54.20504867279126,51.629454284186984,45.6053713936435,40.53215923585218,37.403063215621,33.321416074030004,28.25655858343535,22.197801322713342,14.348662465039874,7.435055399776231,2.6292393287573668,-3.909812039857885,-13.594761147757115,-23.59219899186597,-31.59209646665339,-38.22276764359544,-45.43760827433862,-52.66391263732125,-58.66492690757016,-65.62087045252453,-78.05283564691752,-90.87332875812116,-86.47400442987646,-56.521584818471844,-17.712572564226114,6.781579041351314,12.389165070058878,11.307527525320273,14.949103582848258,23.769655422940122,31.34683877917907,33.57707792039298,34.12408224244071,37.596221513895884,41.400955081881484,42.983667346906,46.29311644435172,51.22239884869091,51.157999671861106,43.14624453104952,32.363183321239354,25.779331494753443,23.099801304079843,19.613012491931933,13.47044555025342,5.135892435212155,-2.6361931871120876,-8.381384664118594,-15.306264060308475,-24.253062485343474,-32.78325409272346,-41.24255418320355,-51.04129695184657,-61.60239135050798,-72.13774420958124,-82.59943019213097,-89.43246716257185,-79.27516845990812,-47.01021161548146,-13.170674189401634,1.6740165630407224,3.1636154992418497,8.481116784229544,21.40916805441436,33.57449287737176,39.80864790205744,42.63699330338863,44.98683310171334,46.62185891641863,48.56825991001605,50.71409800362225,50.833448016923036,48.984432253201724,46.2803820863671,42.82328603463174,38.48097358698111,33.7891567787455,28.93594081854384,23.45116758184264,19.374155863081125,50.0,113.0,75.0
34.35307857690394,30.660484171499007,27.272799392950795,22.557542448377458,17.007425010104804,11.140673522980522,4.06345089141605,-4.918279326582158,-15.675473184403677,-26.790891283657604,-37.80975391007081,-48.14561156556504,-55.04224633132718,-59.07709094997112,-64.68479909019626,-73.28185138003239,-85.24622262734542,-99.18176545848388,-103.4492071448806,-84.31865508529616,-47.53622662008685,-15.755950759563504,-0.6995771943131182,4.500944728683584,10.42771239181476,20.470104182106308,31.730889738740174,40.14777474099197,44.04242243627944,45.101622715623535,45.98519774816278,48.98212317880692,53.05895951952348,55.1639814384843,55.44975804127702,54.40013854502851,49.862849203515104,41.25916195047142,32.290647576812326,27.466785348095748,25.756439418484373,22.737996689076393,17.100406998570307,9.851043011611539,2.555404887314738,-4.8602660573246865,-13.654173197278492,-24.274140926415722,-34.51551954181844,-42.21129929111955,-50.03027156251525,-58.449744237685074,-66.10025298325502,-76.68223233011297,-90.42832450630486,-92.31757868399471,-67.80615168457392,-30.271573469989015,-5.635530322296103,2.3128981146143524,8.561488159766904,19.931327485310494,29.036347239346227,31.36309725606234,31.74564286246182,35.06453973214226,40.94647537402867,46.07491198965045,48.353151006137,48.896816553591684,48.329045038334215,45.70616428935842,41.77491311646594,39.05877942825048,37.710729061647314,34.30886051447313,28.458685391353217,22.25523097573991,17.181475015238036,12.77591272134961,5.508700359210729,-6.461509589151473,-17.59458490666665,-21.878069395367085,-23.359818465165997,-28.34826903102337,-37.92726280506609,-51.63397850698071,-66.8128087729571,-78.78785415664471,-88.87882593309858,-99.7510979396791,-99.23399889662328,-73.35853398223581,-35.0878915986837,-10.637818856386009,-3.971706803803251,-0.7025398129797565,8.06946506194413,22.292448014294486,36.03712006939754,43.4497903959097,46.147141159468795,49.12757855638083,52.8755997199125,54.76897881347801,54.60053315461829,54.27500272143687,53.89002758455724,50.09404118403656,43.85741608368625,39.56240338154092,36.38898173228177,31.90968864785686,26.67545925849789,20.06536526020184,12.087967880624948,5.950556227846034,1.0932163119919525,-6.4725745161789145,-16.594647365632692,-26.145953286015992,-33.54269254067885,-40.21803466498747,-47.602755284075236,-54.52248176682235,-60.35302785756179,-68.57023804903726,-82.36735513850206,-92.1651854480366,-80.15154687164245,-45.02928932771007,-8.511114894546802,9.981528296075025,12.093140620299671,11.64303586427814,17.190842112416195,26.398242687635083,32.51365450877834,33.61634940260217,34.79871130109885,38.90071399278065,41.98677399101918,43.58400081990895,47.7961564535902,52.001398038562265,49.56733282497503,39.94540291703412,29.864302652587057,24.82309911521443,22.323452750714935,18.12316201324702,11.212081160323141,2.67610223685701,-4.4202592102310465,-10.105933585325701,-17.794577503263586,-26.820661166805966,-35.14142311034748,-43.93318567183893,-54.05938287177149,-64.66651626493835,-75.17060754098466,-85.37375213344521,-88.91201104774291,-71.7403061798581,-36.125828324330676,-6.654040404669459,2.654962313626489,3.779796546849568,11.71107142191273,25.39819446425231,35.97821313510351,40.77707558001831,43.346977614975046,45.535223685341734,47.079756381706815,49.272828631735685,51.01347673687071,50.436972094757266,48.27299368360859,45.36397620167887,41.660396082979354,37.116212473713645,32.445812970940544,27.378004395990384,22.0066851044545,18.670199207886835,15.758861838701431,7.7887731944719585,-3.959601974679029,-14.708572170275566,-23.249142388549338,-29.806030774530765,-35.225994151042705,-42.87253538333869,-53.19744317378051,-63.267186095173294,-71.82283589622413,-80.09682359767766,-90.23757840463132,-97.84169867635839,-89.80084453174858,-61.817855791070365,-28.98498119939035,-7.53758065596229,0.8395495361567733,6.513625398282237,18.53624564224922,34.91866982079296,46.801909223260196,50.15595688802202,49.69388980204265,51.677223045605395,56.475979760182234,60.234386931078014,59.95160407723337,55.75037531239479,50.168909187524704,45.40329808979966,42.274883219342485,40.44874890609677,37.93238154903713,33.95794898960327,29.366300763138295,23.394687301323792,16.098598087086874,8.663576269651312,1.8117598581745653,-4.975970826996602,-13.548291418299648,-25.31492762706287,-38.17730518636222,-47.77068427134679,-54.439187462842746,-62.57055587728062,-74.05898874656421,-87.76947241067262,-101.63192688613853,-106.43471574758955,-88.01899877137791,-50.27224429232483,-17.51788719524673,-4.1905479114837805,-2.421205360094691,2.49445870419743,15.573931245466534,30.37924383361753,39.712688285202915,42.86539668491442,50.0,113.0,75.0
30.313913781495852,31.366067204275353,32.32880079519108,36.621912061158895,42.66100796276289,47.02169780881745,48.611113625363124,48.88675116334694,47.803099784228486,44.602654824379606,40.7676818634673,38.655639968256054,37.062584007637824,32.77022964088482,26.629770118673985,20.626327408339485,15.957767914931992,11.149339522940451,2.4388590427013206,-10.156689458630169,-19.555257286537604,-22.229633975927584,-24.311751342470746,-30.663845362351623,-41.50431419604916,-56.09178258198419,-70.71741710268432,-81.6430847729048,-92.1299339288658,-101.66753352883657,-94.40764427885733,-62.303231553805006,-25.832543013372597,-7.428901991660727,-3.2835876368672516,1.1374345063218965,11.789142989175538,26.66316405298797,38.91414299833096,44.471424399775174,46.83645836255617,50.25256207928337,53.68587361033394,54.8670414974364,54.4344048298673,54.29724964848623,53.24880013033304,48.32316113832944,42.32244117618008,38.696483250723624,35.233618744249895,30.452293744675302,24.978401384191283,17.782047140487595,10.016379560052295,4.603704616739028,-0.7082822438762217,-9.268628865426509,-19.53442760069751,-28.496085129986376,-35.432240220309936,-42.29644759814574,-49.726222727215934,-56.25805882188079,-62.22786115033252,-72.08528419072191,-86.42681332896828,-91.51105413639732,-71.71590149606925,-33.4449386107761,-0.9795258045888003,11.730615833070601,11.62983191567639,12.560248700564266,19.768231051353176,28.731921938945273,33.20419068536346,33.67912373320697,35.78174009778975,40.0868795512698,42.39944538021338,44.46777451774932,49.330265032991356,52.17646206778032,47.32134204839944,36.71412166313782,27.854680194935693,24.08528575554754,21.377151760622137,16.39929498372355,8.796119043131226,0.36171250771093877,-6.051772855277548,-12.041132316871776,-20.403080136127773,-29.297954171573593,-37.54557628369602,-46.74968754956717,-57.11444901497103,-67.7124028418647,-78.21526106394126,-87.67985382162813,-86.53844525910377,-62.4736616649632,-25.84506209355535,-2.0305630196823548,2.942041760235829,5.096997008853839,15.475066915351189,29.07199025997253,37.85163673481027,41.57924289931085,44.04617494645472,46.00382068792599,47.61984590088535,49.94468207451735,51.094772581425346,49.910937193037746,47.5062222107691,44.382461211786016,40.41634645143687,35.75327298655642,31.06915080238325,25.767798356730342,20.76326493349711,18.04536561380612,14.10316614662872,4.5309959624747975,-7.288452862495811,-17.389891343198762,-25.347800144430146,-31.37356108183693,-37.0678604233792,-45.707025725717486,-56.23561634641584,-65.8898163843781,-74.12333395700573,-82.82458660036599,-93.18391134015802,-97.69786811859743,-83.38108733226923,-51.92798893803837,-21.221778564212052,-4.105831932586342,2.2106404841483522,9.185646223995258,23.190038604974514,39.165065627898656,48.57724772204235,50.07391367826363,49.86554854236968,52.91782044078465,57.845619404694304,60.63220516503976,59.046336308709236,54.160482860782096,48.64534762054138,44.32419693241921,41.67199792836965,39.88833253071729,36.890091963844355,32.694240306373615,27.830309949088175,21.36461477145533,13.923712365054277,6.611210885263164,-0.08720799057755312,-7.177462179599523,-16.620677203645823,-29.126658382949156,-41.4034084032463,-49.820941482415854,-56.46504538339494,-65.57542607265822,-77.84640642288929,-91.95321820242125,-104.63642671621325,-103.87274932083386,-78.19860025632121,-39.20714122346898,-11.676516539905942,-3.19028888727848,-1.8173710511179322,5.574011095230126,20.081331989344104,33.80189045607413,41.132081790509815,43.15280338237924,44.3973476360982,48.2739970512332,53.83319251941357,56.73076552663438,55.93003322126194,53.204768133895335,48.76562372181132,42.400841729351136,35.41299331167102,29.00878074978954,23.567671703606372,19.40000716704916,16.017626367466423,12.745884843651927,8.29969297155105,0.9260874306180902,-8.994608362605064,-19.300728680625948,-28.850436400469665,-37.20563921606551,-43.25272048604479,-49.47925365474399,-59.72302973631392,-73.66060759836166,-86.1841029952097,-89.0322092457708,-73.4159264654734,-41.49366840534741,-10.98468539020623,4.149235406596736,8.575137764032933,13.933505263619079,22.705417003781843,30.19123222547869,34.89458649405146,38.67711446868278,41.00730200289555,44.13482237182063,51.51557471492987,57.49827391901599,54.65281921257447,46.27479129958231,39.91597223258534,35.572894347416714,30.353751215694352,25.823867605623636,23.775180816724692,21.115986182163546,15.638692205452552,9.085963555997234,3.0665130635630398,-3.0327353676065814,-11.031042243962132,-21.423905126483234,-33.46582848341416,-44.25858217641781,-50.76925731957674,-56.15716948591559,-66.84477021267467,-83.41226810869149,-99.70724065606775,-105.16358051143241,50.0,113.0,75.0
-51.76343696017829,-57.91035711482226,-64.44415703929744,-76.09211407408937,-89.74139208472025,-88.60802628685288,-61.59588984919141,-22.434537147710277,4.745459505888319,12.365679193666324,11.324471072822622,14.069449696638078,22.50613378215484,30.636199627865395,33.51886062530641,33.92062462532105,36.994868579550115,41.04753482326838,42.77746448684552,45.65649637067147,50.70113249135441,51.64901172754501,44.55124859010906,33.66110830194957,26.33401961404923,23.418777866003218,20.22165403883158,14.445283732680203,6.293624295779446,-1.7430368439380335,-7.634619071947124,-14.222083158198561,-23.044922040540662,-31.694842430623396,-40.04715560681419,-49.66884471445663,-60.18590264004833,-70.74244434868824,-81.23851897327219,-89.15253790527349,-82.06411345650228,-52.03038490097512,-16.796597175305347,0.846567365058436,3.047949306571343,7.228235774303985,19.521977145166254,32.278122002119,39.27426680245905,42.30850005448638,44.705571578559336,46.42688782340451,48.25241715219353,50.50865107662039,50.96093618546192,49.29287600075186,46.681396108718545,43.33238516159935,39.10288336819802,34.40622954670164,29.62774859674688,24.1652843201637,19.758972905960945,17.33417225830083,11.90111796710568,1.092126112051278,-10.445336400991717,-19.891998056110186,-27.279614406242445,-32.88862337364213,-39.199923974231325,-48.70707694858527,-59.18387129513349,-68.37712756823623,-76.4588389297622,-85.75566266680039,-95.70224943314189,-95.8654171969673,-75.40054306242487,-42.14926120903367,-14.708539837117208,-1.636397228417575,3.674779840668509,12.534016073608125,28.031669591012882,42.80802361086637,49.63276223027339,49.862850080834605,50.35959237914433,54.33050348855692,59.02293479237244,60.64036384688417,57.85547201648825,52.52460382921145,47.232031415462366,43.387897111476974,41.159872925770195,39.20348961453233,35.743609023053466,31.394588034444446,26.139947941634627,19.254872460261293,11.760813418238612,4.622772255713632,-2.013297430798784,-9.579920504467793,-19.98178345157139,-32.92680558646277,-44.257023810430816,-51.70809488830878,-58.72919067211006,-68.85611694410925,-81.7867430748452,-96.09105037391595,-106.53735890648126,-99.04450299378765,-67.15706499503524,-29.24628617577774,-7.565560520477149,-2.7863488109360155,-0.6173451597102485,9.312917712830036,24.499740492408222,36.64117811066049,42.085935645743604,43.384835087189586,45.18601810352546,49.887333317430695,55.096247449067235,56.801471232868145,55.28917262845716,52.129825169773845,47.090798175827004,40.37290087511644,33.47695081324761,27.324261722120287,22.23170173259796,18.380583856356836,15.088892536009965,11.675207269914978,6.506535039330847,-1.7611513488514723,-12.026289805151142,-22.135862251450533,-31.45172099964929,-39.17421069079627,-44.82646290777387,-51.93667968266845,-63.52263176766508,-77.73501005989885,-88.43738947679303,-86.65957844950472,-65.28792559167066,-31.62103469101815,-4.892964610110524,5.954955347943364,9.686418827019489,16.28563490679795,25.191960779663443,31.746598067087646,36.058377613000246,39.5269119037034,41.58102145248447,45.88335458321024,53.834843092717605,57.671072194966165,52.402799643697385,44.059919463710074,38.62890444201962,34.17768414036294,28.821012260934246,25.03093755580952,23.26157475193378,19.788168446317446,13.751671169010393,7.272010960979443,1.3976044186628818,-5.094863686622049,-13.798792051936461,-24.808161165111745,-36.90106623139182,-46.592190240344536,-52.126489394000544,-58.51904409642998,-71.19941598389642,-88.54490896672485,-102.93455502775704,-103.11166230812839,-82.02276650323597,-48.24712599823442,-18.19453934714652,0.48980918543816065,9.462545589928169,14.415440984207445,22.11327439945534,33.69221882249846,43.42169067202655,47.50787599358626,49.14490347043137,51.81947899851276,54.401371671083204,55.22662928603,54.6116915412678,52.29000926328917,47.983506121281565,43.804242611875566,40.78848753610066,37.59320659325507,33.364897075434314,27.62099186518715,19.918669364105135,11.149618446322844,3.629590290490963,-2.3118250341682236,-8.63056055981282,-14.976611401692939,-20.9864877060385,-29.009597655893668,-37.65072356997585,-44.79602864451022,-51.98995863947871,-59.362732321137344,-65.576963685443,-72.17665464028293,-81.33014229032918,-84.4462842473352,-66.2113622845344,-30.924216724272416,-2.3887070229130933,8.99256437555069,13.54939936986415,20.084620807373742,27.680835309863184,34.52242820673278,38.70159241766098,38.38912809986362,38.651131176722615,44.30660382741587,50.292271990617046,50.50595080979059,47.69066122307993,46.85253313644394,46.16266920367907,40.616147125771846,31.036705301327753,22.902574448952706,18.78384139606473,16.972208603641864,12.31940076350222,1.2612137751451464,50.0,113.0,75.0
18.976616330995565,16.35076417884995,9.185711076461354,-2.3803216903597133,-13.408505772174626,-22.226976991285326,-29.044181864379304,-34.45482372430532,-41.646094059539955,-51.77963358761559,-62.01026877373371,-70.75319194712445,-78.90906515569836,-88.82022030678732,-97.42509173847178,-92.15448789486364,-66.27418271558469,-32.93703479008926,-9.507165705161803,0.1549152306629749,5.496227606805216,16.518695300157198,32.8078032305707,45.721633251712475,50.09527324870708,49.705856495042994,51.19002162253703,55.805673910360944,59.927444324079424,60.25537014725329,56.4503178472915,50.90017897455967,45.94849565268012,42.594231796840894,40.67930785247909,38.36818458461666,34.53081384473385,30.029436198672094,24.293175891209287,17.09980200826811,9.629917706536075,2.690163710668187,-4.014337671128779,-12.23144336766744,-23.58963858697427,-36.5785656213103,-46.7383991810138,-53.56092992143525,-61.28686816365179,-72.37103811492553,-85.85773803484577,-99.9907509810578,-106.89864302325059,-91.97221415112774,-55.58525406068746,-20.817728932604105,-4.967113392194875,-2.5663322019610226,1.330091522575987,13.529911403274069,28.623365470300158,38.87792491213267,42.67976230788102,43.6756956516407,46.25101492988624,51.56036956905083,56.02496143590591,56.597481068213995,54.52907080326721,50.89341680287959,45.26345705714959,38.3368181864723,31.608010320715742,25.724639996540027,21.010710539043163,17.402030218791175,14.16037391444309,10.457255167803401,4.435000057171991,-4.623688403190161,-15.02893680453831,-24.907614168365438,-33.92606487397857,-40.93024505835581,-46.52849044100183,-54.80341328171486,-67.56938638280782,-81.53377312283548,-89.65128793963302,-82.5439873038232,-56.03184661346535,-22.411332338664888,-0.2670171890152787,7.166517715440389,11.124313957796694,18.858833238136796,27.435791654127332,33.105692369724025,37.182741835073536,40.21004826587218,42.35671600662797,48.01922421515166,55.78808129240606,56.9896965174002,49.9007096648529,42.159610526998186,37.41618698770283,32.66616358045691,27.43679169011017,24.448132723423388,22.57359296854229,18.22551283444997,11.837952145138335,5.525409390772191,-0.3195911008043943,-7.355303495849123,-16.763246609893407,-28.30347427492769,-40.128472768067105,-48.52012477742029,-53.55243115388872,-61.46237630201128,-75.97870893948725,-93.45915666749835,-104.95849023486761,-99.16047129414599,-72.80831117246595,-38.60690745789933,-11.584060503068741,3.879467949265795,10.989363868605908,16.136342428575542,25.239233789829523,36.985571054860515,45.15440571470353,47.995857888025846,49.7903493926968,52.68581897253539,54.82967931256115,55.17775948871133,54.160638197658955,51.19637473268246,46.651813386978326,42.85558393824278,39.94264837692401,36.49555797979265,31.887598551750706,25.59742621198885,17.39853530325405,8.764982372759489,1.8297239042195823,-4.043090564487449,-10.545311689756257,-16.649535947993414,-23.050485101679673,-31.60916137393985,-39.838677070044675,-46.79905777878732,-54.16996602349822,-61.29560016705659,-67.27233481650197,-74.64889666258928,-83.59321975777806,-81.76400151778229,-56.824826390763285,-21.023187881874573,2.4402192492652865,10.404979150576665,15.153797379359805,22.300043787481176,29.7676241941819,36.15742928511668,38.99552826421035,38.048691477057275,39.774490255195666,46.391192491491324,50.996839760446875,49.713917916138115,47.16966963975674,46.89302713191559,45.17748212045866,38.03623397343078,28.32806431862726,21.306792849381022,18.19571602901782,16.18718290126015,9.74692474066649,-2.6515338981809617,-14.572709334576636,-21.23488031588413,-26.19484415916331,-33.06952955613596,-42.107998342385756,-52.36118874349316,-62.22412092624943,-71.87843493631041,-82.75856353741139,-92.22956570452538,-88.58191956910834,-64.15156110432243,-30.416613380268217,-5.062880271702315,5.703300794788671,9.503957484734414,15.354235105671568,25.53506536396168,36.316558015770696,43.34427316084807,46.00504213357532,46.04903696794372,46.58170565763716,50.95775097589384,55.72259527085499,54.662373513861446,50.3028524864868,49.827692457738266,51.76930760506632,48.28312079575247,38.68536925154923,29.42663653630671,24.327618346905275,20.190883442070323,13.181063132550719,2.6783903594575946,-8.553737373193268,-17.74383778127163,-26.11834741980884,-35.16867334633426,-44.22850613329985,-52.10004104545921,-59.13549782964371,-67.55207120142919,-80.10547016071692,-95.67449208275085,-103.91984682621067,-91.63160185696461,-59.012630154649266,-22.88432917203962,-0.935794072725716,3.6910119206018717,3.587941693163662,10.664587049927405,24.068977366098753,35.636838236964316,40.66203290227712,42.30055504918775,44.07886697145913,46.321620963247774,48.676475444782405,51.10720181126033,50.0,113.0,75.0
43.03462175936974,44.120164820138264,47.5830529774312,53.15839764549223,56.58986545083913,56.17960891205692,53.65195292071757,49.479123193238024,43.32201769461065,36.325309823725405,29.811704700662755,24.22301251312485,19.889767914437364,16.450006744669004,13.20572102896773,9.036237956593128,2.0913986260902653,-7.600986096782716,-17.96961343035118,-27.62127158660155,-36.2205339000651,-42.53611574068014,-48.473864879827914,-58.08196721754982,-71.73802268743022,-84.86458877311935,-89.5709916053332,-76.6773793642218,-46.128364731703726,-14.284181655270078,3.0192220521353925,8.129880372517244,12.9579257992435,21.5039555166112,29.38856981569761,34.34538769362007,38.23274673727233,40.76651061877194,43.4765644622626,50.39709813106617,57.133788207204866,55.536986119701126,47.38440823254588,40.56586182925072,36.1753680167643,31.084739523762916,26.274181974892493,23.983214848710716,21.638685465503656,16.483984530174897,9.943563886379629,3.8348561855796106,-2.1424766543977354,-9.82335576753586,-19.913599289611195,-31.84329172215605,-43.04296588262156,-50.112837438589445,-55.24170526571014,-65.01206791211757,-81.0355943547242,-97.89843387325814,-105.48986368425764,-93.36222958443139,-62.92740832896238,-29.653715620222982,-5.984308533467227,6.555031836590229,12.345787353089584,18.246181687516728,28.624394649857596,39.943770795653144,46.39042792609996,48.42022119488963,50.55971247951728,53.4796791178863,55.093405570438144,55.02793115280189,53.541561279462165,49.94817033990697,45.40548247660409,41.991974599048945,39.04235325018534,35.3022132407432,30.269701408392834,23.401729915552874,14.83347289222367,6.545539081814245,0.1309176353268274,-5.857949645133958,-12.409353621888972,-18.32934190699718,-25.3424738285264,-34.161906806788366,-41.89581425541484,-48.86251098343702,-56.33244377608654,-63.10044652351773,-69.09089994806936,-77.35601018768868,-84.97960335384761,-76.94646107273648,-46.44121727332595,-12.324608906959028,5.857700726868089,11.621274391205338,17.016381523282615,24.519664468192545,31.781839335704614,37.4854646583604,38.90849464982299,37.96633795035961,41.38565232913627,48.280077798598825,51.13681590862767,48.828659095897386,46.89975640475233,46.81435807238424,43.68233663214107,35.224732101511975,25.879659954469076,20.058787121817506,17.726143576056806,15.005121700359053,6.6091249131569025,-6.511359779210203,-17.00338587597082,-22.594953298463537,-27.944951023829486,-35.47272383026862,-45.026061252668455,-55.2897135563774,-64.97069927225861,-74.86272462017953,-86.00106243291373,-93.15284671036011,-83.5048683621678,-54.49758187307998,-21.64724148335151,-0.6010731338731589,7.01928793346237,10.746746853012182,17.92884794689615,28.83261645451494,38.833257212399026,44.50577844805462,46.185591471745084,45.96107820086943,47.42557008836843,52.64353684932973,56.11431239856637,53.38521816298516,49.59404409548766,50.49198818027814,51.5633585721786,45.90647093629629,35.67506810809518,27.561715490983367,23.25785305948376,18.549963504108074,10.44481526751598,-0.6737372516839715,-11.432290333352046,-20.140148621335996,-28.65918627722923,-37.85014397667679,-46.64759360552608,-54.153587046360016,-61.29066160480228,-70.67246039483364,-84.55954010613053,-99.47663199124958,-102.84532076090413,-83.77559663864037,-48.00059446185247,-14.587651406343234,1.8315693448334596,3.428471262649895,4.689192471324822,14.20161465844288,27.962133225188836,37.73686867789885,41.25388610706495,42.75037343168284,44.69237174709365,47.0104170165978,49.335696179258136,51.98597065551118,55.59923870296833,56.12917945435775,48.35196775938013,37.15649646045808,31.495140056712827,30.149953243561633,25.636556383847356,16.258420271486127,7.907801649527514,2.1045590230132314,-5.820265756214561,-14.994888311746747,-22.03210687439245,-29.345650884898113,-38.30827765625225,-46.009522931627764,-52.531249250641736,-61.06223543376796,-73.12688689942904,-85.21719250874405,-83.08622676665674,-56.28858296574271,-21.070892804144393,-1.7762298537227839,1.156425828267524,3.7697686695185273,14.12387706404539,27.886048506710093,37.61529989567596,41.02040025083651,42.39489182590691,44.22257837512656,44.76952198575341,44.68180331722056,46.696203069890345,48.11787779223358,45.56900937914415,40.846591869351926,34.802026480527445,27.668536340870112,22.70341310000163,19.82814785411261,14.673494206299463,5.370414967625222,-5.11841476710701,-13.295932195557308,-20.08721498942019,-28.05932640058416,-37.314083458188954,-46.70233892785648,-55.91730863465464,-65.48806577458552,-76.72116476821054,-89.93334467190707,-98.26657563913784,-87.70311964038464,-56.77955746643869,-24.26441633771869,-4.9434384474167965,4.473476846371897,12.300527378366745,21.686224781868592,50.0,113.0,75.0
-104.29129296192534,-85.91938126360512,-52.84444786353523,-21.584835620972616,-1.3465009956533647,8.650556141482449,13.722843795647083,20.79465164249822,32.10546519945725,42.44375979407835,47.223465210987186,48.89161440859268,51.41363819865282,54.146764094289985,55.21303315589933,54.77115512018898,52.73088222504171,48.609582976913565,44.28006148141694,41.167959174513065,38.069374993942986,34.002971740127535,28.49541794848082,21.04848408227577,12.2931778772457,4.509130080020547,-1.5356164333905993,-7.746138962335696,-14.186774668444972,-20.108547853058706,-27.823954136967295,-36.58731666752664,-43.8838502889789,-50.99159457079301,-58.42969303593517,-64.80612105777242,-71.13678069731868,-80.11808957688196,-85.01075179004549,-70.03284986626518,-35.75687183297105,-5.148553218922343,8.183371733679918,12.896239332728495,19.084813435384753,26.696998612402854,33.692840283174625,38.41889479801141,38.57447479389468,38.31514763782542,43.34298832180282,49.77528384202044,50.79133246884607,48.010247285061055,46.83808095507402,46.458239097165674,41.68667454776687,32.34414369855747,23.759859512614696,19.124121853774128,17.24240322711458,13.302103512554856,3.0200582473463,-10.10701444570593,-18.965736729384464,-23.96562295645828,-29.889408558681446,-38.054009567468995,-48.004772321177484,-58.15190750899261,-67.729038876786,-77.99115043948615,-88.9860597972062,-92.5980918567567,-76.66285942237249,-44.53300504626127,-13.966485388673144,2.6545462430557514,8.039746234106776,12.324636751705262,20.85195734813813,32.04168947162556,40.959926835516676,45.32578857318933,46.19719095853873,46.01318931688656,48.654027111940785,54.17461762448556,55.90751825724326,52.011730483492705,49.365493552997904,51.19087034589938,50.71591695763184,43.11798590492303,32.87973144852353,26.064957319951063,22.13559900639463,16.605889875782033,7.430978370624326,-3.9824912002841923,-14.10722983855954,-22.53425831183614,-31.269905784147486,-40.49810990845382,-48.94503415523894,-56.16372628981733,-63.63295354606341,-74.20391495613194,-89.17481830350275,-102.30929636091304,-99.77139504124285,-74.42516291772584,-37.22175307909942,-7.8301693230803515,3.264941687865556,3.1904813713701654,6.574174209007624,18.121710522783964,31.475454192072494,39.25986184800918,41.70172280221293,43.25394066995574,45.33724826872379,47.696899999603524,50.011132732831435,52.98479952112957,56.38840544551467,54.76205980144863,44.98575813074516,34.76814678526055,30.986989788546573,29.440408334839013,23.23331457127297,13.482380541306961,6.157189881969923,0.16906856664319334,-8.569714519075436,-17.237879818429956,-23.946752236374778,-31.863427347520638,-40.77361563697933,-47.87278762199689,-54.679550303873896,-64.1820249279937,-77.03969086205188,-86.87000664179682,-77.70888118543769,-45.686739704705865,-13.27422458255308,0.10580399453457309,1.3012296281051083,5.992447304503073,18.102447585526498,31.36710863118824,39.131637247685454,41.406940518369375,42.917104646400965,44.586252048794265,44.65116087844051,45.038724313610864,47.407001330685155,47.782340833632325,44.313501173486635,39.280747215799096,32.74006667902896,25.884313720201675,21.82849351523953,18.75059699425355,12.359487858917795,2.254116569111601,-7.768929398365969,-15.26526125335992,-22.207991263880306,-30.65927810351899,-40.044305684708924,-49.37413621321028,-58.60205720262214,-68.49364102530105,-80.4356339777966,-93.42812488704182,-97.67389867150355,-80.27821445744347,-46.56947236260637,-17.17612878026503,-1.636046865316319,6.660275777108524,14.820343061529876,24.706232921302018,35.45039034412731,44.482476172358716,49.08398092359779,50.25688914307787,51.97834411654338,56.670167265627086,61.04843801929044,60.53807371717589,56.10176720907573,50.51486799578091,44.53259894453341,38.25517532703145,32.139686762864535,26.241642785946254,19.644861720138618,11.920943145412899,5.5926222295209636,1.4531280189912814,-4.795410498599557,-16.986189689201503,-30.78520826146036,-39.3426240635279,-43.96419017927932,-50.87603904582586,-61.410001600855686,-72.6691368176191,-85.17944884679119,-97.64488784171924,-97.42331518769144,-73.91754390132327,-37.42170909254437,-8.174382827828033,5.667222177423907,10.157460880812561,16.731643891386145,29.210547673813117,40.53295248827107,45.30506420885972,46.527641429239864,47.330879236201696,48.461893511430745,50.52258359807216,51.95074206359261,50.958815484739915,47.18907633159193,40.31589706795252,31.935963148486685,25.71286859782524,22.60334956547463,19.91773846577873,15.242989959993007,9.117121002866197,2.5116990731278315,-5.100073999283757,-13.282929279722287,-20.994653064329686,-28.717971397183273,-35.957740973147615,-42.252629784185245,-48.52113315300105,-55.32917318517583,-65.53722146044157,50.0,113.0,75.0
-0.8403933186187255,-13.278874136823998,-20.572649696319633,-25.452444406123785,-32.02326051408452,-40.797086785611896,-50.99285823785527,-60.95029698647571,-70.546432472458,-81.24105597914583,-91.40554233733114,-90.28478407086148,-68.35816620885477,-34.74616641756699,-7.563075025526172,4.9186072568810495,9.014114619890993,14.302004720208888,24.024030914360562,35.03623729841214,42.683059110833575,45.8496988142507,46.10456294810498,46.32367168544085,50.18824681619478,55.347717053233126,55.1562590339246,50.772411222509646,49.596358555236016,51.678983811458146,49.1966712255559,40.10052192077416,30.424159583426434,24.838066878237523,20.856059127493772,14.337246790249594,4.208684405966856,-7.15499753154214,-16.621379887185462,-24.97204775149234,-33.93196855669738,-43.074116257969294,-51.12752249622897,-58.18331542102804,-66.24035199168864,-78.15413861260893,-93.70333081003515,-103.78881802166903,-94.65379710573328,-64.02283378854794,-27.162558530018362,-2.730587318855817,3.7082013801617637,3.325981558550211,9.217945994015231,22.200195515959404,34.46165292741951,40.30458029221977,42.108150065081624,43.80844769471024,46.006890867453876,48.3707212283191,50.74086927138583,54.0683909609581,56.74745317846339,52.617918240532376,41.591121920300104,33.01044962213835,30.682509633883587,28.27759232402612,20.48987666344314,10.974588887482014,4.546634620306442,-2.0674346999163715,-11.299368481699043,-19.268166758971226,-25.997570257267768,-34.48856230970321,-43.04482063490684,-49.70565519017759,-57.06671434709341,-67.62174993944662,-80.79259580676748,-86.85840488805981,-70.19783036987809,-35.08213522410601,-7.282549653916014,0.917283200248928,1.8377823086572391,8.903883873813243,22.177651833277093,34.33933827990438,40.14889011989414,41.767084878362056,43.4764631651607,44.779065261400625,44.55782545267813,45.61746132740868,47.92826393155503,47.08603904179438,42.95963500675194,37.57687787702552,30.627028276540297,24.38088069067944,21.0528508867433,17.365142066619484,9.702353386111561,-0.8447234161399348,-10.170647876679999,-17.191105028056988,-24.477267819995614,-33.33682181805587,-42.76343350363604,-52.03251696081429,-61.33614779484527,-71.67983821110465,-84.30305677690896,-96.2377803154014,-95.12864982298967,-71.3655957182139,-36.817595296998,-11.371112468021142,1.080229047164375,8.876000093543379,17.49893511981168,27.8072823575754,38.38545945826051,46.314870706133036,49.621383970367745,50.5169102484799,53.051240917535694,58.239442124961286,61.466837004905535,59.51505325426205,54.53002698501604,48.8348455560981,42.72652193613704,36.45825732681967,30.430215310104483,24.471919041409688,17.461595349054335,9.822150170073954,4.274153624490841,0.13535876704235655,-7.7274224225977015,-21.180882315257673,-33.93496516832412,-40.79858499086629,-45.52376156081489,-53.66829918618952,-64.66429699968747,-76.0480373210205,-89.13218915425186,-99.6243403845317,-93.00545579786451,-63.76508871339131,-27.53511903203189,-2.653973351492706,7.422326172916936,11.421517743893226,19.909186802290026,33.00173856757294,42.569771661298,45.807366420771125,46.76325524813216,47.58295769016044,48.9792943828864,51.114450049037444,51.93957202953819,50.16967676843268,45.51763952031761,37.89013771564684,29.786448160693812,24.56846437542803,21.93826441436241,18.797023943715267,13.554452251100864,7.260371091367653,0.4420358168114151,-7.47744834759408,-15.553493485384706,-23.210230410032683,-30.915487219972704,-37.83536588502358,-44.04657232762354,-50.37003319954208,-57.73881703876922,-69.57856348381218,-84.24685435564513,-85.4815247961516,-60.13383886241945,-21.302840641457028,6.179641111526914,13.311798634811908,11.106569043372883,15.700059982762246,30.140239967882106,41.44527365443372,41.09214307485607,36.84760194028895,38.405681634041194,44.64844182373302,49.66155273766267,49.81448080155217,45.2211945789605,38.482821704544804,32.25088496783256,26.743222517699884,21.288262570800452,16.94296234430971,12.401942363483196,4.266330081470276,-6.790100242073193,-17.93785268914107,-26.904103776507444,-32.09166652037288,-35.600197810652695,-41.95912869816458,-51.86840957389308,-62.85023835436503,-75.08345031193947,-86.35377106431437,-84.38422148907084,-59.44766628175374,-24.19830382139504,-0.38730113084532186,7.272506579378283,10.444660852707663,19.62512315570541,32.81997790846748,41.569323374206306,43.118968774107294,42.19132110417782,42.36603013842547,44.45421421397286,48.85982016035946,51.74881216860703,50.521934808834615,47.92094880270628,44.06816704747133,36.963034805962195,29.880813990738318,26.328513886765954,22.30683205990422,14.003169333984305,4.338492336615356,-4.060127494077103,-11.673431674760351,-19.259197728532808,-26.2398821966889,50.0,113.0,75.0
51.5656697065861,55.144548175306326,56.49287201373217,49.81199888479201,38.4523253189141,31.855125056712662,30.361954806574776,26.590332974892394,17.591568749563116,8.800728399153597,2.911096700346013,-4.587128117160819,-13.879483200055756,-21.168669637573142,-28.24246203231641,-37.121007886905026,-45.11354075256965,-51.607183733666645,-59.731608304784416,-71.34297536176128,-84.0244070734891,-84.79542840375304,-60.96197776755842,-25.20666486401352,-3.12348371114667,1.1308112090983742,2.994034955091924,12.378822864437604,26.145732399670223,36.72187730534193,40.800928275385395,42.17853178075609,44.00754814427249,44.80292475325956,44.59631034278274,46.344515835595445,48.142786648343865,46.09801476977364,41.5321569294687,35.713153120028956,28.568156624254964,23.17212013169772,20.24638730438406,15.612339285764904,6.779163184328043,-3.8155887048778756,-12.350153756638761,-19.15262410985328,-26.89755059615507,-36.0552134806093,-45.46414044432817,-54.688910568058624,-64.15189952031429,-75.0787677872739,-88.19132443992986,-97.95614907279716,-90.5125219160434,-61.49170519174176,-27.961480632863957,-6.73916722214033,3.4454393284580385,11.189559995607237,20.332557089419147,30.94034381514173,41.09749410617159,47.72617988692039,49.94501170332877,50.93206144765354,54.39610449010355,59.63109306847652,61.40657628411996,58.243228585764534,52.91723195035544,47.116294470221106,40.90724827938411,34.683848999831376,28.73606155756558,22.605243574736996,15.19993153677062,7.926829874546543,3.1107849260594955,-1.5155971134848096,-11.195691350505806,-25.308601103922825,-36.51692945903908,-42.06572111952557,-47.420841927160225,-56.715545474135425,-67.90523152386626,-79.6089190229629,-92.96414740863352,-100.11020319773792,-86.52781291101194,-53.01526437079265,-18.715773311103487,1.5530726151332246,8.649755241746982,13.145084233969346,23.53666815904092,36.45059967182006,44.02010882685811,46.148169051426024,46.99336467198997,47.881783809968915,49.5819126862438,51.58547321979939,51.70484269261202,49.14433491089835,43.57543570393179,35.41568429188005,27.9083724498909,23.660555354276042,21.218069150617467,17.47855265019604,11.783953668499969,5.3731025661121405,-1.737301690489041,-9.863383302904726,-17.77699596756573,-25.446298148199475,-33.03797384972257,-39.646574802332225,-45.85638580938648,-52.279728794218144,-60.544012632212144,-73.98374742039583,-86.9170035272617,-80.84601190754967,-49.13534920456038,-11.350277582356954,10.130277635841031,12.854803124300043,11.220565551564679,19.24516609352212,34.40873765690241,42.45281266311629,39.692686563955796,36.5374401953745,39.999879103685124,46.44251579672879,50.27778177970404,48.88027692523285,43.36008281949296,36.55723067359243,30.6442195128139,25.132937127411722,19.88523228556542,15.824166688659451,10.491056299215455,1.2376859044667745,-10.103551514403112,-20.85746777429815,-28.788752073585275,-33.07551470929565,-36.993276826235714,-44.57570257006423,-54.9823584818281,-66.21239161879205,-78.78295826561228,-87.86156863232051,-79.44706113192647,-49.25405043851698,-15.491456732956006,3.1404234936350868,8.009924696059725,12.314580523734957,23.400596109564336,36.10372619722321,42.636771854535816,42.84669958759196,42.09656606061704,42.71144180182512,45.5733421958778,50.08210695073399,51.749646264156596,49.789744177473494,47.067505607345005,42.32594979765388,34.65431035790881,28.530194586633627,25.510132323501523,20.3080705141809,11.164243082613787,1.7638554201474343,-6.286817574575522,-13.868685628489628,-21.38919927525376,-28.00680013250349,-33.7131453381263,-40.78077721559844,-49.66684461044756,-58.021557230902204,-65.32923237216043,-74.69508571240873,-85.20096455073518,-84.20494017527639,-60.392070247067196,-25.338036725593177,-2.5785561436784468,3.454316580382537,5.522120902697527,12.868162414169571,26.060555470299725,39.00091438289003,43.87834859953073,39.27703361633691,32.555162373804805,33.637088310796585,44.18854493782149,53.89575984841779,52.487587029878135,42.11249529345315,33.298902178566344,30.85682176592009,30.17794533660189,25.46556531524654,16.237910729913242,6.889043964254266,0.4256556164661852,-5.666064002399838,-14.62847532519612,-24.618723443787488,-32.83706596938232,-39.436075934899264,-44.82809685775175,-50.85432718616407,-61.54218097024364,-74.89589523505741,-78.47428506492905,-60.74221762318091,-28.966109253082273,-2.5851592287244918,9.82448877104575,13.22266855332261,16.0423913586671,22.840984016463846,32.03607681659014,37.879681867647896,36.77641234864474,33.38862759215521,36.30452356557233,44.17263476328717,47.199213846715146,43.502542030704184,38.880430766247,35.02022952895667,30.101323722083446,24.017018113351625,18.383470500744053,14.25988992800745,50.0,113.0,75.0
23.30118019580945,34.04656470822244,43.49969727179249,48.73768646298959,50.16196002758397,51.58336084417251,55.932457238169135,60.69741591056638,60.90186499172389,56.80327010695409,51.27876835814669,45.35639801957596,39.08953809172545,32.93612082921066,27.036060808612515,20.61059706018696,12.938261605515345,6.27298415903491,1.9925381856224365,-3.635127366781726,-15.092075747072409,-29.15555120379685,-38.5574686324144,-43.33228239105999,-49.699423772483904,-59.91287187741757,-71.15282830733867,-83.38064877338064,-96.34759244773535,-98.74411005897723,-78.23904652314593,-42.24559566699533,-11.183905566324714,4.597151422285053,9.669753426322185,15.457691091830426,27.409435766087864,39.38356267465034,44.985865551250484,46.41505721975558,47.22265567870368,48.256952542166914,50.22753434514208,51.88233729683888,51.2459383570103,47.86727645524056,41.39009951335886,33.00055536478462,26.335231505215443,22.91570381492531,20.368164118824755,15.982720287167881,9.965403106517694,3.4325248590813517,-4.020056362661155,-12.216389537606819,-19.97900354367596,-27.68932313074117,-35.06069041166186,-41.430336004392544,-47.67754555130585,-54.319175704305394,-63.84003664760757,-78.46647820104977,-87.91473461952562,-73.85609800158842,-37.61865697564282,-2.913342070618064,12.39848762791417,12.032824618203913,12.268630016043046,23.483736354421954,37.99137636038724,42.4458554071417,38.29483255761682,36.86806319992597,41.84407070625338,48.00075920319801,50.4269912925238,47.59413988867715,41.392838866868814,34.73145394653213,29.06535198945025,23.529660710241675,18.614053887502862,14.602812782636606,8.21094250807123,-1.9638772023263402,-13.365449710221075,-23.536453150529567,-30.3355391266699,-34.01905299350166,-38.736543310371154,-47.43602688046402,-58.13417132854352,-69.72160615502365,-82.27894941761507,-87.84271256538183,-72.50517822150857,-38.762997621835886,-8.21043767242768,5.439507188046282,8.747009896634085,14.849026426350264,27.32610397058102,38.812458863461636,43.13034758198166,42.53177950112918,42.11926570497877,43.247985060889505,46.87154356750202,51.03305417732648,51.41226512056195,49.03908595024861,46.043268239074436,40.28647520010785,32.49876673485916,27.501483504974548,24.47479539932527,17.934567841004966,8.327992758580166,-0.6803067900398633,-8.479892472679893,-16.069039618248553,-23.440312412618244,-29.673630393528725,-35.51780713861528,-43.24507152005713,-52.233584066391195,-60.15061910663744,-67.67604009723125,-77.95973834400871,-86.84729222624428,-79.68144149230405,-50.30156048914116,-16.775442087084933,0.4342705617222148,3.873295127112581,6.9290082901532335,16.246339175437218,30.2049944998961,41.483142878467575,43.33732187987242,37.074427020990974,31.748873401532776,35.98855467923436,47.687437357098034,54.81058988510762,49.984021850637845,38.982619380690444,32.0146895235499,30.797632979990727,29.372822680069667,23.126786816604337,13.321496805703624,4.7402563702070895,-1.167414634778702,-7.941454051995749,-17.582776188191584,-27.21298952560106,-34.87320971174145,-41.10729421143426,-46.319237532225614,-53.35488230064819,-65.50268841194762,-77.64215394990231,-75.66382711647093,-52.1508237140326,-20.077925339011813,2.3881952308546914,11.343816498939919,13.78110653693982,17.55604325372395,25.46313413084232,34.33910374530101,38.24805354136771,35.611814365167156,33.35915491163464,38.485474106209544,45.88077060552216,46.59174726312851,42.05375079787844,37.76433375253735,33.76339911922893,28.40566965084117,22.268611306291184,17.021437703988976,13.407217586874594,11.53533853354728,8.415663150401615,-0.5128675284106708,-11.352985830551406,-17.689408277140615,-22.541310302373148,-29.685557018149126,-37.155157213165246,-44.90832822645156,-54.99876690490348,-63.12274585773021,-68.20535006284142,-77.57635067559107,-86.1068796353045,-74.59903126145878,-41.13068261300439,-8.672827630345907,5.376789887114085,5.897342064414258,8.370147046849308,20.76786826540785,36.14674046866728,43.76904579500238,43.03031393813697,40.907529175565514,40.6154140556797,41.72649333861306,43.01331890618068,42.88724324687264,41.65004907115169,39.98930043207321,36.97825458081288,31.854287180305658,25.741448915933105,20.750935644793547,17.820449349772346,14.52839593478417,8.524595069817487,2.208559846594857,-2.5052565163413485,-7.120754334123131,-12.87047147764012,-18.41691647661131,-22.922216009813976,-30.383386841347583,-43.09315989394729,-55.36016267926112,-63.358717568761904,-71.23132649057487,-76.77743492330877,-66.23373279578914,-36.11091560326517,-5.303539792654728,8.0263537646179,8.359374381746948,10.332944497435063,18.81688073255266,29.48448840536369,34.314201758564046,31.3887822120462,29.09675011401951,31.97004498072417,50.0,113.0,75.0
-67.65842470393149,-82.60096618514223,-86.7941492770736,-64.83624638466863,-26.285853302669512,3.7413676961383335,13.274188896417103,11.298656394775747,14.375850607574131,28.045567501281468,40.607566872521616,41.64568539697608,37.19284101529888,37.801858994378605,43.77245778710511,49.22850557675747,50.10979505262967,46.02257512022776,39.3949539920718,33.012493934394456,27.48052380035813,21.97532674120674,17.455300093110488,13.164895313282432,5.581268507188797,-5.258778938077153,-16.52778134341622,-25.91805412059005,-31.590152981341213,-35.05535651038035,-40.85852481569633,-50.44922954949269,-61.34179656095713,-73.37078816669603,-85.25986457488155,-85.95021734633684,-63.86934800884842,-28.608815348605965,-2.4971198020162184,6.833419522733207,9.792867250227854,18.000811113055892,31.15333141679886,40.85722857974544,43.19085563346856,42.2748961133071,42.25874478450965,44.016467984150665,48.2417984989225,51.61616871537905,50.83671453094376,48.28206023817841,44.76229956791888,38.03572034920206,30.626218510812436,26.68102453865042,23.08667408062436,15.28480616530064,5.5703706564021305,-3.0135622391289947,-10.664547402169887,-18.25927649830728,-25.38450170575645,-31.29070338806362,-37.50643084186112,-45.82897088138685,-54.6875443853161,-62.21880477899594,-70.3048683430917,-81.20037831820416,-87.1013087466473,-73.1023180165862,-39.843707884123745,-9.771871728430124,2.229648958574851,4.3238425845553605,8.909405402862614,20.05243908768381,34.12607676598647,43.116920995977345,42.06443406370041,34.94830855335555,31.81876335533237,39.04452031382933,50.76606010997334,54.62607576595029,46.93139815106113,36.26073260491751,31.266414088989894,30.706242888326898,28.123280356531055,20.461435622913154,10.53540872979548,2.8550241865610553,-2.8445376922486014,-10.50120134499556,-20.522858775318795,-29.620458421550165,-36.801314188934164,-42.671455685983496,-47.95085362040816,-56.34389044456706,-69.53774557308898,-79.16918358170169,-70.88942538751054,-42.8083822313829,-12.111848988278359,6.1625683849456685,12.317391148197233,14.489111007152001,19.453898314692847,28.189619588511285,36.19737259084301,38.003574643350035,34.470138572552166,34.04848039115821,40.888425736543155,46.93741572332473,45.51862305886589,40.67894109666065,36.67909222899956,32.37427926807568,26.63686795001355,20.605404775378265,15.793830306890769,12.722841625188826,11.017148502756017,6.477596456797711,-3.8516973616980623,-13.686132571592577,-18.964300119775974,-24.385171512535827,-31.926254611338297,-39.22172768220086,-47.642225637679516,-57.821215955189395,-64.61557916403629,-70.26638749136688,-80.92818268122952,-85.52368196517577,-66.44914292560384,-30.483495781788996,-2.551472697244783,6.271766106726334,5.778970000061463,10.990534258068639,25.464786990934822,39.42349472729868,44.13578455828722,42.29120407376495,40.6354307411644,40.8261285469364,42.16413476300823,43.1529237767647,42.58725502390279,41.23036482835915,39.31679446298894,35.70476858211748,30.095757094777746,24.102079079103014,19.723584575836234,17.088535643686967,13.037899698134902,6.57717231227805,0.7028841221555138,-3.75175133194448,-8.677317605713178,-14.59798120422184,-19.73663466418045,-24.535152888631213,-33.64150851881407,-47.023158061215426,-58.012195120800776,-65.46169781182405,-73.57433717118269,-75.97345416235702,-59.04874703314122,-26.1592543677501,0.5943643433341836,8.76698275707768,8.295717330327559,12.194565852686853,22.001491165009647,31.805028324287843,34.00100134057398,30.260606880270075,29.47056958320716,33.31045800062566,37.70283172565833,40.306867084421356,39.45695789394254,35.68051820354591,32.07486761891321,27.82678503550914,20.7447772686389,12.40755649625817,5.8186882431487135,2.5790000769801606,0.9077727623944251,-3.3682018207656217,-10.366480320252998,-18.1543368510821,-26.471128285732586,-34.04660600880448,-39.66030774558614,-46.91871975219441,-59.41803808666772,-74.7117044930917,-83.68285154061888,-74.17785427997148,-46.202340546605484,-16.335261817272123,1.5779400033862487,9.117044202588302,14.218085382823844,21.544894060831695,30.539625387712523,36.399812816128886,37.21159638370192,37.262522161963204,40.5914179048441,46.48949286399885,51.50644001065211,51.879070603633735,47.083804109094544,41.56485443085817,39.2178802751089,37.0615048948654,32.06436344315174,24.899103007801322,16.797681013196975,10.864208386710184,6.937343449038474,1.0619137988206506,-7.696741474070861,-18.294648233728076,-30.060135469265703,-40.11865124252405,-45.92127898320343,-49.61272720694315,-55.26821994914468,-63.89936820739157,-76.20308663889276,-88.31954658836163,-85.07679554663144,-56.779411945223686,-18.344964391379843,5.103800813315776,8.195899932092884,6.307174821551607,50.0,113.0,75.0
