-22.480223068864913,-77.157370067652,-110.55412702781118,-125.26216473149871,-143.73907727825815,-178.1582929043348,-206.51945977982808,-181.23701418043504,-90.33121463990642,8.752365977015273,60.72409017414668,70.54939460254344,69.62422411109343,70.9861571942783,66.90642195624979,50.50572127689513,29.068257047733027,15.111896628253682,11.70580095494719,11.842971566656226,5.96982879105583,-10.506927269563633,-33.42910317762185,-59.21170552158549,-94.5313634418839,-132.80186341780862,-132.53753316806254,-64.61047566377286,31.24476896501563,92.72924768350866,105.91165882909883,97.42625496488951,90.92165557345763,87.24904654856556,74.60484212676687,51.66368789928391,32.7706787780102,24.748096336842856,18.68718114372151,5.633902631413411,-14.118779755107255,-37.73671029892424,-67.94139605143913,-107.2094292749872,-138.33829187431505,-122.88945910934079,-47.823015830139276,41.028245106937476,90.37223732478579,95.79257298633033,85.28853328073116,77.16444574029033,67.251227524889,46.707252976116216,21.49134175516942,6.504856408328288,4.015935245479085,0.48490656531111787,-14.209418568104844,-37.3292118432062,-64.82252135034801,-101.17067907141762,-136.96527870148444,-132.84183567359705,-65.08287941755087,26.707236836098105,82.6427230621755,91.5476866928723,82.6154283302895,77.7577119844134,72.4768706460101,54.515710176743866,28.78444071738624,11.224758423292606,5.016017972104701,-1.6289545164232444,-15.79574002330035,-33.19712211561037,-53.88773505329957,-88.4475535340736,-131.38585871955345,-141.99514171295274,-87.1652302164136,3.699367078682995,70.97358656680237,91.91521536195448,88.04594648148402,83.72635430074939,79.68519854983684,63.936089240087,36.46519240788797,13.602294603873464,6.279423612163635,5.775475863614331,-3.155517886885254,-23.393400453534223,-48.161312038984725,-76.96510447387863,-115.73111044402577,-151.00650701270058,-139.0048817562142,-60.619171893337914,35.12695627383562,89.11187608373747,96.04183978497039,87.57326949255119,85.47745523115317,85.68117227770891,73.4213270971692,47.80285104550699,24.288389874529255,14.347931430645982,11.020623635111498,-0.823801139470815,-23.839652884353068,-50.42785417856055,-82.29890502966471,-125.38165257964381,-156.23732466783795,-126.0699074595457,-33.05376852929286,56.31046676057606,92.78703878936975,91.40621810094922,86.87803266556213,87.27923232015554,79.4872785905186,58.66100704546549,36.02658828954233,23.24334231878911,18.010578356172736,9.350811646023995,-8.528879921006974,-33.22641376441597,-61.822879289298136,-96.36064975135008,-138.22159370910782,-169.21559504682796,-149.1037005086081,-64.46084271374454,34.114123208831785,87.93376348445815,96.2016127926638,93.1142009783479,94.8343102396349,92.21128367516985,75.07099076815226,50.077939635210214,32.96108714519678,26.989181029481443,20.624967701530124,4.603893443394522,-18.27237610312085,-42.3260725246164,-69.91290362437506,-108.27424606161182,-151.66385453321254,-167.43071915147885,-117.03640498622799,-15.039597870998433,70.28805027764268,101.29525401869584,100.74822060575889,98.635716774958,96.99286866519982,85.13626001057854,62.66244257284093,40.220608570915175,26.362094244091118,20.511085332102216,14.848615447147164,0.047792800194419,-25.916918254264512,-56.77104242465625,-87.82474372804452,-124.20191836229617,-163.0927453746247,-169.22316986480172,-106.80511838163402,-1.418786111194779,78.96706937587827,103.71349714269246,99.39302648998975,97.76963541142383,97.31015850032331,82.0092100445401,53.71287587137801,30.04669134481494,21.467190492870746,20.809883574796224,14.680075576275692,-2.165609664579964,-26.129824981977922,-52.58009547653022,-82.4104352199587,-120.76363222255154,-154.62427114665914,-140.48910352057567,-58.25711121162606,40.81336799020826,93.95772716044411,98.95213623567831,92.24035225317665,91.27530213867318,84.39509945581496,60.526197979584516,30.709035174845035,13.864259126140631,12.484437888529575,12.12871166371681,-1.5347787582364507,-27.318720030794402,-52.64209597401282,-74.38313769823387,-106.53974959784756,-151.32388145642076,-167.57026715814138,-110.14899453506595,-3.983699505797926,75.95928724438424,98.58963895892288,94.94101671743789,96.53825779824344,99.36595586140288,85.78827425084856,57.236365157491605,32.74180402776744,22.487149579128097,19.035299916279683,9.055485664401823,-12.187653784152552,-37.78003623971989,-61.61514682534138,-91.71308724451944,-135.07026516509035,-161.25794000165442,-120.50652718557814,-21.28628097453418,65.98566660065542,97.80126203514031,93.15158477097364,86.97949962050573,88.64234773995572,84.4406549598885,63.95785590878531,37.30757328074421,21.84788093619998,16.87781350543235,8.092345865572668,-9.367655882882492,87.0,109.0,65.0
-141.8591159338642,-119.28573618467509,-37.98232342498246,48.23596677887777,89.0909347438247,89.35640592620969,80.53348951605138,76.95486758340358,68.79367131753713,47.167658677721455,22.332484157450764,8.648328213251522,3.706898916494161,-5.000075663127666,-20.748912162044704,-38.44993764990669,-62.06116508824298,-101.20653906084077,-140.0520227728297,-132.88099306053954,-61.86312476778629,27.632179024618598,81.38358311163255,91.93550209482521,86.33882277941977,83.04196663788643,76.7370464020024,56.66020140066637,28.577925955026835,9.91771050451023,6.194175383963762,4.503685763763752,-8.097744853288717,-30.33633243944182,-55.788278010562635,-87.07567791440844,-127.85371114209437,-154.41729183379374,-122.1705948949691,-31.488064985460642,56.42026216137028,94.79672688980475,93.72882775675191,86.04911028175246,85.97681569965482,83.88279659508464,66.87508107607621,40.01738797045922,19.957273975169382,13.430155067988254,8.937216682394213,-6.639555237058913,-31.37862542082221,-58.662788759880094,-93.7943497590874,-137.68567587822966,-155.45780864679617,-103.50968223295384,-3.4954688622628143,72.6702526086593,94.54908156064856,89.39755636995991,86.939006353777,86.43389062577005,74.53707466389687,51.61787896241565,31.121181364080563,21.409791773924724,16.302160728497594,5.1328526805468195,-15.159763464890878,-41.10087225320075,-70.99230722757441,-107.95228879097621,-149.8704193001775,-170.362836870035,-130.13792154953285,-34.139308765157864,55.55285305707191,93.59498617259318,95.1442372340418,93.2132383596252,95.18394123754784,88.82130320483401,67.93523913418655,43.80660460692377,30.43557894180349,25.805836760758744,17.071128396152943,-1.6264985098974516,-25.194316184054628,-49.588872150894375,-79.71459593143247,-121.20589863927613,-161.095169301646,-160.50784859304594,-90.26671177400645,14.29057095511957,84.65776483158088,102.645902965858,99.67856778039359,98.59551501908541,94.94323082544544,79.36211756935216,55.652458609151815,35.18339176336642,24.09140106292047,19.313133454937514,11.801072560226647,-6.481457818929117,-34.68737805763789,-65.66305328335359,-97.46196463073684,-136.085357193186,-170.43487050864496,-158.5552003544941,-77.88416290842127,27.00788448741633,91.43388449355845,103.60053719380163,98.04352273023521,98.31307778318748,94.81078457766688,74.49842092979948,45.619480477715975,26.030072778822156,21.100580055870097,20.051245255531377,10.862725235757942,-8.611600119177316,-33.62608636628494,-60.60612827399955,-92.56325906860216,-132.52910335947038,-157.5442505796736,-122.71327697804064,-27.902886287639536,62.32073079300491,98.89080629541064,96.75021057592961,91.52828195050668,90.69394619519458,79.19810845581235,51.56418502269091,23.981101212129552,12.304394148728177,13.09161058039064,9.849137306224442,-8.230513815597645,-35.18559401573827,-58.90115384414495,-81.86979742370147,-119.15658461781564,-161.61098591941436,-159.15536316406727,-81.29631343436057,24.655921086287876,87.7758168608546,98.27624217265603,94.38922649279337,98.10152928557238,97.58720502164883,78.35810357034161,48.92021981984644,28.380599029766977,21.40149074137142,17.29350097636859,3.92739034347265,-19.5747584644105,-44.79895185156669,-69.00406411830465,-103.29965738534712,-146.8519041789455,-157.6743517054314,-95.25698466984724,8.338268705103964,80.99025911542242,98.43213348525332,90.49258657968909,87.01851732215857,88.79752851151446,80.1498838523858,56.008240855969895,31.246130857447074,19.942434918936417,15.238986821765364,3.7968870955161207,-15.39899711390821,-38.19007153006883,-65.27801120906179,-98.46440670386671,-137.20904153426824,-163.12326832448701,-134.73516200329823,-43.7379898953786,53.09404204402843,101.35731743966512,104.61937044649595,97.40596643424746,96.85687800137676,92.18801603832736,71.46476865227392,43.54822045837149,25.72410099217366,19.28683354696094,12.133967987076867,-3.5831407561036484,-26.581339004559524,-49.96569351616967,-71.77000596088902,-101.36017675724679,-143.68602650723838,-173.35496639172615,-143.68868542683273,-51.04207789312698,45.27004797455278,95.50574792145524,103.12925449839977,96.42608425557549,91.91704531357519,86.68228851777567,72.55336783566047,50.39682424542962,32.83687360875213,27.8765576365924,26.12466959203419,14.400493145637604,-9.823034577122126,-39.01992967096637,-63.9835629725199,-88.10002529742502,-124.12801802107512,-159.63067789369305,-146.01302019416968,-61.463719528856295,41.770708643351675,99.5516789859934,106.32821925661884,96.78330445815489,92.3577338190327,85.51957718781252,65.66071506551752,41.1803824559309,26.5461099399396,22.70285879318558,19.57593954062501,8.633246218829967,-13.02306328104038,-41.48402509636834,-69.40102725406982,87.0,109.0,65.0
87.24776740532748,84.51979878388985,68.56683100185661,44.818752407341265,27.231059509751766,19.989335120741877,14.025158522215886,0.10453106304397702,-22.245096415560976,-49.263999787379944,-80.7699510813975,-120.13800021135916,-159.87523780605704,-166.11597893289465,-106.04377143442984,-4.4909005749512145,72.19395417803558,96.10661508027648,94.01465401411784,93.77698109319152,94.78561094511952,84.08030988364078,60.50569293279669,38.56361044627347,28.72148270447737,24.220050638350475,12.597183741335035,-8.25015583532911,-32.11309841772066,-57.31361568420263,-90.59204349261032,-134.2081356762369,-167.12750162103237,-147.2577949375055,-60.35241106254954,40.336880580470606,94.28108556584891,102.35612303529676,98.97940357353909,98.36445334694007,91.785601865613,72.85882904281037,48.95560043760786,30.993807977737035,22.38753513251493,17.88546037909673,7.784245844184929,-13.886140664172421,-43.65306419330569,-74.53850838742859,-107.78075919040987,-147.88588323832408,-173.80084433036,-141.60333729073804,-46.78493428751277,51.62420534789332,99.19390495826715,102.11934913843093,97.44948920973634,98.55233064182356,90.73155383023085,66.20431493980792,38.40013417322623,23.360622885100064,21.059218017071835,18.535618852503017,6.1388739597353394,-15.509346930396433,-41.23819017132091,-69.01955928676323,-103.5726261085755,-143.27094230511605,-155.13556038568154,-99.39179353043123,1.9233942261848136,78.83682057008252,100.46485075185993,94.53196828348372,91.34758065929088,89.14273590975645,72.47499269150221,42.61688292244672,18.729593483551458,11.878954460941388,13.31935407379376,6.202408083200802,-15.720524501166889,-42.66562888756993,-64.97811234858096,-90.71752931724411,-132.55762904805823,-168.03198449806933,-143.8156826562554,-49.91416673714039,49.21277693566612,94.84364600118072,96.92426430586161,94.73494731402589,99.3219584229885,94.05658899541378,69.9937349378953,41.4727585736482,25.256249866297065,20.567683174505472,14.690057650316787,-2.1176356730411525,-27.068294591805834,-51.60588172796054,-77.29723888317994,-116.00144638226891,-155.93977530128632,-147.38831687242867,-66.24993279943033,34.96976756988742,90.98316216713148,96.98086726023753,88.43005526584007,87.61349421982746,87.99822178126922,74.4057593042828,48.009636026572245,26.485232178899267,18.63115655076285,12.927591088725123,-1.18089985032987,-21.67739185462402,-45.4714425727507,-74.18071501927595,-109.33044936339363,-147.65990936846498,-162.16774203830525,-113.31170613089796,-13.103758706210748,73.0021133822002,105.49090308829747,102.23898832153358,96.65325156371944,96.73857176969453,87.88166537269504,63.28143365707929,36.88059373060097,23.152971650328098,17.81818401560029,8.577230904214002,-9.73828927687631,-33.59654981732368,-56.18950682666197,-78.97571354005677,-112.66033030361741,-155.6308408924428,-172.4719992433753,-121.54497063878121,-20.474588760793324,65.30008476594082,100.90759922522376,101.51758697602057,94.74055581676464,90.89368621121552,83.7316400140779,66.57573233676236,44.20214394180636,30.224743900443517,27.743201041100424,24.11066288130044,8.49905558499064,-18.23714875904778,-46.867133119628896,-70.4365036560873,-97.01101363102981,-136.17117361377296,-162.995840816005,-127.81844257514446,-30.059270883422574,64.6791780970405,105.46406423726786,103.70229873291818,94.88211157395332,91.35377490760801,81.12101672687729,58.30934082929729,35.56789691495142,24.687809213789652,22.203854234235937,17.45360681558146,3.45033197583344,-20.90405176140583,-49.7853873310594,-77.37677853980445,-109.94218559731436,-150.55091356850903,-167.45569993483662,-115.06641826674895,-7.411371158111127,80.07254608012674,105.29225432733071,96.99936379304513,91.90951423395893,90.7496232710091,77.81964147823813,51.23714497466863,26.398093217498293,16.24161501653445,16.278151916721352,10.896838474928007,-9.168666341731557,-36.863204998835755,-60.99045773006183,-85.43314919301525,-121.87454023165816,-157.3822875929616,-145.33747754043793,-63.17097203213094,37.773064399240894,91.84250135941562,95.68058558368834,86.30578655557241,85.34594152312961,85.28486454158303,70.84286688573819,44.304984047542206,24.418070997825406,20.97755340070053,21.928472844061247,10.172921361630305,-14.776856911248778,-40.74922083960991,-65.40012187352305,-99.44434494981098,-141.434581383668,-155.65452827296093,-103.21519166735136,-5.568248963781464,71.6223164914902,98.19156649081873,95.18137326800678,89.17029225276846,85.53632736559828,75.25097661562278,54.126091365193595,33.109332160784696,24.22765424990809,24.024677170192703,17.96593429842893,-0.9132361666847568,-25.10570863109188,-48.01606124151708,-73.83987828859357,-108.80608469281283,-148.85056139097242,-165.94009393829464,87.0,109.0,65.0
32.37116562480361,21.851158923952713,20.965983163871073,16.117705154823682,0.6141185507337128,-22.726295680876387,-48.96454234299871,-78.01482007146035,-115.26128458488701,-151.801815619848,-146.58918372768028,-71.87268431625687,29.377031250587816,90.28355563848258,99.75448145538027,92.80354767821373,91.34314492370655,86.2490265532122,64.50340415393752,34.24229805116851,15.047367187715377,12.204332676806704,12.75204492268476,1.1957295913699624,-23.633565869750015,-49.61666365279751,-71.27407582596828,-101.17582463918627,-145.71058695572285,-169.15439826924373,-122.04513517515264,-18.162446971041284,68.75025767667191,98.07898677137675,95.46202638357914,95.85396735912866,99.65003051051545,88.76819253925227,61.243410372469626,35.19671327908623,23.172522777884904,19.613859060768355,11.076362538256001,-8.888001133005936,-34.45291287871977,-58.400036962186476,-86.83854082593912,-129.1438348303965,-160.81337898434188,-130.410830620992,-35.48297501860345,57.33200103005021,96.518579624154,94.44489390956727,87.22865728187182,88.36781070132807,85.90328771281392,67.45887081319613,40.487138552663204,23.038795178405465,17.474445703103363,9.809515479235918,-6.690356816231633,-28.185415392861856,-53.176175284880394,-83.62419226079062,-120.63711446133593,-156.2811232589517,-155.5215950010645,-87.16057075181199,16.12164749163589,87.99211936787354,106.5505751388855,99.87062107729459,96.54688714859255,95.80363265887007,82.09321944881621,54.94420887565384,31.428573522586646,21.33278738591547,15.961971909282262,4.2056776833841685,-16.387111852398743,-40.44358022318954,-62.345961911709814,-87.16538614412859,-124.99614735454303,-165.49483942881398,-165.46252756656682,-94.8277318707877,8.536897445133405,80.77202341808699,103.3227979098682,99.4301121896428,93.41895459936032,89.5895843393317,79.86408822053511,60.08183965647142,38.79317768986233,28.700563102547733,27.487214347969438,21.010705712742833,1.6119631727659345,-26.80340303521509,-54.17013137905649,-77.09882189116364,-107.2346295960135,-147.4283387113794,-160.81007441032608,-103.85778548646154,0.9516774013398969,82.58961707730623,107.67309025253006,100.68263597488688,93.61013637249256,89.73007535124597,75.51756988807884,50.97853628222776,31.06861009524961,23.576469313724544,21.480678111685393,14.524033480060472,-2.6484458783226197,-29.17568093805256,-57.870497646764086,-85.76345704856834,-121.43562049516048,-160.21947604055796,-160.49627657380805,-86.81204444205235,23.27420566478782,93.4964451435656,104.18987344991876,94.48456776941339,91.8785219394487,88.72888043025368,71.06306108690212,43.06310869226947,21.793251738329516,15.830267667335505,15.954353513794713,6.60274025185622,-17.018097255132822,-44.391263023586134,-67.4209067883171,-94.53451310022649,-133.8917610999209,-160.98071943930438,-127.87078169618576,-32.35275368008197,59.74243493294881,96.65983898633554,92.7714036504548,85.04358128169447,86.03250819656697,82.95391603865396,63.721005497494396,37.0405792428583,21.90373690962429,21.696869662478868,20.275459707785362,3.8276400453572967,-22.623136102732573,-47.64889276741857,-73.80800067454165,-111.67231032624736,-150.6612770209799,-147.8954621548302,-76.87876566125105,21.379101270746332,84.21151454669119,98.88752529772522,93.08774599411467,88.15036432110716,83.69872384689887,70.03112582709288,47.32899644406332,29.101561475457437,23.85482572276227,23.4840363929979,13.69974940172008,-7.8432264137503775,-31.84265046039218,-54.833430355100724,-82.87524770748752,-120.53698313702905,-158.07260301667526,-160.37865480173443,-96.27931657257501,4.256425931992922,75.2922549174442,95.76880880724893,94.10713086508147,93.69496561795368,90.7910719130895,76.578043072211,55.42408920139408,37.11369110361598,26.734022437175557,21.56737065769481,11.729841500093123,-7.265408097172102,-29.901048970787738,-50.85865022818068,-71.74298472300705,-102.35458677881803,-143.3308683588407,-158.9361991872793,-106.73156699282208,-6.37218082654259,74.64457962399388,102.19096134428135,96.43626847062849,89.37361508697607,88.60091182087348,81.13368506170794,60.758089494408104,38.325520348946256,25.881000791981695,22.05363292431608,16.231413339518266,-0.07621446286337383,-26.80015971493514,-54.47215030508523,-76.58222586177003,-103.91930376935245,-144.23745377935472,-165.6199596849311,-120.46212769039447,-19.861002986564603,66.62510191963653,98.11331374009973,94.82900417553178,89.03939110548613,87.64159118960411,79.79389093764752,61.44374343844546,43.508302209509665,34.807969773551434,31.196174263580914,22.629153690781234,6.220182738597185,-14.342936017551217,-37.35620994904321,-63.58670001972127,-96.34513847582713,-135.28667662159978,-160.40822450977274,-133.090862788437,-47.00037036646193,87.0,109.0,65.0
-12.584169448766758,-34.959576852195674,-61.34626707624764,-93.64466831268865,-132.0573514599645,-161.89201937747896,-142.70933083702872,-57.82781031790245,42.3499539016516,98.16266181245042,105.52521770117279,98.01402236913772,96.76634309522709,93.65910857100897,75.0413895602689,46.97231013285533,27.24908889093257,19.90870380603444,13.507648802889813,-0.9571272793528383,-23.33504525867145,-47.0249721996537,-68.69259264231417,-96.57732501187381,-137.82740613386488,-171.91935042017042,-152.003947119467,-65.18232357222777,34.56500813318494,91.80307138147961,103.54727372115656,97.32163468952338,92.36395425429642,87.76113667827485,75.06190223652594,53.417174068331455,34.44339272423098,28.01051827138642,26.73028570607123,16.752531813367106,-6.074433152235069,-35.24116419193039,-60.96999602375468,-84.40345512937702,-118.617640553085,-156.5516430054245,-152.22229911136105,-75.51411218721641,29.705012944662098,95.33719332289027,107.18029336058257,97.88775581714557,92.7316107917276,87.12188735088367,68.93206512428816,44.098361541173006,27.721943135113108,22.928028548079368,20.313824723355655,10.706186071798708,-9.582344206113111,-37.6047570227123,-65.7752686897397,-94.87727437750539,-133.49875919550414,-166.6743012846666,-146.7802143387008,-55.19451193158485,50.15332412497739,101.49822855645886,101.52566821756812,92.83617612205761,91.83247495112423,85.35015599984746,63.34599257668801,35.51828171289073,18.60169326041888,15.970526501389063,14.762245863005955,0.9923214587667674,-25.16094980474211,-51.42011677492508,-74.17331941389034,-104.90307517529439,-145.11011880556214,-159.2199136549947,-104.62738168057854,-1.9542737630973988,76.57214129919025,97.94021867752868,89.744244968432,84.6939740279309,86.36984875029854,79.10914882615589,55.89528439954752,30.86381047712581,20.78739263200242,22.294705480607625,17.215484668945912,-3.4023790170587374,-30.232477192648066,-54.567298891034255,-83.34036902744354,-124.26555900653474,-156.31655950869498,-133.88769814672978,-48.10362181826332,44.95003118609714,92.4918673818088,97.95638159662359,91.22584362231636,87.23813800251395,81.01402891371079,63.94523689959526,40.948154526026535,26.30518020755263,23.93758414587165,22.061984241465055,8.355674236865964,-14.920854188060398,-38.42091815743235,-62.085358935640556,-92.79715056764296,-132.45636043929554,-164.3806670187689,-148.785599619948,-67.96973758633932,30.059431417489847,85.64692798474708,95.99924517156953,93.61436506275462,93.6601170871667,87.92530171254502,70.70672626622535,49.50439078161916,33.23772587332897,25.0773793102507,19.632334594196777,7.058292197973816,-13.75853468347261,-36.2190418071314,-56.594161189120285,-79.0851491742622,-113.942172640959,-152.83884340879877,-151.52277070953934,-79.88476058674121,21.713200121606295,87.98475901758951,102.3076681069733,93.60717787645225,88.90340707290162,87.75582198753536,76.34161971568024,53.79174744385536,33.47134260184171,24.29606497109485,21.065470105180903,12.792425681356665,-7.008373048119225,-35.22206576172591,-61.296866119253444,-83.15396425526383,-114.74435116813976,-154.79757933802293,-160.5556137607368,-94.47416567015819,9.650173901787632,81.37508618699796,99.00898455095135,92.56598773927612,88.52722792600234,86.5454987272978,75.27517536570987,55.6168243331338,39.986866484012296,33.69808516120157,29.571371994807777,18.556105431000493,0.5675583716559847,-20.749345698484063,-44.49944485380576,-72.2158413099456,-107.31783133497704,-145.57397523178355,-159.37681572260936,-112.76916608268222,-18.074207130199206,63.26201940350667,94.18553892111493,92.12059879999178,89.41715746516995,92.28761653708399,83.01806264289328,56.35622807530823,31.186386277452183,22.458308372766503,23.74875615319387,18.47531395593814,0.2324963796096997,-25.047095505781822,-50.10614346065411,-74.91206364157169,-108.85497568529699,-151.36560153895329,-165.35345360687992,-108.56552523892087,-4.806849043662205,73.79836284728577,95.87386067991433,90.11719577022616,89.32736763228922,93.20442376836895,84.77529729497085,61.18989087241677,36.80989958836684,23.83238183430689,19.904237303010685,13.26796917800031,-4.383693760373702,-30.568656040898468,-57.92514036052508,-86.90443272904348,-124.9119880301381,-160.59747961181196,-151.83494694381727,-75.45166046346587,25.517054786027995,89.03870588384353,104.0182533636156,100.65142833656168,99.85232371327834,97.84690508651198,84.06028045847609,59.87701708080139,37.24475769835434,24.4139004468518,19.478782679446965,12.6787217659509,-5.8943723598722,-35.9732022945883,-66.7190568532307,-93.25502105557186,-126.98253411542278,-168.5878826642377,-178.1238060735576,-114.6213306204235,-6.277334007563161,75.8047820885222,102.0582853175048,87.0,109.0,65.0
-73.66831769513246,-104.9512433082509,-145.40186237607068,-168.5098820471716,-126.45292081217929,-22.348876274594108,71.93983109937047,104.93117439557945,98.38005652475964,92.04649123377878,91.2902810846198,80.51936902524184,55.09166255631376,28.987901400704448,16.724878927368948,16.234852702524645,12.417557781176995,-5.75447975544875,-33.23997701744358,-58.02826365901301,-81.64636510929742,-116.35720549795042,-154.2532564655961,-151.2297314400179,-76.94043792403123,26.08571966238204,88.16192761759217,96.75833203611796,87.20515805335853,85.04526109404814,85.89161546498087,73.76320710818537,47.89663312365908,26.0959460643589,20.75058765618961,22.269857544233698,12.70803858444899,-11.140656528380266,-37.503509214568496,-61.83342556053427,-94.09847736902262,-136.34596578461836,-157.1622166796569,-114.05475151591351,-18.769460526988667,64.26724583338714,97.09057941559159,96.1443497613688,89.73356908192436,86.16655891668067,77.3151395871971,57.285791653985676,35.34878275798869,24.654253366130757,24.06597641405232,19.53403847899473,2.1553795510439664,-21.93170770638745,-44.96369731399439,-69.95791806061366,-103.58006235129605,-143.93655161288044,-166.5960675377477,-131.20622555178053,-38.133678987785764,51.84601415809844,91.97582184620953,95.3341635979054,93.50244187493075,93.10881972834741,83.98747445552398,64.50931163719058,44.03253363879143,30.097828923493573,23.691841331381784,17.02651060814466,1.6400305754882056,-20.36089581076858,-42.31325268703061,-62.44146810127432,-87.57242966725215,-126.17559139980887,-158.92198479724496,-137.66022403026483,-50.35439397522998,46.448329218669116,96.65807192532212,100.54274916397182,91.3243183281553,88.83016956227489,85.9405693230426,70.50917983408797,47.050814382282944,29.65860456638764,23.241703624311867,19.62264660090149,8.326827170631525,-14.706971381291517,-43.409384217549345,-67.61977406177911,-90.63232022008236,-126.62327166055908,-162.49599581633385,-148.91909374022407,-65.01747556698213,36.04236249165018,91.22171077546946,97.96412480096275,90.70772886678152,88.26614747841103,84.56809629200444,69.96279139082509,50.19012427576669,37.33890876579348,32.783147318846204,27.293030799260897,13.878892673519937,-5.336170757927569,-27.348637144532788,-51.95131245903385,-81.50027919312228,-118.72621417116754,-153.93544653475598,-152.93291279958356,-88.02590385754921,9.519510714156656,77.45647051262192,95.35409319609865,90.45634680956628,90.26346517406068,91.64450682323411,76.55006554072972,47.924922183747675,26.855226678355685,22.541298792219774,23.494555634646748,14.416952048469426,-6.733410286808431,-32.50630726056805,-57.014564824632856,-83.31461071119138,-121.1292352680178,-160.78863167320753,-156.80264359958872,-80.36581926375898,23.267217522754752,85.48751376843785,95.15487673509095,88.73191393783532,90.7223582951623,92.5921926071492,79.07629866448511,53.46584240198581,31.70524032481849,22.215259480803827,18.8032106630152,9.399820690847799,-11.421891908339944,-38.56483862425568,-65.8018702476472,-96.81165371737008,-136.9167541625185,-164.6854807689774,-136.05324488835103,-45.62241519942268,49.44361046816416,97.33680490487862,103.49339850540824,99.9514447063614,99.94295000839499,95.325418557935,77.69314217808179,52.63541890902679,32.42623502894137,22.499051254552274,18.238761046340663,8.769275741207082,-13.763507392115075,-45.31407731232554,-74.54740583728376,-101.63472123870262,-139.16754857104726,-177.1775244925145,-167.63465069242014,-84.79956285195927,22.759698466960785,88.66227800192881,102.48664238423211,98.81865286539447,100.59783882429707,100.09307298319632,84.76269282775812,60.30865471471546,42.13329268842117,34.219766263012126,29.099145519408335,20.339886330585284,2.923656181633933,-24.770043220117444,-56.41036925215853,-85.34357022527792,-117.62960147303679,-159.20252524376593,-180.31573165139517,-133.87751724244427,-29.84654880354084,63.68092169655432,104.3784806199732,107.447344457058,103.7621472884423,102.65196919881586,93.16187465920909,71.16951937292241,49.0684232774082,37.059469163104296,32.42411630948469,26.461727392926278,12.494637283227917,-11.344044525355208,-40.045303275987905,-65.45193372013979,-90.79242720331591,-128.65877244002402,-170.85658330330824,-173.97206683183842,-103.61460884286541,7.496758165667643,88.85833840078398,111.30804916111097,101.326196407033,93.43536826935464,93.24171208712896,84.63850264140596,61.47486199886463,37.667190843485514,25.56152559676238,22.234124195316788,15.197097028452838,-2.572264566836542,-26.1434934229699,-50.22281234681991,-76.71803062025592,-110.93098506373971,-150.70463709686726,-167.8678608266844,-119.54096957222804,-15.85278495712496,74.87151714951155,110.31549142871012,107.0025920517227,87.0,109.0,65.0
-163.67282893208173,-108.30478800430106,-8.688594281936814,68.99153978211447,95.12320792729261,94.4556791853716,93.62892270587868,91.74957141510409,79.09607905121108,58.25786140675304,39.14330043803063,27.654834072267555,22.296420213968762,13.601071990583039,-4.358481352747246,-26.921840271530947,-48.1977725609675,-68.66236278946076,-97.38528010219683,-138.1853524048732,-160.2406978862831,-117.71559441854231,-20.065369276460977,66.84982602498047,101.23718033906812,97.80594158497566,89.80881503387687,88.75592684690798,82.9389978621242,63.93546635183529,40.890940965226264,26.86243739322329,22.42903421639262,17.49511241698915,2.8096518994202637,-22.921388127094836,-51.11927920952408,-73.72627327898003,-99.39400204349269,-138.81051871889463,-165.87516429338424,-130.80334617707265,-34.06595364301926,58.10804113462593,96.76673988633034,95.90542482201089,89.43149651620735,87.9254839082349,81.54679944963563,64.172831879969,45.429239133686295,35.46284531443149,31.7715820288755,24.273048348447023,8.724377821651597,-11.454657400606246,-34.14806613122993,-59.80277166257306,-91.49738547224958,-130.16685614198002,-159.27450918064798,-140.6791877697998,-60.30789337828104,34.28953406036251,87.12023461385306,94.6405334114649,89.42405983091734,91.36394453486025,89.44325205555727,68.80863114606817,40.22717102142364,24.07970237764912,23.089578234186774,22.291455253711206,9.287905825892846,-14.070981235364789,-39.799962877795956,-64.00040662418567,-92.80170409436307,-133.8659713611251,-166.48278003463645,-141.5976120718605,-49.715856333932805,47.407176080463785,92.44122232638581,93.2161388176059,88.3070734163862,92.1457552598112,90.54342741112146,72.27281424515051,46.12796262080748,27.73221894265422,21.146689527396077,17.15135023079425,4.497721615097454,-18.997636949685035,-46.489391826270875,-73.95356514465487,-107.67854155865983,-148.10910265897633,-163.78279163103682,-114.60079873984488,-15.465413049279036,68.97315493954306,101.97251615351362,102.33111071253484,99.69894705973564,99.64556993959808,91.60250635899081,70.65915507377875,45.85602389683239,28.53300022933279,21.10350174112948,16.545085203815898,3.6814727103548632,-22.45056711407506,-54.371792350030155,-82.07407692181718,-111.04226026970854,-151.7262315985616,-181.65701336678276,-150.41817773529266,-52.78993784788219,47.866139030854136,96.839770023549,101.57648481156527,98.66579508442379,101.44431879650836,97.34003210532839,77.92394704863689,53.90537409138123,39.03409280685609,32.811069699526364,27.159192808671584,16.40086854393791,-4.159109047690167,-33.92680137562781,-65.07873285496282,-93.74310123310366,-129.11627431626394,-169.76545466435226,-175.02001358904894,-107.19247368286321,1.30029506152486,81.06393898991365,107.60089593609113,106.1174787356441,103.46930459255971,101.3202415027775,87.74960910608795,64.11551541622914,44.459136800837484,35.32641811753629,31.208145289860635,23.43500987955123,6.548654566572687,-19.542240451187947,-47.91909281322089,-72.2034316668333,-100.11981393918902,-141.7779908139255,-178.1242962950201,-161.2125304759081,-72.54993281539815,36.62602929171637,100.97263786655698,109.90687290635532,97.92683389357875,93.14597994262806,92.33323303265327,79.08324278111668,53.869540009263204,32.806626663446664,24.17475969262769,21.139558296977373,11.111866658278847,-9.133604579601414,-33.09969936299208,-57.39415129719056,-85.62786468277538,-122.44492280748413,-160.06245517390698,-161.77743888957406,-92.7224414840521,14.741279377891846,90.98174469398207,111.6631141546959,104.18022871879235,98.56749177264105,94.24373961432966,76.60221194731486,49.298042299829035,30.410394130182038,26.00183101672206,25.93025711150122,16.246171214458293,-8.519522060716147,-39.9081199078462,-66.37928927609977,-90.81399351854022,-126.89055312083434,-165.16734502217986,-158.90967381556888,-81.42769680440217,22.317706413408256,86.32076672894554,98.79145025866725,92.26466941318849,91.10940512995414,90.90211306494515,78.08060950201687,54.59836273800115,34.54027490485558,25.7880901125587,21.929944593515465,11.337167229132424,-10.090754979596069,-36.9277403563493,-62.438105070120145,-89.59284446363797,-127.39132281438096,-163.52681920307668,-152.32038628456797,-69.60472755124175,34.28226465988583,93.15861572829172,101.52646764224902,96.29126158817249,98.08412786758325,97.11906222226474,81.74325418530816,59.03089946596317,41.494200840584355,31.115185752533183,22.554940277835602,11.336125125043582,-6.779474157290008,-34.029639903775816,-64.3848557986772,-93.51407346375365,-129.02469123743128,-168.28397362282809,-173.03970245345195,-108.29445261143401,-6.080867937399786,68.75590815237264,96.40989813572082,98.69760401903811,97.08483764641666,95.48356156939712,87.0,109.0,65.0
-31.346527365235804,55.148233118464255,92.74522590943259,92.97817313767742,89.23159786179882,92.17413255357867,85.45788332341792,60.3375281831367,33.7087905749321,22.70248200956701,23.62877680780321,19.95420703923501,3.2585967838195984,-21.577843917176228,-46.89373920962562,-71.32989149994644,-103.51507063531903,-146.16693949715875,-167.0906942415771,-120.21234863879286,-18.681981273524308,66.67355070370924,95.49240438093227,91.0136212231823,88.83044667038529,93.07623998504556,86.94470059267749,64.76442612468287,39.5298035740886,24.840868670521132,20.306846522598644,14.70881904839326,-1.380542659925714,-26.88479555060787,-54.32437276028292,-82.64414817466135,-119.36010879011644,-157.3480333964189,-157.03632088444397,-88.57397590518404,13.220971727276158,83.77724579909851,103.8338293230947,101.11911751153492,99.77254949977393,98.63307881969803,86.69074853351104,63.29079877098906,39.771043268260456,25.527314756135695,19.981550707998853,14.114665715825607,-2.6084320336969116,-31.651957024341133,-62.94770952550297,-89.63887932574505,-121.67618921396686,-163.6554738329711,-180.68842393397017,-127.09885919523894,-20.6218395374578,68.17002643382986,101.1215836486096,100.23544531707726,99.18237093515694,101.67367523288593,93.15041768431156,70.68229411784438,48.385533612989164,36.707521016237614,31.41537362621546,24.800932158929093,11.605765015703776,-12.070330010524737,-43.17753986277894,-73.41904048727484,-102.75190636076347,-141.37634653615106,-177.3970791841362,-163.052447694795,-76.82336258755271,29.663607512657084,93.63946952769898,108.5043966056747,104.88346305356974,103.32688480086165,98.9151440776225,81.39469513036755,57.46432061538194,40.816526355066266,34.02741826478178,29.662466280542173,19.615707303926037,-0.21931794230803872,-27.940509590667798,-55.33249451410619,-79.21912056601681,-110.80873940037354,-154.70533547519966,-180.74856343960494,-141.90286829873298,-39.673488191671716,61.5733002160092,108.13683305295612,106.83222240690107,95.37001566160221,93.28551589852874,90.24329129009519,72.40375971918633,46.685526425481655,29.091392998949583,23.30129914850148,19.383897608805515,6.096641944272704,-15.97271866562231,-40.03042312996664,-64.88456823121281,-95.31939450481781,-134.25351407150063,-166.47885372424935,-149.2266568509052,-62.4012293351842,42.3411339330637,102.07711826430884,110.6594973759352,101.76344746656196,97.90761669450934,90.85653920460842,68.93315110407855,42.32000265717826,27.888234901619626,26.18881723532657,24.619773454787786,10.505230944633745,-17.529819344505526,-48.310759564459005,-73.04280517968309,-99.66437928078278,-139.30399378789542,-170.23794170560356,-143.19404965323207,-50.774311938043354,46.733367107219394,94.13586419417565,97.26314858371347,91.07624117862494,91.66913077323213,88.78990494855805,71.84395324080832,47.84136691719426,30.887337810132397,24.719285531094165,19.951733935466756,6.161393924231769,-17.66947923618413,-44.55332864018466,-69.66854751627694,-99.26832829469416,-139.57088584199607,-167.39109065842229,-134.91124754015087,-38.19578727445735,57.53596804293663,99.37702878977407,99.81876710159618,96.11051253046585,98.8739261683813,94.19631261611133,75.27276493042184,53.10991534481385,37.94855785516995,28.700256689990823,19.745679110007636,7.021978378283592,-13.823051298706876,-42.87775740929378,-72.76917514190599,-102.70107068566426,-140.9958776145026,-175.5211407630782,-161.54400649322346,-79.52425430149042,20.422802363476027,81.01119392429003,98.4506644170226,98.11454726136036,96.87397453145316,93.88799531029274,80.40174773892917,58.22574673127353,41.461035907453336,35.61433084953959,32.193877793279164,22.103741905095784,2.7190528812629786,-23.03199758378878,-49.20696007046435,-73.37786379569808,-103.49406341663403,-146.58956059463486,-177.70305590239414,-147.63615365106452,-49.74910910704751,53.709880907215066,103.42674188167845,104.26953789216357,96.19451469683464,98.14636421980467,97.55228442326963,79.59888759808513,51.78479264449537,33.791074040405796,29.40364681148088,25.320858874898107,11.760874387390635,-9.3341876619626,-33.2252673799575,-58.44892553207018,-86.33268169390158,-121.4190663435096,-160.41920043363848,-171.36807309493508,-114.77834027655143,-9.237964245559692,76.03767181858167,105.06347133930815,100.26880249688864,94.1636221522477,93.63951187777077,85.65785493756235,64.29532245761536,42.153947800853636,31.211511691343723,27.70269961347222,19.90075086756795,2.477918179501047,-21.429776904652005,-45.93977314902334,-68.44823956778936,-96.86618889647661,-138.09565399168366,-166.04652620356947,-132.8203781699588,-38.00481612951043,56.480632239901325,101.84130988949002,105.0047099892261,95.41655798852874,88.85065757512596,81.90658542501467,87.0,109.0,65.0
102.51711408237175,99.1315310966607,100.12422033393027,100.884932888537,87.65790425630703,63.490743637976294,43.873390919979855,34.9248560632611,29.884153144653936,21.898599162833623,5.881490822240549,-20.648515199461013,-52.29752831434172,-81.57451580421083,-112.68644301064592,-153.74167129338645,-180.65065151339414,-144.4798210197616,-44.6953633715274,54.01705854636317,101.85968402958778,107.96575564083979,104.01614305850232,102.98570659255077,95.26790199054155,74.4533783471044,51.516565040197975,38.06632017553043,32.92788489810481,27.615037476099623,14.943645462915763,-7.700214786245302,-36.28283258037602,-62.32398004751059,-86.91076989190483,-122.78944238223009,-166.31269098598867,-177.59378220937006,-116.79450011092102,-6.9836071995927425,81.48360455694551,111.095763911731,103.0655716537546,93.82371500925179,93.36659049569307,86.74294712054927,65.00114774648453,40.283696252777744,26.45615505273565,22.599735534509044,16.744994185524757,0.30471721990893774,-22.928509864932767,-46.98394711472994,-72.84688927314309,-105.82744322694357,-145.74755445859327,-168.64156384000012,-130.2634000207661,-30.518362330497105,65.72434141872759,108.62367318569349,108.29882845521281,100.01602451481703,96.998716934069,86.04061231387603,60.82424897922402,36.49641793009432,26.51587431352118,26.387893373695974,22.180442345388222,3.5049361768774117,-26.755914017246354,-56.07434510245118,-79.81356397161419,-109.84828102118209,-151.24896268683742,-170.15638780416305,-121.4708048910414,-19.75358972896075,66.47444609879565,98.06557100057519,95.11909698676173,90.65626136571261,91.93008725695802,85.35991074260068,64.96832740408708,41.754879560025635,28.23253284122498,23.772035910575948,17.14764233488737,0.08861819486452985,-25.48976860439688,-51.942151609283115,-77.24896637152598,-110.05177324496759,-150.94784315829358,-165.90386794906308,-111.55976264299132,-6.994716450001147,75.77045818124475,101.97884112449789,97.99599243420668,96.65227273216394,98.97433891494016,89.93524108704776,68.55189787972303,47.862863824343776,34.924497410355194,26.286617209968473,16.634712706888845,2.0052320904330543,-21.624959324016537,-51.74281247437314,-81.05968286137983,-112.72557799308731,-152.94577409365218,-178.54662385325366,-143.78621274773434,-49.2237428668825,43.195186574313446,89.48208067645577,99.09253696360123,97.58115299632048,96.5800925492493,91.33299151901252,74.3467943299004,52.24948932200786,38.857633910859214,34.88080083398288,30.2048757020869,17.417329332613722,-4.308160466546301,-30.802431872867885,-56.26439953076153,-80.88552275286769,-114.88580767219703,-158.96625376441892,-177.03993288129854,-124.54330881026131,-16.900376759156295,74.66662072453211,107.01697407697307,101.29513105338133,95.86531353521707,99.15793904102215,94.30815692588419,71.67267720120186,44.94074920107026,31.556869893868377,28.852408783331093,22.472405966564267,6.1841867773198995,-16.07358213270813,-40.37555917888815,-66.0785407073569,-95.52956868753972,-133.04617759993664,-168.61749646508542,-162.68369711593138,-86.53617530548077,20.34230198938097,90.02725878248143,105.418451740744,97.76427433122065,93.84043895479078,92.73515180720237,80.5671820973147,57.215150743630765,37.700730465857625,29.947270342957967,26.325854868978865,15.82836116530858,-4.0170573335483315,-28.694320481835376,-52.5316698655318,-75.458720082684,-107.77228439971283,-149.73625325335138,-164.24929015801368,-109.71824798927551,-7.541953448381094,75.29393970798202,105.76626750659752,102.45005904298239,93.04977576652165,87.36525470527292,78.32112734853742,59.18707858338407,37.61420532788719,25.314814176327634,20.396917731650102,11.03530614223666,-9.668788828781606,-37.07189959219506,-61.428031360646315,-82.99719049314236,-113.50816748054676,-152.99053178904342,-167.3085045441697,-115.64907511830263,-13.49840315424987,72.82509259994826,103.37221640230025,97.95757274403006,92.77561199391906,95.84932045695565,90.81549675150859,69.2033541547406,43.9593630149389,28.767925340909215,24.063869985522828,19.478675427697404,4.543861444872494,-19.834534370384368,-47.26516562269167,-75.80129778822192,-109.47786305555537,-148.30673535942162,-165.05324491703792,-119.69890815727267,-22.921218441276054,62.76123294398772,99.63686415520826,103.51725844822461,102.66156755669992,103.46292401375946,95.69486744068357,74.51090713550835,50.25826611684334,35.26387840433145,28.472115838260127,21.498234424435775,7.279408977449126,-16.570142494201082,-45.613930884115625,-72.94590161509662,-99.65832180591823,-136.66437776070535,-177.34399470205778,-177.11915467762074,-103.27060416659631,4.660367985905288,78.91609740813004,102.02430473294538,101.6331211099143,101.1739791650643,99.87777406617361,86.7649205666407,62.4923174941003,87.0,109.0,65.0
105.45786974906932,98.91873851526907,95.36079502270432,79.85156899295086,52.81421821911977,32.01343400863843,26.022892661115396,26.225597855403674,18.43543834476985,-4.539929925972346,-35.84609811892232,-63.23406540692589,-87.13412462010115,-121.29302867904576,-161.44839294612848,-163.96411737697127,-94.88370889891058,9.716677766379156,81.19450727849986,99.05089734053904,93.05348882496332,90.87454296103748,91.46258341515933,80.64332605568438,57.849729204423326,36.57997682298156,26.412689692198143,22.616828772150527,13.39771103897076,-6.739791916519052,-33.34343605448369,-59.1427450361119,-85.4907056736896,-121.78138327343864,-160.2888831593312,-158.1402054567084,-83.57719627087049,22.059856058856393,88.81255605067206,102.04490274227882,96.65427655734435,97.61477670092775,98.00172006752615,84.53258205200262,61.9493869638175,43.34150119613352,32.264254838242486,23.771650404913746,13.122627515498253,-3.8127305706033683,-30.02042012301337,-60.44873127873784,-89.49415209478725,-123.686232915329,-163.90256634841705,-176.1816623291418,-120.52133315473985,-19.285306729885537,61.69728884828149,94.8113784485134,98.9202884118302,97.20569485346351,95.95759630773945,87.68119585032697,67.80058913541477,47.114476694059086,37.11863574978883,34.05778048098311,27.493585561585288,11.953610282363234,-11.749925970322176,-38.448220382461706,-63.16413895723877,-89.21776214042276,-127.41359484875376,-169.28106436673383,-170.0227058703401,-96.39716092974268,14.366568693835998,90.17983901170457,107.32802245919214,98.59188318431075,96.44965788701552,99.42785693642934,89.39207537407144,63.373607449023815,39.37969811350871,30.297766269101185,27.92224006554269,18.717757376505613,0.12106428448956469,-22.959807107038863,-47.62796763386676,-73.99093569542956,-105.48179968756519,-144.76061711911257,-173.31954116302006,-147.58097267289355,-55.50482441589004,46.39320596292896,99.12824409921403,103.92022485973494,95.77907722869479,93.85021523071941,90.79094455488331,74.41919284966838,50.51985583251818,34.34890041330275,29.048660067827782,24.30376380086816,10.930314261391286,-10.921990557551558,-35.85859658685852,-58.953535488040174,-83.29775273734563,-119.78870094155107,-159.16645647127336,-156.18544709996306,-82.27605096202608,21.011063307004655,89.34247698266229,106.8443661534273,99.52326431068266,91.1160644324414,85.59662784821094,73.77335230161893,52.57124459217086,32.86218809270147,23.607951371858615,18.6510333040101,6.228129671843966,-17.35073516306893,-44.7214779055105,-67.52077028672466,-90.39459026897376,-124.81169619678434,-161.96042974567322,-159.938538781911,-88.77560252429575,15.990555779462015,87.4608042617081,103.66881177023821,95.39087606269723,93.32063179545587,96.03563229170312,86.00476040493018,61.470703398181996,38.262895388310945,26.63487162427898,23.328908476219283,16.42548776804023,-1.8295824156703673,-27.652640466719273,-55.318746624403744,-84.7369430493228,-120.69450717915431,-157.43201303804472,-159.30412439583716,-94.66470410221422,5.743498913468129,78.52801259638163,102.68139558951236,102.97017200490637,103.04778725306514,102.58911325291835,90.74872983547777,67.11668687223066,44.74015518595277,32.8098216655006,26.837485549204267,18.364257703400146,1.3019153030457025,-24.75910328420436,-53.89154878617349,-80.31724303081957,-108.90210752139342,-149.3949584524796,-183.91837598413636,-163.0630443576968,-72.26220975166733,31.64093754186765,90.02601774380825,102.87092999253538,101.10749335389232,101.39761756705089,97.61888659760375,80.42704024279118,55.22308120442769,35.73150411757458,28.212915021098226,26.34025456406657,17.0899627460269,-4.84031189544598,-32.79244504618399,-60.73253059860771,-89.90903159374953,-126.2345747795852,-163.79539775068775,-168.95735917085727,-108.19149128254841,-4.808815899534957,77.809592581523,110.84226264014713,113.64303842173942,111.47949714220263,107.37962899650788,92.90594594095577,69.41572950268716,47.91010938374115,34.50542613192372,26.60591185220067,18.46967538652728,4.060628992595572,-18.796858896684153,-46.1206884257636,-73.60241369780184,-102.6121351124209,-139.27019243295325,-174.9806779377414,-168.747515430022,-90.83035685626847,18.31479514168851,89.62523981394976,107.44494255036642,105.45619099727666,106.31475350060003,101.73955432171361,81.25906136072891,51.96837531622954,30.376587307800268,24.45289134087273,26.310969996823562,21.519191592320254,2.483687652689512,-26.33334437416923,-53.81219385972905,-76.07328292693428,-105.11660221925787,-148.77215153582958,-174.28755457756506,-129.8865967908318,-22.76401773169141,74.28849265198517,113.58379773386689,111.59748723388968,102.56798247388348,97.56653644678968,86.9642039279833,63.759953890247765,37.59120702458736,87.0,109.0,65.0
94.73047457593589,82.92848218895377,61.18235766055251,42.99995775458571,36.00017033326811,32.898121833748604,23.99211178490779,5.779089730506703,-19.44500736355746,-45.87182224081853,-70.09579841779805,-98.6879387246581,-140.55402536292985,-176.11274536968605,-156.2359241637473,-64.87499121158986,42.315416040968145,100.37031066640691,105.51195049623642,96.70834112463795,97.57798548668875,98.48934079703511,82.97185720448677,55.28842692026288,35.23515766536911,29.628823217291085,26.330793467735155,14.125796198513568,-6.29119341375862,-29.96207708660072,-54.99975352847117,-82.31475553002716,-116.2249025675005,-155.8168753273143,-173.2789603983705,-126.37055125957602,-23.65120306894286,67.85197006078494,103.99772442028609,101.48896000028371,94.50811605818537,93.80150064953278,87.58298580764212,67.56972916988641,44.571760138266704,32.00565665584797,28.181153363151203,21.487514065025973,5.293389529644336,-18.083779487120683,-42.81724646545239,-65.39486913325318,-92.28220829354308,-132.3564075964968,-164.96811198847078,-141.62661436988554,-52.217917985930015,46.24576878095878,98.84594327540503,105.90392010280189,96.64655536635004,89.52342215528827,83.25097451775714,68.32730698745273,46.093291084652286,29.108455457063435,22.295200916744896,16.22077256669668,0.4077196537237629,-25.3645439867842,-51.882424789986935,-73.55673483370936,-98.89004109625219,-136.61921046299088,-167.60628441213336,-146.2746704451609,-58.850211740701454,42.33120891871962,97.0854774288722,101.95152963560312,93.59467777440616,94.38438822602347,95.0231284558679,79.84200562076582,53.910373365324034,33.62405565963689,25.262506308749497,22.26343975545563,12.328720855096616,-8.839821066992267,-35.58382857441982,-63.47490636260162,-94.26861268385157,-132.2257597906067,-163.666591470007,-147.49478167470232,-66.38485228062841,31.740505589620813,89.89639924367357,103.77392888018738,102.59364040888433,103.46050475221443,100.68125031924568,84.7108344959796,59.85871325626494,40.20794386877085,30.865629684253044,24.98041402096536,14.47435678634599,-5.473145058084805,-33.210265220303725,-61.86290496928246,-87.80131976806462,-119.33832826104972,-161.91722795947783,-185.62226563867333,-142.57919150217185,-40.16910185711378,54.34317135132908,97.13303017329756,102.62816191104699,100.92418816022513,101.30107838006673,94.11727784511467,73.36059093682756,48.49054854990413,32.38593025355629,27.63882107120357,24.940610952791385,11.898752605654144,-12.679828050463449,-40.959956862450504,-68.78721595463725,-99.49458153268176,-137.91702974346458,-170.63232482635422,-158.53663659164536,-79.98075925167635,23.603853569109276,92.21113819834206,113.35607534210982,112.93241297924216,110.8765981596423,104.49490377380835,86.62016422340092,62.52885635148663,43.205341459948016,31.88483914424419,24.563396653252763,15.167031585262045,-1.757660382889351,-26.488482869306846,-54.12113013170559,-81.57648128177621,-112.24361486246232,-150.94866041994686,-179.7265261687902,-153.27226173825096,-59.12287656709377,44.904162915696894,99.20047559091898,107.24909360802852,105.3508002314115,106.27108953890078,97.48784232631037,72.99301210729911,44.2894612022643,27.133477602245044,24.834966753910656,26.159974562688006,17.510479142740884,-5.303689924024601,-34.85106002201462,-60.53489531272418,-82.97856742004599,-116.73445305900464,-160.5557385076686,-170.04601630860708,-102.77162659586538,9.693247834063264,91.83543508852536,115.54767599769721,108.65744053248636,100.92324663637103,95.64473458640111,81.44430677630633,55.74602841233171,31.841238985711115,22.215884938255705,23.489634369055135,20.427111093087184,0.791983543492965,-31.682560540403358,-61.94430235137343,-85.0714864858256,-114.47231971431896,-155.69670832371105,-175.18228730993093,-125.85393182583859,-22.106747888672604,64.81077750362206,96.58804241839384,96.33184057202683,95.36159286826515,96.77391611603967,88.46019314498027,65.88607857606856,40.19670896573997,26.000974459444315,22.70932510470816,18.114808006498357,2.6306738230705697,-24.216300074947764,-53.44042291038017,-79.2759390916019,-110.2592282926709,-150.23222829473266,-166.94679457732207,-115.16672754982567,-10.487618614005978,76.36656803908187,107.7752436708534,106.22073020302311,104.12502591556787,105.93171624594059,96.84164047469719,72.62398112794736,47.242416681848724,32.28549265608871,24.739354557706175,15.882274493781274,0.7803578101849007,-21.145735445410963,-48.14269222595851,-77.48299377997034,-108.92975118509612,-147.0370532669745,-180.29876531160343,-165.22922536391536,-79.3058254544726,28.48904471557495,94.20315174841564,108.8169048829789,105.01964757321154,105.80203407130081,104.08893071782094,88.2063499878588,62.93415977436864,42.00982497542078,33.423430409814195,87.0,109.0,65.0
80.09239420430691,62.17850582881977,40.11642741859279,26.318145333422326,21.04475754127003,12.901527622782844,-6.315280361744468,-33.42017629267826,-58.52048352524174,-79.88175575820105,-108.62004370898288,-148.1024295293168,-168.66284862610829,-126.56139169130581,-27.722987000662112,64.34064591402147,102.25474957148225,99.26733049451795,92.80313440693206,95.48125769369085,92.51220178316605,72.69953554121398,46.91305624354075,30.06270148400356,24.38723325799743,20.55367763801576,7.214652607930205,-16.29492141834272,-43.570167596853516,-71.83706195062666,-104.51136826636065,-143.46319372782852,-165.77692258958285,-129.72378234834014,-36.62827393729602,53.969062730335004,97.33572999037756,103.72835352979814,102.56059856375906,103.59048998907373,97.56115940190402,77.85208004611742,53.11261409207823,36.62839896640114,29.203741737952107,22.721194089236587,9.748846764112013,-12.937329407324055,-41.721955836137674,-69.50903171129697,-95.74192964864683,-130.97015239257541,-173.05708368001496,-181.3235130073563,-116.6495242962303,-8.951027034496816,72.27041453762364,101.04802093931927,101.95331949379025,101.05471565699006,100.5399380251028,89.35488167874433,65.93212571029426,42.56790471971275,30.070401998645327,27.26737795381425,22.584715070079074,5.675858719841958,-20.79143328455824,-49.03860734176447,-77.054549801734,-109.84677447165328,-149.34175582300094,-173.63761349037398,-142.05073139396023,-49.541542449955394,48.701002521246515,102.3779318471099,114.13858327946733,112.26720544282199,109.93663428962222,100.54462491634251,79.77295173636043,56.108110980141134,39.21649934710736,29.606954056217642,22.347908384313172,11.199177210558389,-8.27041497052567,-34.40520563510237,-62.062612275237974,-89.78423214395312,-122.70042629620094,-162.05448491116516,-179.63894108565535,-131.5629432095401,-26.59200801849752,66.8295306971101,104.68562717287038,106.4364422360902,105.67591302871865,105.34585624038962,91.79167594844532,64.3451695317426,37.669492101935624,25.237277312180883,25.533664833907025,25.106594608429983,12.236007524291857,-13.680124145577848,-42.96704886146989,-66.86344285040347,-90.91918982347578,-129.5492808930369,-169.50499777628465,-158.8036155473286,-71.53010456370129,39.20840322459995,104.08954526952267,114.98148514077259,105.85357324959477,99.58606214060411,92.9066545845658,74.8361447194057,47.89123568194068,27.40459452505726,22.025891877815024,23.788599217163025,16.652058498568845,-7.880084992441194,-41.25627257276538,-69.01435788705889,-92.17368352885305,-125.79698204778887,-166.02010844867826,-169.04073715925455,-98.69477983005957,7.762767913180742,79.48369623803886,98.03537522977231,95.42730207333786,96.01121347060058,95.8526516965193,83.18650437970085,58.00571638550548,34.570039538926586,24.3962278261847,22.06960479579067,14.988496230832345,-4.227888437688805,-32.89961588962385,-61.12322039820386,-87.12221539773658,-121.47540961565613,-159.83568783372084,-159.9814931241106,-87.57441151702054,19.4109293803386,90.97948145165576,108.95688535694572,104.85517016640745,104.79202675472828,105.03232800635817,91.0031592786208,64.64344197371297,41.73597366934466,29.73433760736759,22.64162529422167,12.243412547816634,-4.895828252075438,-28.542960828505098,-56.48796748632857,-86.19268100929132,-119.14638764471027,-158.61101985521339,-183.0569152951619,-146.802928762503,-46.992715975862055,53.44173472745717,102.57238257458266,108.0222002027814,104.61592843581127,106.30726990159941,101.06545409482355,81.30013854060903,55.8599971482391,38.27438489028704,32.564809092523674,27.948918637704747,12.798679014597553,-11.986821691684968,-39.677757644312955,-66.92287484109457,-93.63516611034237,-125.68779585438122,-164.75727110158633,-178.43329282470611,-120.99491576477276,-9.593340003482494,80.85161063086949,112.28020555268762,108.9032015853519,103.32161888534313,100.39456670789986,88.21592776790227,64.55654280406158,42.672026961241194,33.119889033552,28.24162133949376,16.976547165239264,0.3948975845369448,-19.018908371057464,-43.843402649831795,-71.85581121232984,-98.85597926536998,-130.58928016183307,-166.2157780971104,-171.01747986919057,-105.45378188479124,5.286002948317262,88.4971081586648,114.29109908659808,111.55072536865208,108.42630930407347,105.00682590726265,91.68753157649842,68.66165623197728,46.850507585166895,34.41872822590776,29.948580232680115,24.073900328909435,6.961117866006436,-20.307341694235305,-49.04039578682894,-73.61438633925286,-99.80856177605254,-138.6008744526066,-175.3505909730931,-160.74895449402516,-72.30406544586101,37.016214601197134,101.45655717139378,114.6780788605255,109.29191196632009,105.09563324856983,97.8055761998354,77.82083340805384,49.20930206595611,27.63703856578814,21.27567709000292,87.0,109.0,65.0
58.52714175142173,37.64041358322246,28.63698922919076,26.73833789080854,19.097044561213163,-1.3753677483381654,-29.005433948317933,-57.046095909929704,-85.72351536730079,-120.93159084571244,-159.6781590654857,-171.7297305839903,-119.97780036014821,-18.68630711889576,69.65658068487281,108.8771913770812,113.91747301355333,111.71752920055012,108.37764836441634,95.53799324418947,72.67965967988272,50.330088182350515,35.86520817400048,27.533446382305737,19.799360380782346,6.490057079554507,-15.3669791853225,-42.419915511998596,-69.95955810902895,-98.4247512991361,-133.9181589110108,-171.51891702868298,-173.66815318076985,-104.60966963335224,4.758109207424941,83.61295565306254,107.08142191659505,105.67582553376992,106.15346268530084,103.20121776620155,84.82247581773976,55.77159834920497,32.35224618213441,24.489369806140658,26.155290578455993,22.935392719892544,5.796417205883101,-22.33522962169175,-50.528106316087474,-73.10797202895235,-100.27301186283906,-142.8098517865167,-174.06107224915382,-140.52043674147788,-38.216082638200305,64.38749131742306,111.54509889943552,112.86043565555852,103.48452172295428,98.26526348969476,89.10984202931067,67.38358012984544,40.63155410750737,24.353484902844688,22.48753399925532,23.29500523729101,11.2927276775189,-17.340231695419778,-50.23994186488681,-75.57646674037821,-100.27540693237238,-137.99951751787108,-173.22910133851633,-156.1752824063504,-68.25503742225543,34.287975889263926,89.34208555673482,97.81503326094149,95.01079293544159,96.63930959444687,93.79998309477111,76.75540506262615,50.288671446729666,30.190839514729674,23.488474569896322,20.991466875199823,10.781994911802684,-11.938293528138491,-41.485469896351034,-68.50565637214474,-95.75540485515913,-133.34481856815893,-166.23687269768337,-146.3690116082971,-56.84180599403098,45.91371738186082,100.75435617648608,108.36908994090125,104.05842284039055,105.56291706653833,102.80096145073499,84.02698994575769,57.026438036036296,37.24142824820013,27.601807933873502,20.227456021318638,8.020574575564662,-11.128725074277316,-36.302787149281734,-64.95653989090792,-95.12506273487898,-130.08531132464972,-169.1737967528811,-180.43067920798256,-122.52365493384293,-14.74607784579938,73.64673536904006,107.11202692361927,106.66644932155266,104.84473115539883,106.17583870792188,96.70327773059796,73.89195656896777,49.506001155129766,35.648457394889576,31.80227022446887,24.863674441405,6.317979497214693,-19.91935307523963,-47.65572082911694,-74.58949932274426,-101.93177087206415,-136.8658637775379,-173.70865767318264,-170.1220754993793,-91.3749062970388,21.782558536606253,95.75065888604156,113.08363099603169,106.71811586272551,102.66941850759484,98.27210739405282,82.17868416960377,57.31360370296816,38.64190329941506,31.896569176346866,25.805599136954847,12.503369339144793,-4.844582611813121,-25.56279585854047,-51.90083668201154,-79.70827812358,-107.13970824054337,-141.29451248683532,-173.07184952274594,-159.81613618169646,-75.00029564104622,34.911352689966336,101.25043670606102,114.66769819998623,110.23132347871896,107.92873533028919,102.45014366520185,85.65185561984106,61.71022124362934,42.176119021867876,32.60267008117607,28.93372466141986,20.49464280829966,-0.2216650112783774,-28.83969750513123,-56.58411578203752,-80.43010704570732,-109.57643785785663,-151.20968739753673,-178.68400096821966,-141.74953182728078,-39.27201937729844,61.82163497802129,109.30768777043224,113.62253542439863,107.80662522388161,103.83384928416683,93.51033981107514,69.81806884299594,41.591616548646435,24.320451323242818,21.367048622988904,20.299900781108764,6.686601149502461,-20.895916924922044,-51.9204362818951,-78.1519817090212,-105.78931543422739,-146.1402245216552,-179.5443414312109,-153.44159050586154,-55.98499479435155,48.885216853441136,102.60170932610575,110.40033777709365,105.59705811688214,102.64100305722248,94.32144584062686,73.60328155152648,47.970455742621425,30.4329729266639,22.997153714423217,16.37131513887748,1.7241360638482246,-22.345695762722503,-49.87226874813544,-76.80491837387038,-110.29108161455409,-153.6049446064095,-177.5032209715334,-135.63786733568847,-31.806822420244398,65.86552219497514,106.88222774369575,108.67713161522909,107.80642173646304,110.41780598770322,102.40335410785721,78.20029571097854,50.37551909583566,33.66025469798913,26.563962769804647,18.903517314174195,3.0755317336350427,-22.86814512317905,-52.785062739788295,-81.33854769977522,-114.86457364686447,-158.21797818747615,-187.38457989907957,-156.95930505264056,-60.46810984246583,43.134186817491596,99.05629408711158,109.21166884543264,105.68982712469426,106.06073024191117,102.95215920759892,85.64713087159755,59.455932371924014,39.25415259933128,29.734031900513116,24.43894659179606,15.056074752469046,87.0,109.0,65.0
34.33860746469095,22.620681504390095,23.197483215066015,21.650987522111947,4.417958873144028,-27.157355263256335,-58.44012234032622,-82.01605906183408,-109.67388138029452,-150.29689336162002,-175.8631703889236,-136.77551639074318,-36.563852809557254,56.331019821241384,95.07615962280211,96.83641441240407,95.1460244478764,96.88609861973254,90.45451216413464,69.44748434736672,43.17194913409355,27.06001715524258,22.938223803429917,19.221422226123497,5.4549573934656355,-20.25600873122241,-49.761723796670154,-75.82921885344018,-105.42567648823939,-145.12337399975374,-168.02056683911934,-126.33565758031409,-24.985013426895495,67.91119641915162,106.35260613884039,106.94404570561912,103.9587356652304,105.98422908417525,99.06917679292626,76.30753391148396,50.12039544469317,33.668069971715695,25.645694499156736,17.37172613229119,3.2018415715619923,-17.876370232616022,-44.353374613650914,-73.51065449465446,-104.44758724355412,-141.61998464915177,-177.54587899305002,-171.54635988047232,-93.67443727830499,15.583839442921128,88.84157820670009,108.75618933386936,105.42698442033777,105.47769880856721,105.03137536941817,91.12545716214979,66.35186735497999,44.12077747556441,33.96127563586923,30.739893181411613,20.70889663505711,-0.8112934420863661,-27.94282807096326,-55.556212069135086,-82.22791361585485,-110.92458104805768,-148.51393872910364,-179.28316407675308,-154.9181533143078,-58.61851444591733,49.407024475648015,105.55654330854513,111.99874807291786,104.94892481714997,102.04323205944313,95.05674778848349,75.31217035704454,50.65773930071579,35.75446158943626,30.685877007311053,22.671964596090703,7.72722499257664,-10.332482046992098,-32.643462426531805,-60.06734229237487,-87.43119918218049,-116.08916799551653,-152.09150745147096,-176.09159572344322,-142.04062378383617,-42.27769068517388,60.4034835444863,109.26025870613799,113.71621842992775,109.27632096195892,107.174649503762,98.84991346308625,78.96346322718622,55.17911945711928,38.39744013332299,31.327528845562348,27.50509354549948,15.790490571454352,-8.086844254069941,-37.26644675074434,-63.70287744543916,-87.67649429775642,-120.63861206742868,-162.8702895996839,-176.27225185628447,-116.7164998287262,-6.502643355874507,81.65540755651618,113.41703154587991,111.90709852115855,106.61620487651746,102.0312404977129,87.97032980698344,61.38575142072525,34.9823606588872,22.316636391545945,21.63063804907336,18.034121274008495,-0.18741553260650667,-30.05153944526485,-60.04238183526467,-85.33515788843305,-116.10226177133605,-158.6076612067802,-180.20696440779165,-130.84291101133425,-22.83497980398683,70.59663418186514,108.08102529184285,109.11730463904206,104.61968620534044,101.30846071417652,89.56370877758236,66.06254381359375,41.686096807330266,27.53835952774628,21.492840151289684,13.187291595218369,-4.4204919807832805,-30.287201470375024,-57.608700366219026,-85.31201255737268,-122.3138216832833,-164.73143094709258,-173.50770030228858,-109.75563117283399,0.48165121823790014,83.9085897293535,109.52343501207802,107.73556623383016,108.73236034417451,109.77933948528717,96.82267132528945,69.68469572980013,44.133061276895816,31.054800691873435,24.82636504642013,15.393628734979682,-3.5102861854165264,-31.501014077505282,-61.120995269746814,-90.02372526927468,-126.71789551017142,-170.08037747707255,-186.35441021202752,-134.18296625274948,-27.96175033965702,65.17625936043227,105.39710552151737,108.27726476664185,105.37237994820214,106.16841443587099,99.5428868012021,78.32584607471989,52.492282536760904,35.58105216635033,28.14200559857545,22.511510958047026,10.482109625219584,-13.315968182910629,-44.488501249737894,-72.04457243652426,-97.23478533445437,-134.43685104911972,-176.50155241068785,-178.31876682465125,-104.6651670855477,9.778920895461221,93.29931193665038,120.67795187289484,119.38406816780133,117.72338352094165,116.00925768539433,99.92522598144951,69.40622686014125,43.441951833440484,33.86101625132289,31.877767557882258,23.735450248559992,6.03612862518213,-17.94723231803728,-45.798037915435565,-73.71717937641617,-97.84356159241273,-123.75977696355247,-163.42437192464138,-204.0768289194228,-193.37130019819412,-100.12030435333634,25.085218015532337,105.5085854391768,125.40022949742769,120.73742610794656,120.2240866422998,120.02298395223615,104.98947218098343,78.64510365654282,57.73824387581515,48.85703920771022,45.4992924085497,37.381195719166165,18.90434894431941,-6.951476102528921,-33.21312061717423,-59.1687463935355,-85.55129255305991,-110.72895991429422,-142.87561316553297,-179.99180792908524,-179.19385926858723,-101.20521339683853,16.769152600378455,99.306609942887,122.59888507959445,116.27316426626504,109.84040889216683,106.07312996395439,92.97209831038445,68.4052736462702,46.38567160925505,37.35353833467783,87.0,109.0,65.0
32.92431439212392,29.030203397384472,15.513567648723608,-8.39064527451008,-35.980918065717326,-63.35965288981698,-89.97256112855054,-120.8111446383768,-159.89169021334357,-180.04844122980396,-133.06447600608547,-24.87803603037414,72.16226565916814,110.9878329495704,109.95574227057325,103.72305126520199,101.06581690126457,90.64558945499098,67.9781572036719,44.93315178989532,33.798452741279036,29.139381999916058,18.89824458250923,2.7476173482556563,-16.175097503993875,-40.21713162752899,-68.17255159556328,-95.19479876917434,-125.83684904430413,-162.14008235576915,-173.99506314920816,-118.19221791649134,-9.37685015971473,80.86150912362595,113.39862408314613,112.24325927570841,108.65041077942476,105.86857793474884,94.17970868547187,71.92971235156053,49.297570309954736,35.489132734157124,30.36325352481392,25.367460667140936,9.981071470329,-16.394328676815995,-45.41405401356159,-70.51556621363487,-95.73084011085525,-132.78055558428565,-172.224618928275,-167.2423407312441,-87.04374106544212,24.08729631331803,96.34452158452076,114.73924545122975,110.07777928128242,105.58359154099347,99.38257466177647,81.25645980664683,52.96427168346966,29.636624913332287,21.410262290373375,21.62639695369847,14.434876825362618,-8.095201215855667,-39.17103086341774,-67.65104979968525,-92.97213286554673,-127.69933827873285,-169.52415980409407,-174.45426796730018,-102.84587366686875,8.804071622916213,87.16943981388462,110.47124674319531,107.57069303196499,103.85637668140004,99.21653903524785,83.71063520044162,58.448479790931394,36.36155866005814,25.377243034428627,19.769893353513496,9.172480549851544,-11.304318035146839,-38.30883147235782,-65.28240711129047,-94.67020736450685,-135.07400386569003,-173.09369718221467,-162.9532840388165,-79.59879144856319,30.17080115251026,96.64572666346422,109.92335192561038,107.29348461230089,109.72901766038053,107.86410352272239,89.92880446549466,61.34359083782992,39.06780216586604,29.037259784570804,22.792713692120255,11.054015174084563,-10.917975519452241,-40.231605538760455,-69.29896246255606,-99.41204805234824,-139.385644093335,-179.7814290590544,-179.1860521580945,-106.45818250352791,3.201561929417921,82.38442006272764,108.5238186511622,107.04399969945513,105.51561821477647,105.6194302536772,94.77687490339514,70.59274979344508,46.384566168169535,32.749503115087,26.696758937904647,20.040543267544656,4.854951876366761,-22.056401578092867,-53.16495973098134,-78.97252686145096,-106.30441643651514,-147.51668563435743,-183.5925216030123,-164.78280113491812,-72.50020449880034,39.548441797592076,106.35827988707514,121.57637681260364,118.38308556159288,117.84566647162933,113.31832279076654,91.94401323066943,60.5284210746992,39.04364209831536,33.22307614280047,30.539842954784394,19.486457367677442,-0.3830177569231855,-25.699073568701266,-54.10137306518649,-81.08385189139626,-104.57288416388074,-133.54966509280754,-176.8446950356681,-208.86437842080963,-174.25044303905514,-63.33759490477314,55.11315043183979,116.34210718666843,124.73630828617536,119.75942261595698,120.91740935604976,117.53040743144525,97.81343728487721,71.43922672362564,54.05184675255887,47.782458590417356,44.038956235610584,33.13925683540973,11.861717845722431,-14.694043046792313,-40.61201758613342,-66.88149026230408,-92.80855126723655,-118.80202631366029,-154.19193331463774,-186.28508999491189,-164.6287564399178,-67.6889957915639,46.742188251879305,111.36709456892402,122.10010253434172,113.78282688350649,108.95495117648362,103.70134532300656,86.63542629294415,61.04251418955972,42.39914129705051,36.74371972486049,35.71458633674917,27.122812381100847,6.494554209425762,-20.486947858183587,-48.269658007816,-75.22245173166856,-99.94431830869573,-127.649993193074,-162.7852969917335,-179.8405170311176,-133.2304410123944,-26.615912769728588,71.99896507210033,114.03553553381782,114.05002965011678,105.31036221361583,99.5727866959699,90.91242216317401,71.45277453448048,45.07613793075767,27.373085984696342,23.57908829087717,20.426471147734404,6.191390835650575,-19.24114305334953,-50.00951983610883,-75.66852593747878,-95.26023107507358,-126.02840059523804,-168.70314806326246,-175.73608876362886,-102.16139577484128,15.852008686946181,98.61499481606131,120.16507306659538,113.1754193991561,110.54411887833699,113.64235466446085,104.47224003829147,77.65295496340624,50.14827319786555,36.992771172419495,32.45273888669473,23.52128837242083,5.748760579277822,-19.92831923236187,-50.107067604180344,-78.76455899569152,-104.67566394651972,-136.62998391420092,-176.53970539132564,-189.63833579911082,-130.5979433984949,-19.05614011853683,72.86953966518419,110.32888997345192,114.35599393551338,112.76917620209211,112.80773030852396,106.11669039099922,84.19550755733896,57.08348174100487,87.0,109.0,65.0
21.277012882312093,20.942351830812747,9.442954922832607,-16.746183235454296,-47.99965195523192,-74.87868021539491,-101.47834211887066,-140.23459233173205,-177.3825524488471,-161.68700936971825,-71.21675712451453,37.221765366706336,98.77447485105189,110.74036730323239,106.15262624525481,103.08249908496326,96.1251283517708,76.94880692804986,51.14129926567695,32.071395325475876,23.692384530285302,17.587433918688795,4.277011474323375,-18.765788457315402,-46.25681390569341,-73.08748071255499,-105.09922038062648,-147.91610159963864,-177.3102465718059,-145.71578548603068,-47.044523302933506,55.7447216406671,104.59168122678952,109.16383087496028,107.50777856245247,110.36524933060738,104.47882847697394,82.04773338736409,53.62547219949699,35.135139721376945,27.3252169117212,20.273772003164197,5.807594932486805,-18.985357650429478,-48.86844209239289,-77.48929611936914,-109.74528737640571,-152.35333418727083,-186.0254082276025,-165.4644305377865,-75.3940655440146,31.437065025988403,94.81965629561945,109.35150424641863,106.01388102035257,105.89580704032255,104.07333256024667,88.76833093732058,62.88579609715289,41.27018947464058,30.573636634640195,25.200454268107787,16.831701727358368,-1.8337751672488898,-31.176226150873,-61.264066331658796,-85.95643633271258,-116.7720620214862,-160.43215404084862,-185.89184511282744,-144.52868139461876,-38.60580504332355,65.0596609953541,114.83471455199079,121.05799090296192,117.81291728525106,117.68118173862865,109.06001949231504,83.01600016135353,52.59963403644876,36.09480072855827,32.826783459351596,28.413600845638207,14.482182185728535,-7.238398246168496,-33.734019539516616,-62.27652138412333,-88.07094854502562,-111.72862135043074,-144.78739284144748,-189.60307977343604,-207.76003729555057,-148.1168650484547,-25.981238808666042,79.80960456550241,122.53172999392498,123.1327574087337,119.52293538914726,121.23387649650999,113.49094420889064,90.04366320261951,65.09701295821681,51.36365810809697,46.92539604669403,41.93337251274425,27.971477528881564,4.3666250644630455,-22.312570916153785,-48.06646115754494,-74.5774015644185,-99.95844754551219,-127.80636354317193,-165.57702976239364,-187.9008194308605,-143.12056262065082,-32.657824809103644,72.0367469160086,118.66801494300081,120.12987940449719,111.78335163475907,108.08374648863446,100.22642741770463,79.4829403390034,54.346202023238824,39.6001937471204,36.544814887468455,34.4342605366304,22.28171617715518,-0.9994159059977675,-28.52560921625329,-56.228270740320006,-82.55532637106994,-107.1993545425005,-137.38381551229253,-171.68051172596697,-174.31060104230613,-106.28590716623575,6.0258246224148255,90.33524907889749,116.69702671223095,111.40679471473413,103.41875142463093,97.8054503054317,86.55172630678993,63.93663313703401,38.430371114231015,25.197944739096233,23.34898830111696,17.630980379013515,-0.17862223571790603,-27.98671657130991,-58.379100760260194,-81.40724377771807,-102.19271435505374,-138.35949149673877,-177.30720837818848,-162.97871569096492,-68.95136195608255,46.071606027405494,110.31562343090042,119.16367450550077,111.26875974862027,111.54682882093032,112.9791683800297,98.08591399556096,68.79833488324059,44.73562819495254,35.45209244720065,30.703535358658815,19.291578473476363,-0.9433217466921067,-28.434147045410796,-58.77829076146787,-86.31041259599891,-112.7766420996889,-148.04732171323124,-185.55108021394457,-180.82627211161773,-100.78838990534655,12.379478985556384,89.05704933599635,113.40123946969149,113.74965077053852,112.78079636961114,112.13106496923734,101.3339475148827,75.97971887492149,51.09558763945279,39.9849765445961,36.164079953049715,27.374270134667643,7.856022883211938,-19.74567039286214,-48.62384393311987,-76.45774792133818,-103.95405565496306,-134.6565853146031,-172.33338313500565,-191.8010865743912,-146.5184420882792,-38.822208680341795,64.96570113468864,113.23338799509372,116.66721816622564,113.29910861684913,117.99127598118035,115.65056144517118,93.82974340650797,64.73541880920524,46.05248156860689,39.03237823599123,34.54755670095589,24.500371773293725,4.44992925940776,-24.99079406307683,-58.24588905929905,-89.76084194551092,-118.27581397386619,-151.23636694436073,-187.90620491607163,-189.76222966819395,-116.30208979926844,3.288788800774901,92.97857190392575,120.38034331643183,116.38977200445431,115.32554483543323,115.77163031355704,101.47709502028934,74.04747159813994,51.03825379625657,40.819055803662835,36.82601181092694,29.48112253519084,14.633009019293464,-7.238880873845524,-35.310411123072335,-65.77343742354297,-91.34819759934892,-113.5105007957049,-145.6696026201145,-181.60482627886643,-172.57880413816832,-84.39900876278395,36.08606612962909,114.4515643884891,134.02645309425006,125.36283189630451,116.18413662728905,108.62059715056694,87.0,109.0,65.0
12.718104316927509,-9.499570063840926,-40.33926718844063,-68.75834111626664,-93.46586315536055,-128.6071235780222,-172.0004331201026,-182.23540811861056,-118.35607423681606,-5.045686467614936,85.58412796980382,119.52665010385047,119.93272347286776,117.68234280946612,116.78644481480148,103.16421384066662,73.68294181184176,45.98732786646916,34.35320687772731,32.27684927443254,25.414072375795833,8.830728651918681,-14.484530241696172,-41.967099720980656,-70.1878563530534,-94.78482563658471,-119.70367126177838,-157.3288811533936,-200.28765636141105,-199.64664781473633,-116.24616568353075,9.722074507719267,98.72089144937418,125.11260816842359,121.40862033939209,119.91453882897913,120.68419987665195,107.96890169044916,82.1754000802654,59.80440651540592,49.499757878676455,46.01257679793389,39.02311619585412,21.941543863486082,-3.3635854429360093,-29.795038972709257,-55.637398907042645,-82.1361323092468,-107.23856948446303,-137.8882550759195,-175.93934026444583,-183.50720609242742,-115.55106348493847,1.7071098106366585,91.96986551183856,122.06991843878411,117.51432412474023,110.34371716675155,106.85846542719055,95.53679182699159,71.91135456091705,48.63281201718541,37.85844974453728,36.42673543508771,32.240132424489204,16.4479993621279,-8.812973472962991,-36.56087758072867,-64.08144663335615,-89.67290456520442,-114.9516340232767,-147.7403950681911,-178.0107697674233,-162.36322142818253,-75.26615472129366,35.962129067671206,103.40540408901438,116.74183796821194,108.72682914456936,101.8044081663988,95.5550103574353,81.13285227100955,56.11420095806981,32.94182343839491,24.08934946716886,22.722839908697928,13.75383165365416,-7.403751684313177,-36.99306713072833,-66.01714633269091,-86.82920428161873,-110.62404451045826,-151.3035388095444,-181.26871807381397,-142.8648643293199,-33.90538390790781,71.49800253634376,117.09689968239151,116.89525385471177,110.28393440854366,112.7235521722354,110.79297722696958,90.3578336141965,60.46425512427159,40.718374003704966,34.279695745449644,28.323672642679337,14.311534217486008,-8.260053709078768,-37.19675482557252,-67.16079679875774,-93.68919423753209,-121.7068578835006,-159.97396962525693,-191.00019616627702,-165.10413674573996,-68.00627450167202,40.31208380078409,100.56310569801906,114.55252768444247,113.18441456754881,112.901909192935,110.57391467116429,95.16506137749597,67.8198245978325,46.426174703268046,38.73477461016014,34.54620203357141,22.876267675607696,0.4074440362864469,-28.190081361189986,-56.73681716473376,-84.40578156159589,-112.15323487606604,-145.12755324906888,-181.97423962288397,-186.80414986613172,-119.60909249552937,-5.097386667874318,85.26511499138023,117.13036310337297,115.02999395739153,114.11423748414835,118.99092712660045,111.23797338864856,85.21295242837732,57.84970956999976,43.17836386922281,37.89257362300316,32.49001954312649,19.81993473154113,-3.2748045764578304,-34.49785564171666,-67.70725078042591,-98.15173293129594,-126.88672676849491,-162.36510484007354,-194.50977219250774,-176.63698622369762,-83.21894207207474,35.15820381460979,106.75171155468348,120.40626318143678,115.16203525700274,116.09588899235112,113.5783743128471,94.2122396145961,66.2289308228043,46.865330937201485,39.498057752312924,35.36581777594404,25.977913127295466,8.995129918040826,-14.772142785934712,-44.18853922206815,-73.8970402798387,-97.60869210862964,-121.26886883478336,-157.14674447130346,-186.26217111201663,-154.77816986334352,-49.13770632316578,65.18728654069913,125.20404432581999,132.81655340541923,122.15158400646226,114.35213805118335,104.79582995937336,81.70358322414728,51.51436338247221,32.24672506641857,28.570169014465705,27.339436625503474,14.486511598571681,-10.788348407901918,-38.986353670209574,-63.32127754347216,-87.128322760229,-120.04777488564474,-164.3940869664967,-193.8642250125461,-160.41463520663947,-55.68671511508899,55.87609906847395,109.8993349916936,112.41940516753836,105.53248543236899,106.09457309190098,100.85373953798718,78.18314681065559,49.0748198879785,33.00759006346341,30.673756328460517,26.862019346206413,12.113145036964372,-12.661121922758877,-41.84177949633979,-68.24044441101712,-93.01958585194573,-128.48533358365916,-171.23896455159317,-178.07702676580593,-108.32191746215251,7.490165219438749,95.18875653204712,124.98109970868447,125.34604868370899,126.79257056809925,127.49000964002578,111.45125604895308,78.47215557799979,47.49787591418543,33.56161153743602,30.898562883647134,22.842483367459778,1.5370348912768081,-27.94377499757971,-56.56752793783981,-82.65065253140158,-111.80258304642139,-149.90787759519756,-192.66339786010312,-206.4617733912957,-146.86448383931844,-27.9810688904412,74.55041403171964,115.08466775098397,118.0752011202587,119.52086924542161,121.91782572755201,87.0,109.0,65.0
36.95457304985463,36.05687817172707,28.991483762786714,9.787271364094202,-16.787064997841682,-44.58125494805358,-71.75890534979908,-96.6897449427112,-123.44470989721769,-158.17703794743602,-180.41396301926906,-143.8523268376982,-42.07463331305869,61.762323168732664,111.65093200981944,115.12437515981306,106.30440545631318,100.29443885187537,92.5826879101882,74.70695752473952,48.43713085945226,28.809904343864822,23.666499475855645,21.364870684241005,8.811445812753398,-15.363998720820428,-45.96917803805958,-72.8098660613666,-92.4453435655512,-120.78286702968086,-163.64094604776554,-179.10221221264283,-116.22958418340598,0.6673074063713791,91.37562388371568,119.90502766586762,114.28753604942919,110.26937200232123,113.53914770480576,106.8714354190212,81.75766033006873,53.113944780252965,37.93774885099605,33.09431726110287,25.2130767731435,8.610681967528148,-16.135154229308053,-46.04617103961488,-75.18567791651458,-101.13661195219456,-131.67363661870243,-171.59508140969493,-191.4514969349373,-142.8164479711349,-34.32196147626118,63.73301060049892,108.02432535511393,114.56040680560804,112.83918675020111,112.91559215631936,107.83693681777577,87.84705649595574,60.25074103344463,43.04347906023857,37.764343291205144,32.251264505785244,17.419409090613264,-7.566393554038907,-36.57723092027158,-64.78034638209073,-92.32371074299766,-120.79277691524746,-156.20951040567377,-189.02680797106441,-175.2778397797731,-88.374879589152,26.293469050072527,100.23694819053345,118.13770300600547,113.73543063416406,115.59111874327421,118.82390716366874,105.11677835648973,76.5177305102285,52.166729109369996,41.11530864908532,36.72339844905708,29.80072198876014,14.233128659746457,-11.709178008812511,-44.1557921996536,-76.90880199540848,-106.31746081365755,-136.17262150308937,-173.54415129757052,-196.8095459938868,-156.58694444605487,-47.88965575359879,62.627349407649945,115.3142841293989,118.99835076506255,114.72442437016127,116.59169437694148,109.79966208830777,86.15899037954628,59.25088353451953,43.77833712473551,38.437736762972555,33.418128046948226,21.821090017088736,2.7990464503208092,-22.81190617658557,-53.11154532319832,-81.42579407428028,-103.78109487098072,-130.2755792100248,-168.37946680054137,-185.57432604324578,-130.12764050779214,-13.20540076575813,89.230381085111,131.38342021563795,130.19205354826815,119.37431139506018,112.4296487267115,99.68655784927078,72.89242000704186,44.2163468065521,29.91966058708258,28.753954045993744,25.14310305342122,8.136643142935501,-19.098311984718688,-46.463668996664,-69.87170237357101,-95.28761777792627,-132.1465916340902,-176.5062592787713,-192.4434655007538,-135.7529648834071,-20.35155168012414,78.55110103775615,114.07031208422254,109.8771225432278,105.179055102268,106.01526388543952,96.05759290080228,69.4579490073877,42.56692920968254,31.498049377346508,30.38323199298148,23.822036971298587,5.8004612314494395,-20.976060377073097,-49.97393729443317,-75.1281331448585,-101.66502080636124,-141.2788220754543,-179.48509324897773,-166.07312717702789,-76.3233292163034,38.432368328934636,109.20296784378641,126.27300998734178,125.12113403894018,127.81816006874573,125.05476154800617,103.0438882704359,68.34417364633047,41.56041278459767,32.362392107464146,29.751618479470277,18.019139279384625,-6.57581174040333,-36.57816885207584,-64.18838238868827,-90.45442258704006,-121.73128466193663,-162.58977443235995,-201.91224054973327,-197.81678570802282,-115.80155539594423,6.742591203550257,92.60198239407511,117.76320001055714,117.88980841988284,120.69657900419968,120.8038951266129,106.36640252342468,79.01444569807518,51.94663132314528,36.56233489361562,32.37412819463206,27.618666487808117,13.721743988088612,-9.530492009202359,-38.600438195748154,-67.43576190048063,-93.7171954083353,-124.7679513692575,-166.42495811455697,-195.41106547951983,-162.13106788304333,-56.505738414197765,59.135910580350476,120.32162116076032,126.58975502603086,118.1196441143638,115.9930234891766,110.64162391267031,92.96066383526116,66.48936053072906,41.32877403852655,28.067795463539465,25.6431743758495,18.765231438431776,-2.421982095849818,-30.846981964627847,-55.99392176373764,-77.50302252891153,-104.54002524564552,-143.28911090508518,-179.92618762389068,-171.6934782145276,-88.50277281128916,28.50207833767748,106.73352780797653,126.99339880816729,120.73783237322709,114.49367123873026,106.2445846443695,83.19187418478892,51.51398595370219,30.058653420005378,22.80542913526691,18.62035060931648,8.120416021592831,-11.578279787169995,-38.50004092000686,-66.01535805355395,-89.90848010898976,-118.29905438531571,-158.4096348845872,-182.981020855145,-140.2653482922018,-31.932500960081054,69.38203669323833,111.66799847583931,113.32325429378145,112.73342578262726,87.0,109.0,65.0
53.69758631190175,40.75352307884965,36.73846735345495,29.12465101289155,11.060693081084615,-15.864108780179718,-44.850146143735806,-72.78098888630831,-100.25932013515832,-130.09833948995995,-167.3816054777094,-192.09534143656148,-157.05820668270377,-54.649961531557096,53.85020163884383,110.17085994951047,117.34928097348276,113.22167201577696,117.28803705579573,117.06628178291004,97.619901474847,68.26787446783706,47.71569065368168,39.6091872924816,35.32230365400489,26.36282208993643,7.738923228866718,-20.702591287707182,-53.821606653040256,-85.78514339829181,-114.45689123481122,-146.2956398132136,-183.8179730083213,-193.47812052476746,-130.2372763713004,-12.47924523293704,84.72245582883016,119.56289961267912,117.16431414839874,115.01977954163071,116.29830091528848,104.43508603684543,77.8335063311539,53.357852712505675,41.59091377314765,37.37885472849646,30.872828959107682,17.039020124675424,-3.9458154466224085,-31.28767708069531,-61.859249235297575,-88.34082979657245,-110.28001549264756,-140.5662720558932,-178.074172022934,-178.3319147868706,-99.80782187202257,21.234557588271297,107.75946917885892,133.86450287438134,126.9190673498632,117.09643497089124,110.01256745208754,93.2293229605603,63.89685088501586,38.25651007111155,28.797587087020247,28.690483814845187,21.72428030837401,0.8809526544818986,-27.36957570959464,-53.537466803770265,-76.5608361285586,-104.47610327954821,-145.11640593183228,-186.3568725733749,-184.5261255208576,-105.68330439345574,13.365538972974223,95.37341544483299,114.84692099951184,107.57020909662987,105.4441858658777,104.94874893274206,89.693680158438,60.70776880335001,37.563543734724156,30.883397500763824,29.553079714921758,19.769344601660865,-1.2623492357076465,-29.487356060788017,-57.698837643106266,-82.0541336062704,-111.58704366312377,-154.26459325261592,-183.2611165670837,-147.0781872196406,-42.108547584157016,65.2162877669755,118.40670900906453,126.1783860996179,125.46211406654251,128.4104898891759,120.85120566958058,93.46820604581455,58.96318166424634,37.25129514945515,31.741672841792425,27.746737107810695,12.044895995808913,-15.144917245000178,-44.93870259585815,-71.6644307548978,-98.68384355728209,-132.54438346696713,-175.3964422845695,-207.53967844100418,-182.09137795022676,-81.02858103774057,37.957028638265655,105.12646968128166,118.46134545179244,118.19428354982595,121.6698691794775,118.37131284639086,99.32006776513458,70.5152841215973,46.04083827868137,34.601780072970776,31.628418646832344,24.658520183166743,7.866455576127493,-17.575254737873074,-47.21175757082317,-75.14837666525352,-101.70014792584615,-135.96099406569337,-178.17161617506216,-194.08233809941166,-137.37452576539815,-20.440775053509533,83.77803545343092,126.20920695659397,123.9737088603041,116.93564008430546,115.43023061142213,106.84119904424725,85.84418888869722,58.55127575478396,35.98345243824972,26.767453364178735,24.86280787677638,14.072349557979928,-10.459955041486179,-38.708377442118135,-62.281321338326855,-84.28293494212801,-114.59754856462175,-155.51765784248303,-184.39435412964954,-155.059213069497,-54.666595784844084,57.35775555350881,117.619988270477,126.24635217612673,118.50429629973799,112.97832880587396,101.33940760804771,74.0582416116246,43.65844648134983,26.867487224683053,21.83411973309696,16.460965526424015,3.3816548666689146,-18.83712673677531,-46.73362111816462,-73.19117331711695,-97.0300057426201,-128.99413876214996,-169.45153325175147,-179.19840878973406,-113.272591382493,1.6458617482332398,88.01482080250324,114.34173872764332,112.35013646604318,113.8801688564681,114.14317848794542,95.34028141758141,62.21962134100097,37.152506681447505,30.404832898941024,31.21294831922019,22.478852837803107,-1.7022751654811916,-32.975924340077995,-60.9295341960043,-84.70677858500918,-115.2301132883031,-158.21493527700295,-182.16570742511465,-135.7392461503765,-26.87651049285984,70.70946057080535,110.5623254588833,111.44411019128,108.32133209678474,109.90394777535825,102.19851552510156,78.92077494088983,52.94554082316444,36.03113959245215,26.045940111964264,15.265687816320241,-0.4100173172778105,-20.639067727067193,-44.97379125052065,-72.89337243952639,-102.88745359745185,-137.79348089702378,-174.16229228040447,-177.64230430927765,-111.61422208242706,-4.865256925198572,74.85339630727537,104.12135546340528,108.06020493999046,111.16222284488389,114.56613605794347,104.77487652104122,77.12222839587321,48.55759415108005,34.974141032007736,30.548055290257235,22.012395140218448,5.830804295077973,-16.212074053455318,-43.01739556843429,-70.54348909280924,-95.70529037028292,-126.71311605020699,-166.0479476568843,-178.14683157065454,-116.8370811816796,-3.654847193099015,85.88786875445754,115.99698813593356,111.0358678953601,104.38775266733721,87.0,109.0,65.0
106.7078248723797,85.56213816985681,55.24774957144922,33.79466204854388,28.526623820641788,27.977549973717558,17.048546163074235,-7.0136509209044355,-35.40176386910669,-60.283099547345586,-83.64986278985694,-114.8514919986905,-158.39457066043394,-192.58703907596635,-169.62406934208107,-71.92261785678647,43.55677701356336,106.50689772830304,113.46245465343922,105.97435230683075,105.93021223138764,102.50992288958044,82.03398742765722,52.517899191477845,34.112232516685296,30.720981378718474,27.92634223085616,14.740543840729396,-8.948503258457396,-37.9848959895154,-64.99681275261156,-89.38835327683498,-122.87048613837304,-166.34612302051818,-181.2387133157688,-121.76996592074721,-7.797396821104688,86.96173154651959,123.63021378558031,125.592581146755,126.30608262308436,128.07861233082858,114.81826790809399,83.24431264202114,50.778202636317765,34.43423055298834,31.226414879364896,24.661967873551454,5.051676496959241,-23.906577351791757,-52.970398914794174,-79.14986165863236,-107.49943684757145,-144.24626784240226,-187.5571136965867,-208.18177990359897,-159.43401338982733,-44.66402647565618,64.28579518145926,112.85174380669284,118.24671424897208,119.01667742813147,122.04622923040911,114.50993971374552,91.40247603198235,62.41788702431581,41.318435866754115,33.41414984752832,30.483492025195957,20.834264584759485,1.2726835819487998,-25.9886706268017,-55.63816181679548,-82.66921317481663,-110.36700961070109,-148.08294544271197,-187.8691794139904,-186.23892032558484,-107.10247944349926,14.354792489770473,102.75007578328263,128.21569314488383,121.21529921096527,116.38108523983009,114.19293269973531,101.92636789621538,78.17585137433035,51.009478152894225,31.865088924857908,26.165159001182452,23.24498782325668,8.115263695984025,-18.785875327372388,-46.09507574485584,-68.38413914630652,-91.8046385030253,-125.70422288124492,-166.958652743448,-183.78850304705668,-131.89371869718101,-19.842513863491895,81.37210291178489,123.96063437206978,124.28602347914774,116.65805934611934,110.965145400725,94.93362713022066,64.63632360811171,37.096008405788744,24.725667874006426,20.786124396398474,13.622308626184081,-2.150013116789601,-26.60327351050116,-54.810403899007106,-80.04061053954507,-104.88015210337694,-140.71359717641874,-178.03729403678523,-168.52256436131597,-81.77519585742026,32.44552134347174,101.14871766571841,114.68918320222569,111.9663814120959,115.015763448571,111.0456283834869,86.32195137121006,53.26169296403856,33.47094869075605,30.675605344562932,30.246615547313674,16.911832497392492,-10.565306683898616,-41.66967222347865,-67.93234482637416,-92.19443531901446,-126.85845196831718,-169.58123562436242,-177.38607756767857,-108.02717411217675,5.852565503232131,88.30633768320688,113.04260421798249,109.92948130262086,108.71236096764656,109.31742968402739,96.75842492151725,70.93824390855937,46.97959028870017,32.783096781830636,23.298385825613295,11.280626615363639,-5.842264421848377,-27.231207968946666,-52.76044894194859,-81.33127021517183,-112.2588064221788,-148.9790550476367,-180.79330525130908,-165.9902549521873,-81.87069650043424,23.27258982219762,87.8829212605264,106.40090339294342,108.5448477943965,112.60314910885984,113.6924519098133,98.21562862255112,67.93295059052471,42.94589236476953,33.42883176154205,28.875920273344214,18.04704658673358,0.011465075019778594,-23.55219515478251,-51.17028040363477,-77.92362823952466,-103.5104988662439,-137.93476021963744,-174.87806625205795,-168.78992735480597,-86.3293735694873,27.614553783564116,100.41016872640922,116.37099273430178,108.42117147187962,103.72374475958709,100.54085823613012,87.0256092591584,64.34306908413066,44.64333647523419,34.24732459420283,29.218553085456463,22.991245578571263,8.21191102106945,-19.449572582548797,-52.83102210588184,-81.18129435521149,-108.31053165661501,-144.86959065360048,-175.17238877364173,-155.0438625023523,-69.23649749874444,32.598971058246214,93.10132329525096,106.17140846517964,102.32174613157545,102.8613415827094,99.80465925924184,80.05745592484853,52.138999413423875,33.7579710757449,28.298132049757815,26.153682538093673,16.091410081706247,-7.315542194015295,-39.69209422467153,-70.73932887804439,-97.29657098840785,-130.1198326984489,-169.97524467468978,-180.34453163637974,-120.35176197779091,-13.510522852546595,69.54038139631419,99.44768994718937,102.71252057937289,104.54737006374265,105.33096191241788,97.56462111595133,79.88474562105743,59.75638499229694,46.85318677918584,39.76888951489713,29.191274255479254,10.590180497590678,-15.935278930484879,-46.22153955641619,-76.24059128042536,-109.5129983925002,-150.54949038231962,-180.80803134581464,-157.87713444765376,-70.15880333727853,30.922345370569925,90.62598778440888,107.0994070308066,109.27652588680826,111.73224124188356,87.0,109.0,65.0
121.47006496812294,109.2373813230549,82.97000479269452,55.03647631182992,37.80046471151936,32.66888552312242,28.700182564805758,16.156410120726658,-5.986077813249222,-34.606210666707824,-63.784578019764716,-90.18477716542317,-119.97504956554835,-160.67169128873684,-194.10166861489873,-171.35572969551654,-72.98131104701734,46.01323549975182,116.01436456937024,127.5055367154993,118.92682721336878,116.12459887472424,112.01151832120611,95.99505183362916,70.19816893928024,44.16885077809508,28.997054892766588,25.83460376699668,20.478535533692195,1.0946361456025078,-27.09362239234003,-52.976698506225894,-74.5562738141719,-100.27579980812881,-137.6310831894636,-176.50964116489183,-177.05390003011664,-103.18514069002734,13.865606638737837,99.98594012646834,126.67838813586226,121.85986838180163,115.14309161601068,108.01999534010821,87.1543352386354,55.49171965970899,31.956451413452317,23.309585676660536,19.414703371202613,10.036692342987434,-8.440731861389452,-34.70562473145342,-62.57089556988892,-86.76654374267335,-113.7829742382088,-152.89024124784643,-182.62437955088268,-150.7379314141241,-47.80762711443267,58.91922695173531,109.32209673052506,113.844360844188,112.33750347487697,115.56418222124424,105.99681843407396,76.54205931439277,45.556722004472114,31.340256637327496,31.145387433373138,28.095506108256586,10.077072954191381,-19.70967361090313,-49.88181402540246,-74.68461810602513,-100.62957212000552,-139.49009655774822,-178.08651464988577,-165.55728223603248,-76.24968636718103,35.5286782863063,100.6689186963503,113.2362036566285,108.80406539584524,109.36866766449904,107.5014169400014,90.08900304071086,63.18050014268324,41.92718318449754,29.934812540899557,20.303521320771107,6.841961360833613,-11.615491530583004,-34.17993355414578,-60.80677497919038,-89.91394573290366,-122.19149978351572,-160.03293607669266,-183.4318892408377,-147.95557978639167,-50.28332917638506,47.5596655338094,96.82490524081534,107.42998331475891,109.35423034650492,113.86347896002113,111.32089876269532,90.26096597895169,59.273108344149456,38.79331841632775,32.28789006246896,26.591922528333328,13.473113113897739,-6.257789520044534,-31.27023267249697,-59.22403199794664,-85.10096788986732,-112.15191534018457,-149.69987955373313,-180.0751087767495,-152.4102650721231,-52.98326044018151,54.96901873917199,109.84241339152116,114.8225922420535,106.30422985356869,103.25250081632517,97.9832927744606,80.94588452783782,57.828343525109815,40.72882212342725,32.53091379243638,27.843175134421607,19.935169208242158,1.4737681956579352,-29.091794195834975,-61.74297882646614,-88.53916397047617,-117.8381793902664,-155.98616852544384,-176.4052152556128,-135.85732175190608,-38.30507107259131,55.70975275673199,100.68850712336778,105.33481190428917,101.88429658828204,103.17845862994217,95.89540002460386,71.95867081132052,45.331877655520074,31.147116934950475,27.87634482667962,24.46466218473591,10.693759321553719,-16.169397253557356,-49.21798546445961,-78.59047639872016,-105.56595835464842,-141.78225178165607,-178.3835880691914,-170.79824152641973,-91.30221371625592,15.619149345235908,83.08974406155448,101.5299346119245,102.99131322755915,105.2458992891267,104.19120114306205,93.30553351887063,73.81062180728806,55.06501584559211,44.608997448259274,37.40980780433661,24.692988921429226,3.6415017161889285,-24.56491764324678,-54.935026787320886,-85.17448472071366,-120.73344114527156,-162.1111459248175,-181.35638498179165,-137.90311347169626,-39.19483596539946,53.583942207964824,98.6737688256359,108.01995856223905,110.01972840731814,111.70112361717908,104.1648639802029,84.33695300035357,60.593862001203355,43.49077439924745,34.94669135150469,27.651256768038934,13.057314799759984,-10.241434220980734,-37.89263327658092,-65.05908040325069,-91.53572902593969,-125.34046022064162,-169.3972038547704,-195.92665475519584,-159.27284513631793,-60.12284409974906,40.233929670158695,94.52848062281197,108.955411455726,110.06890355752137,110.19290945071597,105.26036680202374,90.99885105130241,71.9295175748111,54.23819078826919,40.511952197855344,30.630609946363112,20.538259446702288,3.121369030616366,-24.661499343297063,-56.63777632977383,-84.97290560940814,-111.84134968595939,-146.64971090253766,-178.0116234567012,-161.49996571774966,-76.98458257453608,27.975498041656678,93.9281351366302,111.64321987401176,110.93476972134887,112.63885621777733,111.02926219683795,93.42217572811076,63.925462442669634,40.14244572539485,31.47884012966192,29.578340024903724,21.329575583697693,3.3694048595639967,-21.998574882351328,-51.68955541159222,-79.29626873662562,-103.3352678336604,-135.12442721483484,-171.84176325224288,-171.72902199915728,-99.81387586364427,8.70319441267319,84.40376761677635,105.87589855109486,103.4619963312886,87.0,109.0,65.0
113.3207323140558,114.95182596107306,99.07867325515518,66.64516688508569,39.415512891220175,30.479213558141343,31.33891601647181,24.578814335775373,2.200598794878214,-28.840356199330014,-57.56084606470932,-81.47012692757275,-110.3080376620467,-152.4296474363336,-182.17045838812794,-146.65813242440484,-42.494088494380904,60.786867427961724,108.35759900627224,112.14135556672144,108.31988698246835,109.86245014723642,104.22236756602483,82.55977517760228,55.995956899239296,37.722746690619736,27.26932158050993,16.95167673189689,1.9708437987933722,-17.715508654838747,-41.488259183478974,-69.04562509252509,-98.71857564073102,-132.74293853441696,-170.12983950475706,-180.8522913876024,-124.17872662064983,-18.81937771743059,67.32273528692896,102.42588194767909,107.89196824235731,110.52769886042327,114.55402950982443,107.24397777775621,81.3744278936621,51.63639519771805,35.93645661034226,31.158421932496843,23.61781142354898,8.356874095598569,-12.969899703007044,-39.271070134276144,-67.04122623620057,-92.29633835808404,-121.86128221520806,-161.17401869043854,-180.16774468600988,-129.3958300683161,-18.9687448379019,77.37154225007941,114.89022301944479,112.30296517771043,104.84789982973064,102.59593663536924,94.31946324299366,74.31020935958865,51.89659910784751,37.61454095417739,31.104935666216974,26.211837318404264,15.96490911093909,-6.373716031931187,-38.89845231660225,-70.02521673792374,-96.10137443558516,-128.36078558575852,-165.79132878796193,-172.1900616350975,-111.45057845106666,-7.814442136005673,74.30867299683163,104.75446970085524,103.97878152799007,102.05438670260804,102.72811314231338,90.41156205192787,63.63402377255133,39.70148231309069,29.50357594879347,27.43531664681403,21.860180083525783,4.133944879572844,-25.569172125494575,-58.35323285906789,-86.13952833158858,-114.74689944957169,-153.7804533178271,-183.01434758911572,-154.65983666749173,-59.78518604694972,40.96999463669233,92.24497545797541,102.3509228678826,103.49561856946474,105.66869273158959,102.17577753590875,88.26634151937634,67.80509361904042,51.17218566176848,42.659837166364795,34.53232006620582,19.486215598579264,-3.941373142422896,-33.35618956203456,-63.572636728740235,-94.56398348268603,-132.65977155254862,-171.96648078477176,-176.30648353677893,-112.87423010169502,-8.906183448377062,71.84695836019061,103.63791436128258,108.51383754569983,110.84998580362742,110.84346575702227,99.50362209308753,77.3383024056675,54.6669563140288,40.34129246254789,33.154315116129396,24.41776476315262,7.078891681026666,-18.020140343203664,-45.94771667063549,-72.56277740666232,-100.09161991153655,-137.50344183356628,-181.00124535921842,-193.23655549467907,-135.03061816602758,-28.172005411276608,61.263921217472,101.58800651844484,109.69315245062887,110.1889930880689,109.62409188935358,102.04536401981797,85.65062047516227,66.50147239177322,49.81834980462028,37.3507332692905,28.031986277663684,16.55136236967169,-3.9515593337901755,-33.90468618948519,-65.35643035228671,-92.45989275096383,-120.87108806820173,-157.62432550297433,-180.24064254856694,-143.099862720189,-45.58628478628582,52.59515094455508,103.0039110816638,111.89382329357167,111.0052097974976,113.20418892373054,107.82942662448241,85.4188087486146,55.72459006769138,36.153218751356924,30.912622656741256,28.207672499596356,17.05579693788391,-3.303146058736395,-30.348464970659837,-60.191751665563515,-86.27381645544675,-111.19701635315695,-146.39763389599628,-178.0107700474084,-158.2819273124166,-68.96392082003184,36.23985424996288,95.39424612785575,105.91060977670033,102.94822724528753,104.10059927845172,98.8751225945577,80.13587273184243,57.41346745565119,41.32200022404946,33.96426435781296,29.264643089655813,18.754786839782472,-1.8662247695267817,-31.163064803785606,-62.08158878229282,-87.80403380675415,-115.3682986373184,-154.31726621718107,-179.85658350064278,-141.5431764325264,-39.85738729450354,59.12706913911635,106.54648972098789,113.09473240291688,109.00568653560914,104.81130749433311,95.56506451219087,78.1991588049847,58.121985691854974,43.600970139912846,34.9369203478256,25.086942182133868,8.319350272078063,-15.690197823795442,-42.66548692754809,-70.04628004598291,-100.62961138249092,-137.5443856115683,-173.2918508764875,-175.39290363937093,-112.68358725220726,-10.216946729680334,72.90537846474788,110.08790113827672,116.254249602045,114.7934740396336,113.12524173501646,103.14355040010034,80.88791702256924,57.46327445964092,44.83169386379606,41.26842001742592,34.42096253301773,15.088915049590577,-14.605931743846142,-47.076406010555786,-77.18670414857668,-103.39205153126908,-131.3566709085738,-169.10477545889248,-198.11992854999562,-168.60183676316504,-66.22803235625496,46.732930200771825,106.716929791821,117.36923227916395,87.0,109.0,65.0
103.98485615860191,101.37920127698067,89.55670798596834,67.4679452465229,46.736190554159464,35.18137151550952,29.812126730159232,24.14465224647415,10.924215408936455,-15.157159849874724,-48.52950905706764,-77.7495749789301,-104.2591456080151,-139.60040784809883,-173.04622692289587,-161.88988218263393,-83.14381654984811,20.586609317255014,88.21597531442032,106.16294305542012,102.73671568756038,102.59593137761044,101.06727696841544,83.56816600001197,55.6087150343581,35.34541635422416,28.56930474842018,26.682244187032772,18.179259321494385,-3.4880937121551066,-35.23080576561135,-66.95866014765585,-93.70105897440808,-125.02178724269096,-165.21494685543857,-182.55976189752556,-132.39343749386205,-27.83456433713776,61.66516860121349,97.818310166872,102.62688400592481,104.19645554028648,105.59040170655146,99.23296591322722,82.6242811789346,62.163763759290426,48.05940133815066,40.727373549147956,31.03125132334996,13.561883895370691,-12.05423999532567,-42.17405886930438,-72.21523080070551,-104.61479608819506,-144.9370201541195,-178.92052464000778,-165.1211463164645,-84.16690158937932,19.117372332853506,85.66601178357732,106.36360327722373,108.99750805536628,111.53997063108862,108.96059997682025,93.86495472609634,70.3092617234013,49.513912284351385,37.839657430765186,31.222501936170463,20.40084710369383,0.43063047394688986,-26.03290650840461,-53.850158135108764,-80.07860315816627,-109.54420607154685,-150.44319390801553,-190.05524796712157,-184.18738312000877,-106.36378434033676,2.0128197492675692,77.83574951300216,105.93207778759432,109.94025447145152,110.31108654975172,108.42785210974365,98.02926768832361,80.08964072573885,61.303298759454414,45.76430282717905,34.48391888741623,25.269359075335736,11.764719309371355,-11.880968371720632,-43.25789225052688,-73.62411909824522,-100.01654533565355,-130.8165123460634,-167.65289106663386,-177.1324015161246,-119.169926360992,-14.248448245438619,72.80306006824986,108.43788193537254,111.49622810941264,111.50843467848472,113.12408146865862,103.05033741600305,76.7521044686078,48.47083702757084,33.484588552826594,30.543284888288845,26.04616809865337,12.002312685648956,-10.535703916594908,-38.96947901034388,-68.31309671288508,-93.05285074377358,-120.09832883553258,-157.6758438060323,-179.69142003782548,-138.43563516535366,-36.73871599116445,59.45114374905515,102.0554290604282,104.98266910052666,103.00384514412457,103.90751083822946,94.65512037488224,73.37986861887293,51.81709241899695,38.43819792561191,32.73378900017688,27.128150479637384,13.873175879100422,-9.640974790031276,-40.36273127154135,-70.06627440390369,-94.90363624410271,-125.62549418018051,-165.34932147516423,-176.95736000471263,-116.44324041040556,-7.73023343346932,78.63950777995512,111.1619843132819,112.05860061066674,107.90868019027671,102.9352250826731,91.30102086077031,72.26411104437645,53.12627783511734,40.75207434776845,32.54365596884125,21.08674632784971,1.984242321443033,-23.38954867955546,-50.4966298056137,-78.35482158193562,-110.63290501164472,-148.90570021946394,-179.31542445653926,-164.1344432577619,-84.53032061566242,17.94517250922222,88.25558797515049,113.87641557287279,115.89488229925637,114.51924077426861,111.54852427965267,97.72012881462436,73.54379197028126,52.47818342809885,43.31997912635342,40.217757856156766,30.233766042530196,7.248559821280784,-24.004335613910975,-56.15928986743795,-85.09454766287983,-110.80696061108978,-141.27967094760123,-180.31587253376097,-197.69113151585557,-144.94402202701175,-30.920338147042376,70.67066866755462,113.23976600523707,116.82255520183432,116.30387302845119,118.5598939158821,110.59093839997021,86.9386378800679,61.210507494146796,46.25765329800242,39.78156998624629,33.192036160918995,21.87495782578237,4.711740167615841,-21.08610873786294,-54.2604278850041,-86.19369857630889,-113.63879711233476,-146.70771488572743,-184.58168625554595,-186.93477929028572,-114.85726940513426,-0.6886039086005191,83.44977170645828,112.59697486593248,111.9670825464209,108.67307692264787,108.88970532807299,102.7094970837055,83.17778459359573,58.20677120330479,40.32729817541843,32.66783215460572,27.851987063085083,14.826372175827437,-11.130987727275839,-42.14350370304087,-67.95378889429595,-91.08743502960702,-123.3881981649116,-164.38413780026283,-179.39862196852613,-124.14745417496285,-14.688697791549542,76.80156552196222,109.9838883095684,107.26016266138643,102.29067721344185,101.18502176566406,93.31643317862837,72.4486380425958,47.17864847236144,32.48375954463111,29.41963634530083,24.494836138103107,8.223000947654869,-16.163428897560404,-41.41459552095324,-66.53191963236578,-97.2030947860176,-138.79893549404693,-177.5722703002355,-170.66264557710198,-91.96290799191021,15.966617111833575,87.02787023131867,87.0,109.0,65.0
111.80328297427586,105.94381349941375,87.46709276323536,63.5478837784012,45.200025314063005,35.79656424203501,28.907265134150894,15.56057793645348,-6.770323211727867,-34.14969203154079,-61.562618162257465,-87.81883234479902,-120.09018200561354,-163.54605749392323,-195.21295859273425,-168.58141607043504,-74.98210290166578,29.07418231111812,90.15244585409397,108.31883677475804,110.02889108937002,110.2978294891978,106.4549409845132,93.33973654005845,74.4872950021894,56.39322674398895,42.08464514196164,31.82223492034094,22.150537893442248,6.067968774588996,-20.507945735098065,-52.48267774202103,-81.46741286972777,-107.96143082485162,-141.54825688557955,-175.50288647614022,-167.90245370338766,-90.97328575945971,15.330325728446416,88.32130473204788,111.09593521303968,111.04830892066364,112.27762658063895,111.995706161875,96.76502156111385,67.91692789471206,42.453769307322595,31.91779647518841,29.987920613249816,23.01858429949852,6.243198198300352,-18.276532941511828,-47.6906142444677,-75.94479121320477,-99.98005589306933,-130.14630261756417,-167.87114511888032,-175.70345579657814,-113.02605802734602,-5.141123804218524,77.70224454307241,105.27098774126935,103.87708134659813,103.46028413558179,102.7560850924979,89.32534362032135,66.64109122348141,46.96190511576263,36.24824011431638,31.509636011026764,24.31424674468495,8.10152323860036,-18.0598652348555,-49.457499818751266,-77.51455038679265,-102.52223598994686,-136.95932468737124,-174.1456592727348,-167.4833242872753,-86.95147207496741,22.19432708745457,93.24709142796951,113.1446047190537,110.78508175456437,106.8014829361984,100.46053238410471,86.3567202821564,66.32065647426658,48.77393473031086,38.28134160719091,29.855352212131187,16.407061249260703,-4.899709172882086,-31.205471368881508,-58.35225017334814,-87.04409707005105,-121.22350105059779,-159.82662947229858,-181.42516640867566,-146.99730996066657,-54.38213243886655,43.0749763158629,99.64316231201457,115.72125667292363,115.3888236783706,114.20073209757426,108.98239721738449,91.32652315111626,66.50048148260238,48.59777500811006,42.3646267569138,38.53945899014375,24.87833874968349,-1.2951564830857778,-33.44801764578771,-64.95816043016674,-92.66774719889366,-118.61621888156446,-152.17664642449557,-189.9184178253014,-190.96901594460792,-115.63196680178415,3.1034475624326974,89.15537383439846,116.4372711776694,116.16524480414205,117.10766541575215,117.90872858404573,105.06076418947885,78.8851222491114,55.63311891770811,43.88490360425744,38.223118471356386,30.45402612880962,17.610253270659417,-1.7435239427399016,-30.21564361307376,-64.00782971194656,-94.33788435919128,-122.06502831316946,-158.18310365236334,-191.41033294677018,-173.9525090838054,-82.88547327294872,29.157716384465363,96.92464597069667,113.97006696951843,110.58431457898692,108.64223690356273,108.30751558732348,98.36056896161124,75.8914235989362,51.93956983291194,37.23186032387688,31.482018549535596,25.3534893891445,8.533297039827074,-20.145583528365453,-50.333295958446016,-74.42435653741572,-99.02985078818394,-135.13776884816014,-173.75539207844324,-171.57056627160412,-95.2965668854439,16.6978916257831,92.29230174242915,111.06035846197199,105.21217955415638,101.94929575206294,100.09890709147973,88.54855130466318,64.86991597250788,41.41080221236587,30.86249954856073,28.83848182468303,21.034310207436675,1.641331898931431,-23.569079696972064,-48.53116077364973,-74.47398483122116,-108.1239989855675,-151.7685836894193,-182.40321703251058,-154.78988619304172,-60.44218379110129,42.176732222029614,97.17792184663219,107.40071251636515,102.6946337112933,98.3734405136241,89.90985254073827,71.0797861537833,48.71744619658937,33.298803241279714,26.280485701269342,21.63911240262408,12.104899118906834,-8.094521336570438,-38.40388740894102,-69.775611493821,-98.85621116375326,-133.39182962509327,-165.95881248059723,-157.66872113023766,-84.0648257017638,17.953784441516042,89.78773970704881,112.76299269273731,109.32588969828646,105.81645974696633,106.11476515147089,97.36614019410284,74.2880004486637,47.737285300156906,31.39112710720121,27.089116502796507,20.56714417830191,-0.10009854447398958,-30.753393454708036,-60.69861490660532,-86.26636015261366,-114.34351517711806,-152.5756256135594,-181.4195648081636,-155.53739204133603,-65.96657646297926,32.543730385729276,86.92386459068952,97.88551392774887,97.47007945826836,104.16731826587025,107.57165839118007,93.48410268344348,68.3967864560557,47.771006695364136,36.73954358302156,30.849267656214856,21.437004867883225,1.4259520068686256,-26.59410075168171,-55.679402797763956,-82.01598471453879,-107.6063448234521,-140.64952904432036,-176.20979867261093,-176.55344619529757,-108.5393846716354,-3.5746246925080793,72.96575816680615,87.0,109.0,65.0
103.11306179559912,103.96814680557193,100.39778917950638,83.16323448170446,60.210174980219605,42.91363538035702,34.59771417263813,30.06432197955062,20.7065205070496,1.4673210094500537,-26.957493047712447,-58.210914523488775,-84.58913836068537,-111.05078590863242,-148.86758434849293,-179.19410420449148,-151.21799816382736,-54.92129448198132,48.495073057791416,103.28313864507072,113.36862742963697,109.54114051091209,105.51570046969815,97.28195009458398,80.8645192392045,60.61308793897998,45.089753808328105,35.989805422345825,26.71886944225664,11.028339798068517,-12.211673632399288,-39.05134941246694,-66.31220067563635,-96.21607293836352,-132.31694553532157,-169.514517720186,-178.58621557857845,-124.54283442816073,-23.922299097489372,64.43451101091934,107.49650952136642,116.27461961671756,114.95064522773879,113.58857671224091,105.2619194847343,84.26497837751381,60.11114358555114,45.79585209139552,41.630876183863585,35.96444696240924,18.41098086480217,-10.330989681250292,-42.812687857089145,-73.41419908340524,-100.02268596443798,-127.12624509674566,-163.72881293076483,-196.50722852957324,-177.28417843669908,-82.34581956485104,33.96935103953683,102.30199597577975,117.3962938556233,115.84559366130676,117.97951721772623,116.01057747444132,98.28046620918649,71.15426011330784,51.11751875789709,42.036230342599104,36.4399672626089,27.28434776119235,12.824621825529624,-9.011391192937495,-39.837303362420506,-73.39329928321128,-102.15940629592748,-131.343966257345,-169.7408393549708,-193.85014015177666,-154.20149761605967,-49.0781525701982,54.81677014573635,105.92354770658874,113.72790681092789,109.4774833753297,108.82974011994965,106.85507742789122,92.854237256659,68.49098555164258,46.52654790447251,34.94636681681679,30.272561524997084,21.900504217619105,1.1551335015727775,-29.265700131160123,-57.89956087790249,-80.89981673869418,-108.05771718191085,-147.37892597079554,-179.6947053674882,-156.97964312449216,-63.19229112161435,44.60904435499165,102.64760933346005,110.15900469338696,103.60522514660512,101.77808039188338,98.14207701520374,82.6508777645737,57.302303942563555,36.85761203275039,30.028662695785698,27.701667622150996,16.517469636636292,-5.421020716426042,-30.898940871448605,-55.690277739375695,-83.07246272838753,-120.05466602035591,-163.86567986787654,-182.11669903668556,-132.79155856668748,-28.272329347354773,63.93341404020719,103.42366446359463,106.45146624791084,101.32925082931241,96.80411651152349,85.48865032028118,64.42411173185582,43.280240799014656,30.59374200828721,25.028959842697347,19.688407727496934,7.527071926964886,-16.11493283179682,-47.778891572383735,-78.16399863063064,-107.99404303952394,-144.2587901337082,-169.7672576542,-142.65257650528173,-54.64639541889438,43.67327977964471,100.94417297231925,113.06410403921878,107.63432824512094,105.96787688729046,105.08087711365533,91.92594917170719,66.27932159310387,41.54951032183065,29.317609136396648,26.219414159214054,16.159791589490855,-8.429584017275134,-39.84191522554764,-68.41883852844795,-93.60643086032435,-124.44199366595275,-163.76145091546033,-181.28013442387856,-134.68566126028279,-35.28636848338515,53.81397767168703,93.3057231154376,97.54962848880909,98.68316988750011,106.37108252808723,105.44044671976121,86.6192255859662,61.49164011293027,43.684037043595055,34.8325479943097,28.92786258432352,16.828124057125038,-6.172662082570337,-35.13321834506812,-63.63269624734087,-89.17501382498945,-116.08394395056781,-151.72873163586405,-182.14111535768583,-163.97331890943508,-78.97688148573476,23.653565096999202,85.15865587876257,101.41786285633958,102.73611621166934,106.80682055255238,108.2638690958602,97.56583402006467,78.12398076729355,61.67319316742594,52.62286069772521,46.551478245090514,38.02310385810038,23.28741206516708,0.48781892527422066,-28.654859980153955,-56.092132587872044,-80.7198705749826,-115.37762291146464,-163.70316127263925,-195.97414511462074,-166.8918643890139,-71.8991313840599,33.562054066104544,93.42782201951096,106.82485250872861,106.01824202462055,107.23415876538745,103.38628902369783,86.7610148872231,65.19839547609371,51.572730687991964,45.78460017443608,39.9658306524846,29.591850571461194,11.21967974229283,-17.67604152251532,-52.05476554119426,-80.79013813137833,-102.50898434282092,-131.5899802563618,-169.76914027883117,-178.7825456617158,-118.2749927237354,-13.343986261651468,67.4143148368776,93.88085726139171,90.19990864383763,87.50643725907507,90.86445287753492,87.02176012021609,69.61459019407987,49.90660290356124,39.46005927876888,36.15444036559839,30.194025014686108,15.934370617744605,-6.151526981851726,-35.65056663568551,-67.71993283438066,-97.74622695915754,-133.36917477729446,-168.40523532481774,-162.4564791471545,-90.20368916862962,87.0,109.0,65.0
