-47.037999934552424,-622.6932773082442,-803.1872970712374,-708.9897487375447,-589.2621447310864,-488.6739663881602,-384.7253803640891,-299.1789404554284,-251.07441279327995,-229.12385502001848,-214.77125407663917,-200.4033581464524,-185.43347605105964,-163.99217714209433,-131.3811081327568,-90.81348819809183,-50.453815842893164,-20.86487451562248,-8.592319168055,-10.820884077117345,-17.85766558634873,-21.352613809742234,-19.55503692609911,-19.695775767578233,-31.52131991981367,-44.609765872995915,-22.400523738383086,52.51284772635833,140.70006415060226,193.63313669958237,205.70334609058486,194.2395025670347,172.8760719509145,148.9394046814625,123.54571403966806,100.39146057959245,90.36571780049607,96.11314341458929,106.03375547574281,107.36492867934663,95.05643018519311,70.87976568341503,39.72187184651478,8.496313233931483,-17.59897940573623,-40.56063671223722,-67.21425524957719,-97.42548692359196,-106.06488322461587,-62.08034421012932,16.26140473995759,75.41431136938522,94.30937585913637,84.37658267351708,60.6317600038435,34.098851308564676,7.88548275085887,-15.576514892777496,-26.823711637928035,-20.26998472142504,-7.325716208416915,-4.366906907585161,-13.306795217657717,-27.59450475983736,-46.14451056070416,-69.6127757149132,-89.99493632160977,-98.80240394720433,-104.62481763838116,-123.2920293703646,-145.51924882725206,-132.09053280915293,-61.16294068774427,28.28048060856585,83.12103423647932,95.51002297456098,83.23182380627256,60.08889481300415,34.664541467550535,11.626415585295204,-3.8698973177993787,-4.569451329653979,8.701644174901892,25.14292609173929,33.67940368075718,31.056325434917586,18.281470493267996,-4.290267627609291,-29.77628950504226,-48.01451935360226,-59.24024907394056,-73.86849968510359,-95.51893446635044,-99.72230313056116,-53.04833398700161,33.05674584802959,104.09134090499947,126.06264876854767,108.87540931464213,78.73604767932052,51.15650925419,25.580310968954493,3.8503919348168116,-1.9822279980495898,9.06669000217839,23.78154146042266,31.025200815214156,26.86754212554855,12.809352693859019,-8.073581381456911,-32.53372756631622,-52.88162022974221,-67.14873658273416,-85.81891363438577,-103.7730297645921,-85.72801493248564,-16.78182897965408,61.29179668209217,103.18465791665504,104.54061014326103,80.56968401780357,47.261855980342354,16.316311302225152,-6.656904491623522,-17.068051106507042,-12.051266311374986,2.703659386208589,14.637271053614425,14.129255499779598,1.147599360592654,-19.519219706369718,-41.55483350918565,-57.32078005478402,-67.24909619291246,-83.12205432069482,-102.73477240204203,-92.04159985312089,-30.224663711788235,46.948270885261195,91.69302701078608,95.59022142885787,77.41571361394443,55.72491856630108,36.945564704388545,14.978036961789561,-7.388080541179585,-11.66914116470326,6.348435370377901,25.50653124151991,26.685390377655676,10.87471764192796,-12.01880206394106,-33.79229725764168,-47.67566081865235,-55.39886435859435,-70.11574145354074,-93.3753014659906,-96.275980420384,-48.23243031292318,30.808268468071304,88.59238098374257,103.14340071816036,88.49792437643258,64.40440047739366,41.382080704817106,20.306203488062046,2.0694566287257574,-5.431430595421759,2.599260534978966,16.424451777573164,21.845687003622746,14.042090476254714,-4.049670244004087,-26.381172651736925,-46.06490990740286,-58.907211496534835,-72.24461721724776,-95.78399780384298,-111.06690510347154,-79.29856248703467,-0.43446165573368933,73.48503009012009,103.02368063937989,94.18213623609178,72.55055852392857,53.4938870964302,34.7176298460891,13.589908688041064,-0.1782782612424606,1.9418241509922871,14.563549851738026,23.80634295717562,19.73777905290652,3.419546783805929,-18.873884647861516,-41.941068744189366,-59.71352392058482,-70.67261643407957,-84.31019539790366,-103.25582651261114,-102.26324712603619,-54.146274740780186,23.028588177982954,79.77249960324583,94.86781477970295,84.57435910556372,69.45389516020226,54.514805245937225,34.952816714362925,14.027663362153412,3.7520539484235367,9.90950495126842,23.038553076099138,29.145731118694183,22.74909511746983,4.957418184096886,-18.075246617195834,-38.258877671452034,-52.85152438341962,-64.52449324945574,-79.07862011228266,-97.7586729212034,-101.71436559118031,-62.114605945006964,12.298163375698705,73.66955152159655,93.86735595001252,84.4491888685758,66.87908497684263,49.365399413061375,29.331791886790494,8.281071380103347,-2.1654248290774554,4.248183149900621,20.201651291735345,30.797124840190673,24.53013274819002,4.112296758896321,-17.767419796474773,-33.94045682959177,-46.2313277944209,-57.341071590888724,-70.16555378756914,-88.10567800935549,-100.99208509214525,-81.24009223076698,-19.691610720072273,48.32631305034102,84.35518607313158,84.99296896757757,74.0,133.0,79.0
-17.081816500342168,-32.40587115702963,-52.575593121412574,-76.36981194748165,-93.74858845305052,-99.9540403578407,-108.39595023160976,-130.72934511974512,-147.1978499038574,-116.92912940407679,-34.35434728871257,48.97627599781977,90.36726764080358,93.73660801816898,77.21579569588914,52.69968181580204,27.616718055679655,6.0256965897385975,-5.7934717330160455,-1.8204717670503237,13.71307162064242,28.73250962198521,34.020699800923765,28.407243618767865,12.655893064216938,-11.881771643518901,-36.04244154425208,-51.63257376150638,-62.59869026882878,-79.87324198099903,-100.29100506754826,-92.185731365514,-30.129409204604897,57.51485426575767,115.73019538759688,123.96305056580938,100.46894897466785,70.30534627908885,43.7481327839163,18.42432967367514,0.10694867126796992,-0.07151857285139401,13.584647674160209,26.932278293955935,31.01538557406692,23.668000596126113,7.378378622484882,-15.029216722218317,-39.20109446502418,-57.28616074406858,-71.67486428827782,-92.26662090920324,-103.94057845074335,-70.10066235923047,7.468047755556043,78.04737074175178,107.15767074709314,99.48348710012179,71.26147182251053,37.743558772888676,8.684164409939227,-11.182244197589718,-17.145797150433328,-8.298374356195492,7.0232648049374085,15.94423099809151,11.473323445685134,-4.267832510098214,-26.096770216242934,-47.003206592451825,-60.38134666638008,-70.72921415389816,-89.42533355189819,-104.57609911167725,-78.87214040335326,-6.93754698661157,64.42623008989587,96.40208742059758,91.63606899804655,70.92999383262521,50.13638634884039,31.208026780117606,7.858712373445496,-11.230574081143894,-8.148149315662822,12.94014645079228,28.011857595850156,23.43402774375462,4.588959262831694,-18.763367296865873,-38.805429976403154,-50.07309264690447,-58.36371302388232,-76.67364743213072,-98.14561216091452,-87.9583150205714,-26.267926620424152,51.58034680162551,97.02867632390674,100.93390363803204,81.82737376232194,57.46765370928207,35.17067597586778,14.506063507098952,-1.6206405100923447,-4.561854138541162,6.720591323926699,19.27583670962839,20.91511723301125,9.63544702924073,-10.362197362048663,-32.64813230820367,-50.426057487490745,-62.07726499329272,-78.06189480299291,-102.80316111087888,-107.97141199444077,-59.631671406469124,24.023490593121913,87.06350328836403,103.33894934572727,88.19564209626542,66.62672647912898,48.358205228946375,28.628459953235055,8.26935888967711,-1.2304914217293268,5.063667389584334,18.201115701009943,24.15584573143546,16.00754204103325,-2.6502555224639246,-25.704587491998375,-47.876353824760834,-63.339689603506145,-73.80451722843571,-89.82692768287528,-106.64812260868604,-93.51250327191552,-32.69282856774951,43.3709540526787,88.14906629167423,93.39701965858934,80.14188719175199,65.3043893587315,49.46301019075244,28.56517311310366,9.458682669633154,3.979700618876857,13.69312512037995,25.949577291061743,28.616493957558795,18.613788712094184,-1.5558180870686253,-24.45091312546026,-43.01337517334064,-56.30109511771251,-68.16950525409861,-84.3898559806329,-101.85346522487023,-95.45438514149097,-42.373738641920376,33.45979711288247,83.79709989107808,93.12159440697079,79.53458215704974,61.83268639900736,43.98541219104101,22.95969833125291,3.6295666727852223,-1.9429074091065133,8.46200285388383,24.50839814869206,30.90934455899051,19.58279604830651,-2.592303322590121,-23.050858683291068,-37.73154293583915,-49.484769803975915,-60.659616834977875,-74.85989254786763,-93.38172615941878,-99.85462732656507,-66.89741037869814,1.467759692346265,62.895192226863415,87.47824329754222,81.31763272964562,65.45918175370015,51.68725243800135,38.36877966548089,22.612139251973197,11.160255307427963,13.612757761787938,26.76926986611728,35.75348189283194,31.204878915729743,13.908007823201613,-7.728627951488777,-26.240621054777293,-43.45112065001916,-59.93326031873928,-70.4386791485607,-75.65247754777728,-87.04331015037958,-105.31261283665603,-100.06748183895317,-44.32525488496488,35.91242618969363,88.81385209490942,98.58173442376074,83.83527484759583,62.60215986299267,42.25414079102232,25.514471828130628,16.923033480860784,19.950168640159884,30.626168307832188,41.362702631594885,46.16229690142597,41.80808511938371,28.951504183581303,11.892031959443404,-5.263427347845608,-21.603132636035664,-36.05614014955357,-47.452983602335905,-57.48456338763938,-66.29827809726721,-70.75844532826721,-75.1017694589691,-90.22260589014503,-106.08384115743011,-85.9768798224494,-15.882823899662274,63.14663217349425,104.75418809581925,102.71826452136824,79.22771905892415,54.42202983743209,32.878278765751986,15.135404039857209,7.508084916339337,15.61041098125849,33.75009636363904,47.182456175785525,47.22719019358953,35.12251314198211,14.919790595849895,-8.832633522734051,74.0,133.0,79.0
-15.916103895978017,-3.9704998629675905,10.763820854250966,16.06314543491134,7.866434622072148,-10.203493897988142,-32.608770713080595,-51.73877237041347,-63.1101602319226,-75.077846095391,-95.67381524551799,-102.7634980494884,-61.40739239107653,16.20496373858304,78.29107873272463,97.94007956564558,86.39682370601284,64.5304640707532,44.787842122707666,24.969777649074416,1.0018497260026697,-13.037965883059488,-2.9664804477505036,18.93465153275495,28.730555188110966,18.978688530368327,-2.0535587976006107,-25.231289966730294,-43.0031699113933,-52.144719171442766,-62.31023119007573,-83.72803638834655,-100.1899362876918,-74.88233890593939,-2.86499990544685,69.3157922376589,101.81553822378034,96.83078656205564,74.79102477089616,50.764404054816154,29.065037191603945,9.029840439097846,-4.156931573050409,-2.3862863375678596,10.932295542556112,21.136359718958534,18.869963446153708,4.487884767571627,-16.869121192164638,-38.51491963239186,-54.17078725765282,-65.62747234931636,-84.8811588214354,-108.26660168202133,-99.99424484981041,-36.70822058249523,46.49055298566561,96.43834499923693,100.9799541389827,81.79442239570206,61.09325243802907,43.047314290342044,22.39094312743205,3.9138525274632268,-0.8615431615860123,8.792320061040712,21.185603767131944,23.247625655635257,11.390126301684615,-9.073892629306442,-32.479259586659055,-53.19982876780075,-66.4587700504817,-77.50854744395339,-95.63376412132291,-107.46376645114063,-80.36994374532836,-9.862534938615282,60.78214086394988,93.02167927489013,90.4328696717021,75.70310511117336,61.10791829861806,43.890726730791144,22.291163947718015,6.0997465414499095,5.591843151516678,17.67470270210583,27.9878662958252,27.0034268973107,13.589896902186489,-8.295537490051775,-30.415460676501937,-47.29974849096313,-59.61308181682516,-72.22244630932282,-89.98486152379753,-103.97926562686038,-84.91586281295861,-20.53676667721621,52.20905276418727,90.25919112398405,90.4810252885875,74.39258360939702,56.825838503676266,38.275556476735375,16.65820774300966,0.21554843890428754,-0.3040431261371729,13.184828865446915,27.961391321321386,29.428299135930526,13.685820153929892,-9.079076085604493,-27.80203283229889,-41.295549181291975,-52.67708711695946,-64.2260762622645,-80.04808932020245,-97.77117618083504,-95.1881629281198,-49.279216963675246,21.925454157845984,74.11345242626955,87.94191130292319,76.91346061987375,61.14754893088535,48.039687023702356,33.969285301535216,18.35116762494733,10.233446299648834,16.901836113603995,30.419771472320097,35.96407162611084,27.26135593447057,7.627079721875873,-13.46852012082017,-31.164297319311935,-48.484659387385506,-63.778968103989726,-72.12112468020193,-77.76434157361857,-92.41353724966898,-108.03666530909446,-89.16262277769363,-21.201903166972347,55.67593775247674,95.56131845277059,95.81581108245801,77.88429159646503,56.48349098161794,36.91895549455306,21.929395309259288,16.641587334486857,22.574473635761603,34.03985923134521,43.557105834602986,45.89980789267471,38.82870588329203,24.217493034591723,6.860719788267347,-10.083239660189722,-26.057255441228033,-39.642945902586746,-50.38473960732368,-60.294971382292594,-68.09255219374833,-71.50612101457047,-78.13747592857591,-96.09457324368955,-105.59604313462782,-69.92604831482198,8.61924158144508,80.11509856418391,107.93847981245594,96.97276445019287,71.73265667514728,47.912829320904144,27.190449503659295,11.521175183042388,8.214251735398287,20.41626920556684,38.73041064835828,48.64404474947136,44.79807462173794,29.946937735099276,8.16108158614878,-15.414508964210354,-33.73595830016085,-43.947506248444135,-51.618170413181296,-60.47855897134022,-66.3111476372222,-70.88299002419434,-83.634792790557,-97.16655085445237,-78.11168539589774,-10.928003952513482,64.61846636042226,100.2985146146173,94.53638483385046,72.75382954438977,50.15598781995505,28.214693450069394,8.33623994992381,-1.8635029910296421,4.401344385095811,22.97284189506468,39.28611881413682,40.57071963654177,28.282214227259097,11.055630782961984,-7.621384488951763,-26.417755714190978,-42.15764457437144,-53.23992351383692,-61.46400036099716,-70.51835920759339,-84.00030369525157,-95.47809763542607,-78.52171480745325,-15.844580372043895,62.05779230375308,107.22405240086134,105.92092142904937,80.02030882046225,53.34721906739931,29.101357375564955,4.05240142400621,-10.980355145696194,-3.6362066262388644,17.932392004649632,31.449491658180442,25.66968279883058,8.647013675436533,-8.351490166070988,-23.727458535974744,-39.03616547065934,-51.30856830400209,-57.12395356279754,-63.234920226470855,-79.96241869721311,-95.48784704532986,-74.07461961479366,-5.648023060801776,68.27420067280659,105.46673856684168,100.36112601290199,73.34303508703988,46.08177011447188,74.0,133.0,79.0
16.275546928364673,0.7939580965617925,0.7998720337996764,12.75943056683245,23.235090739761098,21.110489596231307,6.065881750977455,-15.74477426883358,-39.03774159222237,-57.8225391948298,-69.33598837040735,-81.98139545752026,-101.08765607718229,-104.83061765795503,-63.20297683155123,12.920955565327528,74.64954431891603,94.86959084866717,86.54457034785543,71.3928390473752,56.681754481750744,37.85134155657052,16.467224241232753,4.148489473107538,8.347174261376445,21.457412342192494,29.02468905454166,24.32836333740301,7.819071836264913,-15.029933131981132,-35.899644775778334,-51.17769276553379,-62.94012940882514,-76.79015562056185,-95.44930021109943,-103.24269044618838,-70.18300600253468,2.034672202185857,67.73331423790617,93.39871008795625,86.54892931127317,69.23384638122839,51.757443580753,32.220166709510266,10.761532659336966,-1.7624782388200875,2.572444660936789,18.03468070466707,30.225902722479436,26.402529421334577,7.199661496575311,-15.145405983167608,-32.09161515629528,-44.701159808927606,-55.8577339771696,-68.1798222437744,-85.55259491336011,-100.51191560532749,-86.57089096025348,-29.340853891358403,40.57995483088513,81.88927755739304,86.29834093586973,72.2161672379207,57.14018963489391,44.285330030167,29.35877802937096,14.723084856939488,10.664590775551465,20.814976620053713,33.32833960685173,34.92760216298104,22.354884272725545,1.2584230873086852,-18.848848878692287,-36.10930149934616,-53.379935819431324,-66.97459746703473,-73.49721843877948,-80.77007760739046,-98.10675934925496,-107.74089700913879,-73.70575091956928,2.695781567760461,71.99266295833839,98.84445039035913,91.61086651566661,71.70376112232209,50.538200241837934,31.933065623572674,19.18346554238183,17.35196202843186,25.670356346730518,37.271229897370155,45.1370210580452,44.82198812062015,35.197644974811304,19.267584722101418,1.8875567946734841,-14.835026434114635,-30.30761147315553,-42.963787393617984,-53.27901697486862,-62.94746481089999,-69.43834669745311,-72.48758704682943,-82.34136584966686,-101.42373819234442,-101.04074136173853,-49.90144490916438,32.393965289363926,93.12645128812704,107.75564396458331,90.11689368493091,64.46781682940163,41.64617563446078,21.8755170416207,8.966911112575849,10.31083792170896,25.7762779697632,42.92832200099014,48.903534824938326,41.44923080116093,24.186871895666975,1.2327687278894526,-21.53241810642458,-37.40061016052726,-46.08887011293835,-54.16063052825621,-62.65345325416888,-67.34003717487639,-73.48396369393217,-88.61794799544553,-96.60474363618944,-62.86970606858038,12.733960685636152,80.078640510253,101.85110200619575,88.86202347458037,66.09143974236042,43.79902552177091,22.022115708474153,3.9742124150695544,-1.8193650751258195,9.018290925009307,28.66340161406975,41.43595345374265,38.01877094304396,23.526267217872757,5.787223881802823,-13.166824528429045,-31.40993728322057,-45.82051402724251,-55.76345634444612,-63.80758844170611,-73.89962772327779,-88.35149312762607,-94.91912255772834,-64.72451901108604,7.464020115520728,79.96114478982717,111.08994374356743,99.62698378982996,71.84539509314195,46.376222156680264,21.768034839611133,-2.0860707256197575,-11.270385359837643,2.062823322169341,23.561339581771993,31.69448082473024,21.28041203905871,3.4767583668516457,-12.84567291754198,-28.190182137299043,-43.129380472413835,-53.61049753566491,-58.26809700005715,-66.86950742422884,-85.95606122276516,-94.5795860548098,-58.042835522823445,17.571262897630003,83.74906440065169,107.72968022809027,93.65233490549592,64.89287028245003,39.36609641787507,18.30733828760587,-0.478561522298848,-9.876988431727899,-3.43216557459966,14.420171760890609,30.475244213910177,31.199971121799553,14.692677841211982,-7.759190951007802,-25.236773693517236,-38.15265840695766,-50.56983611749075,-60.11347518992829,-67.77197010803198,-83.79884582409485,-99.84742432809261,-78.07766948293963,-5.24912967314944,72.75720191810517,109.97710721170239,104.21750917940291,76.05081906532055,45.59173361825284,21.67282896539328,3.698415473841975,-5.30268851888184,-0.2692045340797136,14.404543455252053,28.263888262809257,33.86361889015545,26.84472547900282,7.808453255015628,-14.483634995526208,-33.85112192463198,-51.5199846358764,-64.22554246700935,-69.7017639457491,-76.76672660490371,-90.87380487398804,-93.58774856181712,-54.316164210716806,21.12021333441604,87.2596931619321,114.01041478699241,103.4892934040198,72.07629902484547,38.192718084717264,10.433429258315298,-10.120565469869174,-15.660438363053444,-1.572298505490567,22.081557248353775,38.198947884601296,36.0804599434945,18.115209407176724,-4.311362216973659,-22.05487658286745,-35.03744202132471,-47.41986740005196,-59.25877343237697,-68.75146186627137,-80.4750160072727,74.0,133.0,79.0
83.13288714148416,67.54506118943269,53.375010631273746,40.301768392872965,24.70602434525,12.022164782555082,12.411634117865722,24.9260321425566,35.24828085670283,32.65353560646049,16.69828519691414,-4.960056234616622,-23.94872976490323,-41.12277246918544,-57.96854981815357,-69.4914955701357,-74.89546291199314,-84.82925305960711,-103.33166076292613,-103.51683069425961,-54.31072143046719,25.86065628216118,84.42072763653049,99.21809923199788,86.43975306744122,65.46383354736614,44.810880346892404,27.406754635134213,17.400509878078598,18.952311036478335,29.037348982710583,40.172264873740374,46.014114798975676,42.937967015499034,31.023789851960547,14.223186824738953,-3.0210253874329256,-19.495461213883083,-34.30642147709973,-46.07155966388794,-56.16311797258095,-65.32542821964668,-70.40000823259581,-74.07191314270848,-87.57324029735423,-105.18332897263258,-91.83669693015027,-27.015217442873656,54.11913770892541,102.01574065222724,104.81542397125541,82.70742209422377,57.518632804221745,35.59350027530869,17.0997456787189,7.656355426434304,13.683667862844755,31.279870534778393,46.104093879656205,48.00746592045332,37.287508838443465,17.936538041557487,-5.69249460166229,-27.02851346959772,-40.40380076258055,-48.22806333722937,-56.79408661749419,-64.42217958608639,-68.45380965514197,-77.01443456410077,-93.18322583951951,-92.3053882558646,-43.71039688932546,35.583206214502376,91.34707076667037,100.43053758095205,82.49921381216384,59.54009845619515,37.451562870073204,16.096301124162117,0.6621528330195549,-0.2954329534071755,14.428578324060009,33.738729739886644,42.11539617293906,34.53075694274169,18.55551371848992,0.40788933972072217,-18.664005916204047,-36.06344787250605,-49.08559398176395,-58.124140639011785,-66.3175498463289,-77.74112361178922,-92.2053553372688,-91.1303649464042,-47.0293987287972,30.77780726923888,94.09740421531015,111.20685487243136,92.04179876466813,64.02997498296011,39.4588382088805,14.368453285761321,-6.955485004226978,-9.503753933040185,8.497957829333814,27.943409622963486,30.266902958638028,16.303431123695393,-1.491155926326312,-17.266050341318053,-32.65888926204192,-46.84030152493192,-55.326964402528695,-59.74994281460121,-71.58855478748004,-91.22337796579619,-89.57917364017696,-38.40223120747331,39.84131653411454,95.43738549782772,106.68659320325564,85.76480968970962,56.84644516345122,33.04553144294043,12.498002871803273,-4.603179191586267,-9.665794837548095,1.019831581558708,19.941683638945584,32.64555974726399,27.878696309956325,8.172821607082568,-13.522648848636775,-29.188888463662384,-41.77076994669682,-53.81261054836559,-62.11104964232252,-71.24197055414609,-89.77522125535219,-99.16029307698987,-61.1405434526096,19.49392212290816,88.58382718078857,111.97090318169174,97.36750708038977,66.82206070962272,37.969221375789296,15.888494440742942,-0.133561381138394,-5.317032478943341,3.4275327033415484,18.91587838075815,30.954017437457317,33.265798147982814,22.304587864321874,1.2503490887210589,-20.384191598548643,-39.11006196851714,-55.99355822618883,-66.3308631588867,-71.06530815337427,-80.37603458940356,-94.31557416766326,-87.38050113942658,-34.54788374601692,43.21930728839179,99.40592608943247,114.20751798127489,95.6978299187849,61.87639380500726,29.51752413841499,3.5626054828452065,-13.708486226962108,-13.428776860016601,5.019662427966854,28.210645608496115,39.602314574175196,32.10629616635828,11.539874120614163,-10.088710192274567,-26.11178215690901,-38.54643457112693,-51.04274414326527,-62.164019409955785,-71.63120203893655,-84.73306801854034,-95.97082707924174,-79.47028064360173,-18.165869231234893,60.779936358604296,113.12234821341795,120.67334847536287,94.10216032440668,56.53060598086826,24.224757583117754,0.14396366710429875,-13.716797977443946,-10.801856577460997,8.218718057930515,28.072485910515013,32.529288154317165,21.6670376688667,6.531299489234241,-8.523240550832297,-26.543658887448863,-46.45189674005898,-61.2648262919551,-68.67943194996205,-76.60024013934395,-93.57330840906546,-105.17769811390914,-73.0883833666071,8.754530874387918,87.6503112014115,119.76900995749529,109.06380874123937,78.33733583618574,46.0560718997257,18.230689140113107,-4.676492609222779,-14.655544141410042,-4.309630870903069,19.421405579702196,38.944178839208156,40.68721783120758,24.630117471875742,0.5033594988894606,-22.43529319273892,-40.31904637271927,-52.67886104429819,-60.55385432510476,-69.09611285790984,-84.68980915947877,-98.49886752447043,-79.43326587048026,-12.890910502507033,65.03482652040098,108.7144117760495,109.74933606583434,84.58794466662755,50.81924665265671,18.604125721462946,-8.989519878726961,-24.118005012451366,-16.775339703827505,6.802955866302075,28.05341554649025,32.814143437548765,74.0,133.0,79.0
-12.426833323319176,-31.79594718536244,-42.906462224075526,-50.504447907947366,-59.3637646500547,-65.7877231590682,-69.96703642544686,-81.40240266902708,-96.41128965568222,-83.6454980073451,-21.67645847990804,56.192482591376795,98.39148384180577,96.77542620825375,75.84510445384623,53.09924449264565,31.116841474059292,10.634621329115095,-1.3881578151447422,2.6284307802265396,20.25798455671145,37.82175454729785,41.36208008162441,30.365302989189562,13.447928384516606,-5.071358702180957,-24.02074083658121,-40.329276456614956,-51.99787191636496,-60.410156252032365,-69.10741040545557,-81.9726801073889,-94.87269520596213,-83.4657832090004,-26.200725687254877,52.73212301099005,104.06176801958895,108.17740708048024,83.84841155658502,56.63549982988003,32.41744182327195,7.184944029988607,-10.153439409425832,-5.856750754349302,15.04671062727191,30.743094684078656,27.393907493909158,11.070943741061662,-6.232305901966969,-21.681614493820184,-37.059795830345315,-50.03611625992359,-56.60963819078997,-61.92112697659556,-77.19615398759542,-94.74685362911282,-80.02651069073652,-16.29492500262153,59.97361575127045,103.19378438091724,102.87707845706707,77.29853630204995,49.348079243600644,26.97026550753847,6.897502664025499,-7.677905741343919,-8.059787686936382,6.207540058505148,24.92738974000973,33.25449254414148,23.229928597801127,1.5281669203144577,-18.691940460427155,-32.89229183080452,-45.406261448582846,-56.67585438281592,-64.11319188171943,-75.70741600802785,-95.19096365374477,-94.17629405898967,-40.23250876121447,43.071428600930155,100.28035625144041,110.7245612862558,89.21744402650027,57.83140348769063,30.95629611297602,10.549869198821453,-3.0501999612890494,-4.08266341657732,7.7043932307069065,23.100757853561674,32.82590614402575,31.513834897497386,16.863231573421324,-5.301752717507202,-25.994900012981432,-44.28999126962063,-59.86846754610377,-67.8869847426442,-72.87444210900291,-84.57745550521207,-96.04682670970422,-76.96683810925742,-12.496754567941693,63.27315168253254,107.91274481052403,111.57347763224037,86.62487738231603,51.90195634145965,21.396478773127065,-2.661817602323972,-15.761189077328016,-9.575435551605153,12.028850981401268,33.28353403786873,39.339394295162265,26.994260725332943,4.92014043504149,-15.33338804341562,-29.857068705806714,-42.10946462442289,-54.54438003081029,-64.86757113793642,-74.8893829290197,-89.00515008994228,-95.41661919889421,-66.05023153653558,4.974030412332619,80.09509903996862,119.86792931355858,115.53944099447766,83.38587233025336,46.33466664039946,16.448065158457265,-5.172855360246052,-14.838965055310837,-6.525449630348504,14.766816147821448,31.30997753197788,30.516865669128975,17.310237477245323,2.2673297375216075,-13.312364483601279,-32.36681214657798,-51.54532912081492,-63.99362011268794,-70.38355754361582,-80.55842053834053,-99.01204986533203,-101.89880785668689,-53.0054600472714,34.6874274085914,102.31946533866119,120.12307635936631,101.24857753695389,68.64286614946346,37.59111189806584,10.92382238994006,-9.392421616171134,-13.761365416576615,1.8609492804944123,26.298763382112494,41.55103915648099,37.539663196263476,17.996591035846286,-6.523712464759156,-28.169424373033202,-44.45344497279924,-55.28776911138551,-62.604837999332275,-72.79044168318367,-89.95455023950821,-97.8447885664279,-64.39062513145899,10.912919134643307,82.33670640794695,112.85592732999245,104.31067126554818,75.07798793092881,41.16232053110351,10.000727184811703,-15.218056653812244,-24.42468334507333,-10.88972454303997,14.015160580625063,31.42395795459486,30.68848933624221,14.974746210046552,-5.3097150071855275,-25.06775965511934,-43.91337626682764,-57.09648928651029,-64.92226887507336,-78.71889968682797,-98.27395152589374,-92.89483319047545,-36.34894889975611,44.6302124777025,100.33201233616285,116.11965544793678,103.60926078160746,74.37660261666149,37.13381618517131,0.4861620287235101,-22.463397607346337,-18.74049767326634,6.054520843488505,29.457734333156914,35.9009228137323,26.40934707643305,8.159669267940156,-13.937786402531863,-36.10917571905264,-54.4379533019641,-66.93391909016637,-78.98263921872193,-97.51981779988256,-106.7362035383228,-73.67106655776676,1.34636814972684,73.86643436056308,108.64148385323125,104.3063319382005,76.89426431463892,43.560878760770066,14.083605604093187,-6.644457777200893,-12.327687785799826,-0.26808079791106465,20.637823425023203,35.08272065391193,34.40116686667591,19.695523396186086,-3.1298308807270043,-27.299355145729326,-47.704649922245366,-60.85352409933224,-70.20173822943784,-86.15428326194461,-105.5300153990127,-95.21984427704913,-32.78201978676839,47.360874624208485,97.09177854724463,106.40494941675914,91.03815678095617,65.67934592587152,36.131417364826035,9.088365696089276,74.0,133.0,79.0
42.404371302719625,21.022039646664147,1.7065082605474111,-9.498107694290299,-5.15890661856723,11.803518652258255,28.999037815243895,32.22175534963948,17.555769567902214,-4.921172751842116,-23.286350452780948,-36.49512072179727,-48.97898439007218,-59.11528901612641,-66.46868016668724,-81.09521527382743,-98.97614557937217,-84.30873861041096,-16.62099781834336,64.15670608716205,107.83077872114832,106.78399105243257,80.29315422566496,49.31784076936018,24.489980455278758,5.7194307265860775,-4.870546059297399,-1.702750673353227,12.275458984968683,26.77895461526265,33.770269972907435,28.582682842060933,10.764725064627523,-11.654436275909969,-31.401187863312536,-49.30584389543416,-63.022919286952806,-69.14187508941795,-75.35897263039476,-88.96096044162626,-95.13578389732263,-62.35318574644207,10.540376036224531,80.45710407849528,112.86523876035335,106.51574059142968,76.76022090947808,42.38898428465758,13.78010773834009,-8.018932269425871,-16.101560877061118,-4.350806123141491,19.002653427526017,37.001049269093976,37.45784521370145,21.047369286812444,-1.485181130941453,-20.046289311363473,-33.42097248120371,-45.73705626644798,-57.83151067940556,-67.50624821744285,-78.61114052649751,-92.78222782274898,-91.72506909656987,-48.79014522667581,28.442888931170224,96.22471781364008,122.76646426930755,108.03938048633405,72.34646100846808,36.824643328856496,9.326247416304875,-9.520606923263173,-14.377835614313584,-1.0620453683981297,20.88068001770409,32.96084571588709,27.42789669284657,12.885459348153274,-2.010841970809539,-18.44611132999152,-38.23277661877914,-56.01713130973491,-66.1458968561636,-72.4213371304463,-85.42320778504617,-103.29723919389173,-93.91213825552477,-29.291953080483687,58.665215789896536,112.51578573014707,117.38210040271076,92.33682653999321,59.17950178079697,29.4953048058717,4.070052046979037,-12.734303619187624,-11.082706550405762,8.81710837364097,32.34953715437224,42.44878942662348,33.05027408693423,10.971981551180654,-13.269893061866917,-33.44464854538222,-48.12517192267918,-57.56589458325766,-64.8938681686514,-77.21409647564548,-94.60334526501542,-93.50671408311447,-45.46766778381665,34.295997647693575,95.91633218193867,113.64919406198969,97.16898099886994,65.23897273287582,31.775640192461083,1.8229650019310337,-20.097464889606982,-22.681754657221774,-4.009324255255029,20.540892175597254,33.18110951219835,27.257331795945223,9.169579190776345,-11.06347960363968,-30.73355181970375,-48.536847497671936,-59.52554261653933,-67.79334956034887,-84.60191505545338,-101.09809378717864,-81.7666354523942,-13.030743293077858,64.83061918966762,108.64473729258802,114.81907881153596,96.46214382685145,64.09026384339313,26.028295429748812,-8.27193629501139,-24.366097915723966,-12.877372362260033,13.964657257063005,33.28714235364791,34.47081972229521,21.76609379746228,2.008203094721259,-20.514290225790802,-41.955955687007375,-58.601753382407395,-69.99429586796423,-83.75713760827989,-102.61912187524447,-102.59337292943823,-54.812683175029065,24.755261649390285,88.40929996525857,110.84940158427179,97.9193177402273,67.26834975059643,34.41989515654497,6.951080263445551,-10.112645411769172,-10.51393174391998,5.534319968148076,26.075246584180412,36.528861800562154,31.393552114508722,13.60768942780197,-10.21997967783229,-33.79413194055024,-52.284311815018484,-63.531493362655524,-73.7454166516009,-92.37280265807789,-107.42961638003426,-82.08745004803924,-8.872129888091212,66.10094697784675,103.44810008617321,103.66862332201505,84.36359979680549,57.397596801443484,27.580685287162854,3.465577863167699,-3.3465711596392915,7.265378333629206,21.926181765357043,30.635531647477503,31.610373374170482,22.989694187281103,3.4439443830035206,-22.194046431878984,-44.589777619163314,-59.92199886633889,-72.85312386903506,-89.91336256745086,-108.95897867425964,-104.90454692048566,-53.389700232782545,21.28941510303445,74.28844434269702,94.1122729908192,90.57659495457823,73.15793645133314,48.68680835682128,22.16494350108563,2.331924671493696,0.38838547102074283,15.081706705832554,30.429832884326455,33.7335969596277,25.641339430901397,10.96649182382683,-8.96791555249626,-31.996563452250005,-53.82728125066677,-71.16381209170954,-84.10284991359721,-97.9904602240357,-109.61844863564596,-94.89974162275588,-38.13971048529061,33.21654834656924,80.73111720712524,93.83231888043838,82.25391903873441,62.177345955879396,45.4397463643556,32.62983019735165,22.388568525147875,19.613104570988842,29.62309088636032,46.23666105049996,54.739214186654806,48.0378227497764,30.273961359163458,8.195259291720488,-14.109685030615413,-34.58644350104898,-50.43136891188103,-61.9243014293408,-71.49655243312799,-79.29738513376167,-90.35393498674853,-110.67484949120339,-122.55343859827991,74.0,133.0,79.0
-82.74452273997305,-95.38437825967132,-84.27482231302591,-28.371356080067986,50.99870056755533,108.68583113552305,122.08387863084978,98.78698720277515,61.428977420581866,28.037623405543698,2.874169307756808,-12.70039568353343,-12.292841875149321,5.195835031930278,26.08698116170426,33.012213086973716,23.594410697670604,8.516457745681775,-6.416720549545432,-23.92177715107919,-43.93614187466994,-59.776788606117066,-67.91900524593466,-75.09051982139997,-90.9438985589508,-105.32228110692529,-80.82025373537242,-3.4254677947642533,79.41680098179607,118.40186211916699,112.1501816048238,82.81501984554399,50.098440713519445,21.715504841165046,-2.1206273311880093,-14.455240002737229,-6.773714783113917,16.0931612504608,37.197097039488646,41.62487444026285,27.48214986562372,3.800540834397303,-19.640664960940665,-38.256704089323456,-51.34239157862785,-59.63087858697051,-67.63124521339938,-82.24696425543529,-97.7860734974541,-84.90453367644895,-23.611498712941128,55.94344809481548,105.56995709124925,111.55347771439152,88.76918698954663,55.3441047192404,22.687996865601413,-5.761379766236918,-23.289702376712405,-19.0275579789264,3.3713222146605357,25.989964850558096,33.296850235914825,22.781212247654967,3.2546695285381895,-16.76123216139335,-36.29330963461822,-52.51626211842401,-61.65133728800685,-71.52121949259259,-90.69666572094768,-100.78045076952375,-66.06467283149158,11.050744487667899,81.85245388622238,113.73143524617744,111.50482191911334,88.15832781807181,53.32606183238659,15.190245853908136,-15.492391014274705,-23.792164551486373,-5.653614578461698,21.145254357159317,35.49095663001421,31.877317107864993,16.55631475492784,-4.374466592095675,-27.001052050316968,-47.38885913772251,-62.25589982530008,-73.26584255954532,-89.17500205028536,-106.21565858516188,-94.10113666660891,-33.050444707448214,46.62903187914266,99.29258695662902,110.03983134986711,90.07011843390285,57.5237031325867,25.742334372419002,0.6655040081110591,-12.14775303680847,-7.234401677749093,11.731495131071243,30.596151898766145,36.61918599178412,27.30655585577795,7.020903988153449,-17.27856815713785,-39.854855714207396,-56.19815091222357,-66.07692101095964,-78.14135626364474,-98.52644946720721,-105.74410871471503,-64.5015288842771,15.089450894147154,81.38870920596916,106.60545943345659,99.35922636194445,77.10768494147906,48.84134475124574,19.46856848876538,-0.6251994318629525,-1.6192123264682532,11.735942026459023,25.21182694589803,31.747625922515745,30.229739616464727,18.40045043793361,-3.7396070157540704,-29.35448478293123,-49.654844484267414,-63.59087321389924,-77.14432740823023,-95.8399513104215,-111.75508826232507,-94.92092643714109,-31.92504751108926,40.09148445130155,83.09777714775682,95.01378670534459,86.6177440547646,66.58361689550485,40.97966599214638,15.192640379257936,-0.37188749663047704,3.46373095453681,20.249809534068177,32.81583602668216,32.31355323888965,21.959149867950753,5.7225894001351785,-15.489902496534677,-38.60170765325889,-59.39825884183354,-75.180729171158,-87.79594808701296,-102.30214470074668,-109.39061781916473,-82.43138187963112,-16.99763494564798,50.449420009296595,87.83669829914838,92.36092627199412,76.59948679430157,56.79386404550033,41.47250458202533,29.320437347798265,20.473691042014284,21.184566977027725,34.365194730906396,50.10191510434856,54.32714910408281,43.72519387226646,24.084542130065184,1.6858007913928887,-20.333358397560268,-39.73101285667056,-54.0611411945881,-64.86212819175233,-73.87996684936667,-81.7316611423159,-95.4038727854639,-116.58931423026714,-118.9302486523615,-71.98343242679758,5.982985410359092,66.17030171219803,89.3006807477958,87.86185671870528,76.66437682112613,62.08638966181615,45.5788542745879,30.755273602985884,25.80101575862055,33.662490537843965,47.45402800762404,56.907046956267585,54.83781236313294,41.87892067784358,23.621912908862754,5.284261021546986,-12.185279863920382,-31.52898801651356,-49.15642863113591,-59.685204035071166,-66.60111978550617,-73.15933249405819,-78.20659779424113,-87.85238573293307,-107.51600549707716,-114.96450138876548,-75.04064098048596,0.925902411889936,63.63406819686199,91.86584110374658,93.49224697466012,78.84995586486346,58.86763102873206,41.383435971883344,28.94968161152156,24.547909034676334,30.40714363462705,42.75716889729983,52.224144043385046,52.280713926808296,42.06108578680916,24.784193644004468,6.208577632391781,-10.952089717763167,-27.25420567055133,-42.63229563718509,-55.500504364264756,-65.77679284976199,-73.50901997519986,-77.9297525771933,-85.03076182604951,-100.96434883822938,-109.1008640223466,-76.01440490862038,-0.8946561767976521,70.02315715057661,101.98095044950016,100.6735540325027,83.44065492027522,61.06592606127338,39.48863106758925,74.0,133.0,79.0
31.844399374523377,17.5549030982179,-2.627346095010809,-22.446323672449882,-41.60042118098494,-55.801572078001925,-63.81152081157482,-76.23373168316218,-96.20433862894699,-96.42980474995093,-46.43406640807723,34.43967860890767,95.33051661973884,115.95512860651034,106.45361701100526,78.90666004682984,42.272508552248105,4.926264834806165,-20.77490449872033,-20.83338870139825,2.3106488825765017,27.162240561785623,36.11229420120066,28.32161209070411,10.894856407944998,-10.903379843164206,-33.297349010938554,-52.3355589830299,-65.51318106447859,-77.0263013446476,-94.91593215974613,-107.32534204355149,-81.10651910762056,-9.632462032380388,65.98807504157061,106.50754597954058,106.62953178490531,81.20710228301218,47.903795392739006,17.617106837956186,-4.60557021373727,-12.63700154997566,-2.700187530347092,17.908916649599657,33.96260162522354,35.39115255912086,22.282218977490132,0.11580862603938674,-24.192107254111995,-45.37021523515556,-59.501754966595044,-68.79818812168381,-83.44438029500998,-103.73644223204228,-99.64817195662752,-43.3692103167246,37.7076763911813,92.98406592906498,107.01022710688191,93.87417463966716,69.37982407126019,40.141029644285574,12.122611226991072,-3.0055901506676226,1.382672784734084,16.144369818705428,27.876693826018705,32.20874588868214,27.973565175922186,12.897380565557164,-11.232640613640205,-36.00855852683291,-54.13869980853274,-67.22914768905379,-81.94051584137961,-101.73305911845992,-111.72376137684462,-80.64290173931269,-9.731726955459937,56.16964728549077,89.25646702104713,94.24375271370302,81.702640768752,59.5573215345757,33.21125154926687,9.068599517722571,-1.3333531402284522,7.706071081220016,24.992655771700072,34.01785030022025,30.076504220496435,17.817872539804203,0.037184296256658145,-22.175889224125985,-45.00463449093242,-64.52269738532125,-78.88882559405594,-91.74943820447706,-106.15862736540168,-106.16387114394604,-66.40052771192643,4.242795496415898,64.9461717176417,92.11596549819916,89.16556712173083,70.66645493396716,51.86347407481057,37.75220666775916,26.23264694401629,19.376608032506745,23.899147340962582,39.356859077096956,52.91532791844694,52.61420809447481,38.661337936482404,17.69063003373588,-4.786705759999005,-26.34935413177983,-44.41448208199847,-57.396713813704274,-67.67509100281448,-76.10267478815977,-84.66425770496475,-101.31132822341559,-121.00250506130344,-110.79548394914484,-50.45613798101208,26.9167003998356,76.4299608035733,90.60990402773864,85.19638501759368,72.69625077216375,57.46256250417119,40.800157683547084,27.97555876915713,26.91510945316496,37.48718798853315,51.06428782248413,57.620490763642344,52.00554458638296,36.87358141264308,18.1780526779112,0.265866070104124,-17.54795018999288,-37.15985030341582,-52.92658857953072,-61.782553763138964,-68.58162264130657,-74.72134912412989,-80.02275994439343,-92.80354590772842,-112.72191595798036,-109.08379770410451,-54.69849208268401,22.225147825657537,75.20760144764618,94.58058823271294,90.4779065227808,73.14807849952157,53.39761694871256,37.177601385607424,26.691470578909545,25.20362887348621,33.67472555446189,46.20163839741235,53.32898912479603,50.319902027293864,37.54673057464668,19.332638750079127,1.1049050990894764,-15.714200352776588,-31.853710103552924,-46.66231176984818,-58.68875454047962,-68.34251789856953,-75.04519193872237,-79.2406198633032,-88.87560077492776,-105.59363638478094,-104.90832612062991,-57.125908217231796,22.351650284237856,83.62758662983065,104.17083011612571,96.74226578913496,77.14665475415644,54.620501534266445,33.77894982279805,18.504900147880125,16.221298206858705,28.198161162021627,43.8098264965594,51.1512549873966,47.807660832144116,35.99965188228936,16.946021100510713,-7.362362656964013,-30.507699885758935,-46.97101485163658,-59.02560737398916,-68.74255312533259,-72.70729232567764,-74.63672100738079,-86.54707966648773,-102.51919853538774,-87.90425701783289,-23.358814437684337,54.23631033149267,96.17747851398225,97.01745325219161,79.23843214882878,58.38303794303384,37.63848933268766,15.828845232341694,-2.122644491272992,-3.041240911619148,15.892426307024833,36.96649966721191,42.439051816812366,32.185336256471935,13.974771215366836,-8.475660091105086,-30.72354966277821,-47.50149672257518,-60.11744928087406,-72.73220537351477,-86.92629635229865,-100.61627239985158,-98.19514311747584,-55.90460434164735,18.47909237767466,80.70670993588487,102.83278943075071,91.86023828576639,69.16597579677645,49.24928465207641,28.47847743662687,5.135075663170282,-3.271229109172003,10.133279430590262,27.074313768818456,33.676543904454704,31.103808471907715,19.782756611611617,0.7491668797117874,-22.36597827088836,-45.24845981789109,-60.55321002156501,-67.11180988074685,-77.70649052389646,74.0,133.0,79.0
5.882520734559512,-3.62898264120637,5.280643641089522,20.215309225619958,29.909961320524477,31.97249530985784,24.78364403375506,6.583971049302283,-18.77313029623776,-42.035779052895904,-58.17089511587387,-71.01286911679638,-87.28427314631381,-106.97844628285024,-108.02083816664745,-62.65812641712881,11.857718816083121,69.26193937375936,93.06489541680295,92.02756633946677,76.00527222604399,52.17959105990304,25.573825708437447,4.1272411228043255,-0.5378232457280779,12.67756364243335,28.946409212445015,34.06914254004905,27.17159761368754,13.231849725709681,-6.047980564270406,-28.90810659295211,-51.12318255870973,-69.17452647237234,-82.45431910232588,-95.9804912951256,-108.92229488732151,-99.34571204878097,-47.52487879748552,24.48083989909841,76.45200737442319,93.82517065566512,84.65632602650065,64.79393086427265,47.37642964405664,34.211075731404776,23.48988277813348,19.28156116572789,27.626775988936526,44.1821685079229,54.473195755527605,49.723081554746415,33.02186672102895,11.199291301615588,-11.190951584688493,-32.07141341654734,-48.6326550923355,-60.52936589319651,-70.33294115251678,-78.26921506714406,-88.34911048520009,-107.71911556643269,-122.8482739737393,-98.03018757163022,-27.429767388101403,45.20670662116562,83.59151858446117,90.32951581907999,81.9958562394995,68.5223682085345,52.68797190481017,36.30981372684657,26.24475188825341,29.060804444855652,41.56866864542872,54.057121345764195,57.25762483595583,48.360151377905915,31.582222779501876,12.83428721558774,-4.720956387072944,-23.140092332058938,-42.44408147543484,-56.04670407972102,-63.747955354014955,-70.53328272957958,-76.12335774850365,-82.50727187903074,-98.60463930872457,-115.97815562905872,-98.49534495527884,-32.34070792145505,41.19064954829416,83.86696345575676,95.35932797036034,86.33890423873859,67.28688552787477,48.250254460185296,33.43223813429379,25.199014493274877,26.741352236737345,37.31231299690522,49.15142460853149,53.557391379851126,47.518282339796194,32.56498880566797,13.916897736975303,-3.868479596131481,-20.431315289157403,-36.35165559049863,-50.43865845508855,-61.69120524302991,-70.6655185065889,-76.29941854834466,-81.03426587875184,-93.52054792980908,-108.84743329243369,-96.42608731504244,-35.306131984085084,43.82884693673582,93.56703168595318,104.04352990943302,91.84193292285096,70.63753309264072,48.32707294982782,28.48921541659356,16.229809797353386,18.49315378865147,32.98319776131926,47.07926493511632,51.18620201073645,45.18861896536456,31.20337865089063,10.272754044159608,-14.534208599422307,-35.985552614002756,-50.69246793042025,-62.181714839379936,-70.5835209269925,-72.9450807824297,-76.70245693380518,-91.8951708939425,-103.17368073986731,-73.78807826956978,0.35963920694573837,71.20050270651645,99.79485594791855,92.81003405184809,73.22228418416768,52.42096401323027,31.445457281870837,9.723323506813099,-4.667026831420725,0.8668440332794861,22.795409303090022,40.50235725714568,40.724586179927314,27.49956850248372,7.804659630516477,-15.214660267359559,-36.229089494180194,-51.35361584653727,-63.6552780632518,-76.6387675784054,-91.2702253997139,-102.71653719477251,-90.70198561765393,-36.05793350762945,39.676058527427756,91.43528008734948,102.19283595914477,85.56292518087884,62.97319176974605,43.76277339108408,21.481636010464502,0.3086657432034164,-1.1341258417595959,15.64585753416922,30.136487979863844,33.76617335774873,28.77506351477428,14.91746237283391,-5.657578569352644,-29.283190455268514,-50.759360937128676,-62.99439586133113,-69.0505034480782,-83.18146658707809,-104.26243584537877,-99.14357338423474,-41.401795310355816,38.19832094405378,87.28079096714467,94.99764868565505,80.8583214562847,59.044669668885234,34.86567983393123,14.079755670227378,2.380362242369484,2.527747204968591,13.162169157710176,26.69544106116859,33.072309790297254,26.457073316602184,8.364486187001635,-15.409959547195024,-39.78337167283596,-57.61141212966295,-65.97764253851386,-75.13427902845835,-93.05240658502723,-100.10190767827578,-62.93504948190002,11.25357556867913,75.51827831217655,101.98371760220355,95.26020645911049,71.12693397362771,46.04714020961205,26.83155137930633,10.309130951924933,-1.175407716098517,0.8271143227970199,14.298254335749526,24.031180521841623,20.784564576184064,8.251257733310622,-9.821809244099795,-32.29576065741941,-53.00644149337162,-64.51996152562421,-71.6749109433654,-86.08802738504811,-99.41806665532222,-78.77834591930295,-14.276481363965944,53.12456357390638,85.6371812576607,85.4514872435572,69.49243855259401,52.24788910345314,40.49417876741614,27.50889468908442,11.287787218647031,5.850842499837176,16.713188995782932,27.619534404806913,26.756685195140186,16.039973578134635,-2.647573616629691,74.0,133.0,79.0
-121.13599039403798,-81.0256586558897,-4.325195036691896,60.326785120646,88.03873477114924,88.85343926473443,78.41421923941986,64.15950183220075,47.8232510814205,32.341644619691046,25.66946312097882,32.05642169289722,45.64676783153237,56.22770749309014,55.83351110417448,44.04836675889568,26.14440190709088,7.633520614669987,-9.790147368555147,-28.87858087649666,-47.18761824732154,-58.63033973162086,-65.69472633580747,-72.37144393652967,-77.50909511932134,-85.92186007711128,-104.76297568527598,-116.17600745550575,-83.36561984041883,-9.431564863238737,57.26371836031529,89.89128333060933,94.4327287494879,81.3532209573186,61.4813198509572,43.46200422788742,30.223317606863375,24.549158774244887,29.08795485263483,41.06337201715555,51.43240711824302,52.88969406438775,43.943268915585726,27.279086670498867,8.609346376464636,-8.735929561495764,-25.111352686893945,-40.69586335781729,-53.9586942288353,-64.52701526610261,-72.68857550282854,-77.40876952293527,-83.56630245848518,-98.61751782200685,-109.74594891352358,-83.45001903449707,-11.856361251942236,62.52805184754454,100.049281168188,102.08052710768115,86.21698941878275,64.07541890898116,42.22398881273894,23.80538107061045,15.236797002496633,21.86973134055674,37.70743281770457,49.43603527053587,50.37320250270522,41.91341743960436,25.81699071196287,3.2335880981796876,-21.395115739832278,-40.83853417243916,-54.17912179935995,-65.1190747718959,-71.82961975546871,-73.25643913676812,-79.91482949192779,-97.11472194201669,-100.1955858155223,-55.495922398869496,23.70214017575374,84.27406220921823,100.34925563444864,87.658838757679,67.16845623431863,46.46183828984601,25.120074607258,4.179374694137741,-5.423759333929832,6.28397635183247,29.280693329483558,42.438751640453475,37.88120523609465,22.315141667648653,1.3277799709172768,-21.780856851450842,-41.17988534428908,-54.97685602419685,-67.26641371686947,-80.70606949439512,-95.47079657169213,-102.893381839193,-79.3191106133509,-14.257775352287144,58.62329113331072,98.53064886512487,99.2222817127395,78.8529383526793,57.20470030346682,37.92863287948826,14.429048362730793,-2.6909245546851843,2.6804623529051215,20.845192148434403,32.211025319187435,33.18400464722182,25.672414365961764,9.487148890625003,-12.324889627720793,-36.052256129060744,-55.4240230508341,-64.81496249703837,-71.7671353631442,-89.50068810798768,-107.37249848725564,-87.70979958042481,-17.99695918482534,56.98470860748634,93.08108689245614,92.26281532024187,75.0492106864478,52.086309837284404,28.22587732069083,9.576125762144738,1.1736762812569508,4.730517271825836,17.246070880000072,29.64750098724651,32.57861654049648,22.162904231859514,1.848652055469202,-22.650226513391175,-45.94616677617968,-60.780251403016855,-67.88893914770692,-79.62597541310576,-97.8555795591048,-94.75410064933445,-43.48751223224579,32.84242848440908,87.25882404934403,102.83474384783665,89.29343525372953,63.39837551367903,39.96406489197174,21.894572755226033,6.096016858326678,-2.2341600811921434,4.09168379221956,18.19009079322984,24.424279732453527,17.84239442198753,3.5737379096053132,-16.002771320523802,-38.88375235293772,-57.37758395391438,-66.44911654856436,-74.85295047078694,-91.26802368196957,-98.37431824354667,-63.58321822183925,7.270974329364908,66.66437571288074,88.19158193892885,81.76675740040369,64.09315572376322,48.38621302023384,37.283303852119126,22.742425056148676,7.902380307976153,7.76435825098857,20.720434904681373,28.63239033549038,24.51143338593157,11.450282722994894,-9.352501868829261,-33.18008828767275,-49.32288921098561,-56.68719319741326,-69.01919506769887,-94.47208576166881,-111.12498097642691,-82.13369883625694,-10.345473770156238,57.42885250556361,88.42331596610272,85.41426530981,66.89986760222044,49.94284965338222,38.35769028827097,26.54405399521847,14.652312311592116,9.478807114146615,15.3468873084496,25.257197788690707,25.3559291359182,12.215040645098401,-6.202376991374207,-23.79838812216569,-41.46078245954208,-59.55164548675846,-74.65431287430827,-88.53659695708201,-99.54668819184467,-87.343221392491,-35.797056036780866,32.312932761255524,78.05905149423735,87.63496289110743,73.9497535173998,56.30249915429294,42.663249165459796,29.852077834701294,17.70061427725397,13.127630971107008,17.96385935254175,26.42288625846638,31.177900882159353,25.58433878302428,7.285751335271252,-18.589569998247114,-41.886557281061606,-56.97908345250106,-65.74377137296963,-76.12690003829204,-94.7710059031861,-107.22486619562582,-82.37762372467098,-16.650432964189303,50.69264946840059,85.08683642410729,85.50352533220313,70.25316886870603,56.291941607985564,44.76936960953107,27.948525560144347,11.747063727233895,10.757170864603722,74.0,133.0,79.0
36.368498450377515,19.945859660145846,15.599809489659311,26.07442781864785,42.03052775666918,50.829532107459876,48.784334149080046,38.00766159890573,19.866671031041097,-4.009384247193153,-27.76805341733134,-45.14052294376331,-57.52272435962808,-67.7063462678509,-72.52755379807303,-74.02500612861029,-84.24543505748329,-101.26252175830517,-92.85852790263152,-33.9923995911531,45.241548833584794,93.31719442983858,98.49796585727152,81.96519225475095,61.14425437802425,40.44707881445508,18.74171938667401,-0.424865652846519,-4.239680937912246,12.731082931170548,34.833451809992646,42.782856896931456,34.148144197267634,16.698102879697895,-5.358697939090728,-28.006621591695595,-45.60983643942695,-58.49937375862951,-70.97932963005452,-84.93442356932307,-99.19184154810601,-100.41857273736274,-64.09759780877029,8.237009491506416,74.53388176777969,102.1981883533904,94.48229090275984,72.15975519815775,51.73515649234036,31.580617513631722,7.845821543376316,-3.5835873449636844,7.635313891593652,25.32276979864669,33.396136525334946,31.92429671467673,21.807139520696413,3.5952368360945424,-19.174224030260614,-42.469502799457594,-59.149489152408584,-66.36832540259465,-75.55898716577923,-96.06901610487247,-107.17913284021851,-71.61306861933194,5.817768411393832,72.14408742713734,95.69271909755933,88.2604763797961,68.79453376515299,45.03372476241117,22.029493739343852,5.9518629550455255,0.9905671149748374,7.732757382825048,21.31745855841899,31.773382545724054,30.91495073462026,17.02977860327439,-5.002954445001172,-29.821504431763604,-51.34668393683848,-63.199323604305334,-70.25244580421287,-84.90143325912288,-100.90681801465644,-84.97134554000708,-21.76515453223565,52.33085850888862,95.58482520072553,101.22555243940789,82.29725298551499,55.97056866936888,34.38012993459689,17.067761268837877,2.4816207906059624,-1.9539442298461815,8.077742881227632,21.33200095788218,23.66857447197827,14.298798751093848,-1.5429478632661222,-22.51088519661629,-45.09722755830079,-60.843765608979716,-68.30792441399899,-78.89914824870483,-95.82812332433417,-93.53325008188683,-45.02190809089869,27.65451563951608,76.76489913273882,88.4076630652337,77.15810886797769,58.926883872462575,45.01192304541244,33.68787119177458,17.83645402703762,5.886243290395356,10.91364470035637,24.19131244892965,28.568911378867327,21.555296149843596,6.1903782984732425,-16.375454111842,-39.016531980733475,-51.93468569734185,-59.01067079313245,-75.31253677190782,-101.97074901460607,-108.47418003522593,-64.12806320822344,11.84050394239628,70.56944700655127,90.35501996386283,80.74671357841798,61.370019370376546,46.24768157201909,35.16418256731764,22.86311836246219,12.148856554256376,10.081367039169866,18.427259040293315,26.75653843313032,22.67295950184418,7.029673455731123,-11.437075095816244,-28.77225884826211,-46.790662768141424,-64.29056452226126,-78.59342945505387,-92.5588738183224,-99.60984637811097,-76.30283169380398,-15.934131633550885,49.0857209657635,84.32465070473718,85.14364463342446,68.60700443898268,51.98138145991813,39.06687732034534,26.01934921580367,15.325152542128539,13.7296393251657,20.362640920537658,28.49847983094944,30.851781480512656,21.52983584246607,0.16273838588669864,-25.99258915435265,-47.12820126820904,-59.92091287575534,-68.10930831594771,-80.74824731860345,-100.35546938154476,-104.97935655381883,-66.4032668887164,4.748796285394707,64.6490575654387,88.07470916289293,81.75198287428299,65.6958259612533,53.072661995625104,40.60161866454641,22.460413936099336,9.559586123690382,13.544417358199935,27.317343484126518,36.53350726774618,33.20335777788111,17.872118695454166,-3.7787454742471507,-25.95389291518973,-44.1212720895665,-55.442471764583836,-61.72721438479474,-74.27456279197251,-98.67567893018514,-111.34598236855169,-77.1896324858426,-2.601816878493782,63.09715780164457,88.81083713005226,83.52600738485789,69.42998225005898,57.34497337333384,43.22661905451156,23.842387776641825,9.136144514842103,9.554101716767292,20.48430347735981,28.98468917476467,27.384240107846523,16.071467337157728,-1.2558866719666624,-20.815687203057013,-39.26178667471115,-53.56638247445204,-64.31928941829987,-76.72391084765108,-94.81871563419557,-107.92142416045765,-86.14285696150547,-20.28212907761263,51.383391823070625,88.65147047488806,87.93558673063406,69.91739195715891,54.91642067545513,44.2512222562028,28.2631290909822,12.666871250866437,13.128624582073465,28.24996013540031,41.656300542354636,43.17357229269708,30.69351896375594,8.35238509293224,-13.503356515892312,-30.996881122696283,-47.21977050422255,-59.72648985454403,-65.86332411756648,-74.4825567569029,-94.136791147871,-107.68910800295917,-80.61043408450486,-10.18650765583201,59.141772392806295,74.0,133.0,79.0
-80.5275926457459,-102.01783727550618,-102.768040585824,-51.611788730367316,28.497096276558683,83.39472362742775,95.70258939141875,83.35323159309677,62.18625058674781,38.03252556419644,16.42593101431484,3.278762210505994,1.8178491824838086,11.350584249521503,25.109802204714512,32.91284353028412,28.11097004661109,11.223919710224962,-12.090567802738612,-36.738382174350946,-55.850600449121444,-65.14334981460512,-73.38079662651916,-90.52696385498895,-101.17482077116895,-70.80626700303743,0.8817045753148605,68.95202996427564,100.66244037946201,97.54333571644806,74.70913410991133,49.044817093159885,29.15785292222868,12.386012940890971,-0.2688624314269814,-0.33448913629836263,12.35475213295295,23.446898863536642,21.896115228642152,10.262197202670063,-7.107862776930334,-29.20237274590705,-50.691783847449116,-63.50476469824421,-70.47638544541742,-83.70700888380105,-98.83373739500203,-84.43047138858036,-24.233489585761806,45.76414423730397,83.54408437682574,86.73897658710403,71.97755994551537,54.223748617343546,41.909824303792455,29.576796994529676,13.201739756780274,5.481131299699873,14.814699018818507,26.779833088310795,27.529689145196183,17.932095908597933,0.27904077285497736,-23.441789132228045,-43.93037313348936,-53.96509953260673,-62.19578903131521,-82.72301779201152,-107.82141160113926,-101.17529030485665,-43.24802377716801,32.33696259949495,80.24807038983262,89.77704627903117,75.30118924499492,56.30563378932318,42.929467241937886,31.792111506722662,19.28980437819057,10.396321159185954,11.652691053565816,21.526945894288733,27.107576395125427,18.970019637558497,1.6517408291013713,-16.528182540448576,-33.83511032080096,-52.10011720642189,-68.69359472620614,-82.57067439679062,-96.161821635081,-97.02678385360787,-61.838519255772404,4.311015331357933,63.139904433903425,87.57257477723999,81.20681324363368,63.363503695701475,48.02881849985105,35.40038755483324,22.342105994427367,13.779333724014762,15.056196428339742,22.88406965463558,30.089079501713588,29.511286465837898,16.416869693315117,-7.385120189155691,-32.92082335138419,-51.63177633359242,-62.434984229303396,-70.8725837460405,-86.14702480031136,-104.7662343763133,-98.82327805251623,-47.43779525696297,25.03117620983126,75.3322865479707,88.49607465321466,77.23995497342169,61.550795905215985,49.89896950617549,35.80423071646571,17.404012530140616,8.9410353875088,17.19035056076918,30.9655330814144,36.99119532093422,29.794371290805127,11.994091663020388,-10.36402727030285,-31.773047536125166,-48.165178351371296,-57.443441455362084,-64.09239961041229,-80.51468351939444,-105.30947650202215,-107.1833317344543,-57.966306732089436,19.50447730742895,74.83661939682281,89.45636226968676,79.54510994912583,65.70938324483029,53.8157351797724,37.97082282758352,18.451457750918184,7.599993985491643,12.18322934538894,23.707577188687246,29.65990180294282,24.969982254388338,11.505903955997796,-6.8283216891253256,-26.41143488423767,-43.901917866311244,-56.866765833331705,-67.45524513465178,-81.40225098062577,-100.23225888297084,-106.51421817630975,-70.68523594696033,2.1361073580996846,66.55986293582612,91.67183590393165,83.39788377736782,64.7709416246285,51.86242132347945,40.356862273014556,22.95740407599958,10.735292757418309,16.64122539478027,32.97418635266308,43.497481778691764,40.98426304626606,24.834536991251237,1.5806177344669368,-18.87546737422817,-35.76600501762875,-51.47542528155931,-61.999564543068736,-67.47378952652276,-79.1529261803327,-100.21821183280734,-105.21662372475197,-63.33240254717964,12.254277084404418,72.89948837054385,95.07131884671601,88.15432988107762,68.52948603862895,47.675471629350774,28.717293805646353,11.916796654875656,3.11010320032038,8.703500292451299,24.750515030329876,36.73283023856167,32.89233000694384,16.320248721627756,-2.571511194763932,-16.940123857180836,-28.701154388992396,-43.46658702360595,-61.335155928993295,-73.62181899285859,-77.19563516328401,-87.37496386749288,-107.49825614372827,-103.59493033746239,-45.93549968217265,37.28651405188105,93.28157431226217,107.20626543251237,96.33226242727113,77.30898332296736,55.5882879505065,31.441036923346932,12.723399466589717,12.979926504205922,31.740673206925763,54.06364738466256,63.43265617033543,54.36275764714313,34.53612667872806,11.319001814834223,-11.933436387053668,-31.377170366833397,-45.246447000052,-55.41953019492257,-63.67381199761064,-69.87539475407223,-75.60271978058354,-86.8014565774623,-105.76063230055705,-112.28523109878354,-73.93438471021197,6.697819880613786,81.177929042339,110.58295794704883,97.91997546981435,69.72011620599828,45.47271323129254,25.87079386498343,8.099378776045604,-0.8854256824531722,7.2371194439681235,28.046303384640638,45.70087220273398,47.88348441972137,74.0,133.0,79.0
-6.2078444359643985,-30.23142930197411,-47.84304132224506,-55.79249400873087,-66.56056532542438,-90.75975680205282,-110.91234609473386,-89.16075432805596,-20.817923238022235,50.22894546665826,86.56976350472678,87.16419244439274,69.54565125396269,51.81708919298783,39.79478834936702,28.231096823352907,16.01122108712971,9.541834402764811,14.04035842791957,24.24145731562084,26.198533468174983,14.479870017929978,-3.7431253337615247,-21.514446558086266,-39.02661476425904,-57.25856457830729,-72.81603125649431,-86.64265173782789,-98.81991996445122,-91.21490207682605,-44.51374283317581,23.832562956218563,74.09531820101309,88.14733447908417,76.35715651768001,58.4365038132345,44.32634891047594,31.622159619075454,19.03708121366415,13.128596237184105,16.949231783942416,25.35151557215804,31.018474935799862,27.08089473909927,10.354983953160936,-15.074848589735591,-39.22034146293167,-55.438341832416235,-64.71065059803078,-74.28446126608821,-92.031808924333,-107.09750979752381,-88.50575987859816,-26.569161886197815,43.217618378113734,82.73360597543694,86.82892949609403,72.44779915757641,57.86050380359112,46.491114100899296,30.493592909862798,13.248254472042824,9.862212589828573,21.297070795607745,33.91055720691119,36.28852154462071,25.479991750537078,5.741013446974174,-16.858620511895698,-37.16460782536628,-51.57769849150813,-59.143531212527584,-67.36256172794201,-87.69728599374704,-110.038100660824,-98.34511155369259,-36.16420250755872,39.48236247629865,82.93194074924843,88.03988818683642,75.35013015162176,62.24321987586633,49.904940321779726,32.301504964787696,13.832620101041112,7.471988137208723,15.416239285692338,26.403465742152353,29.400446956356525,21.814155751042556,6.536384995793678,-12.501986904861262,-31.83313004005535,-48.1275839401723,-59.94261360562178,-70.88802906064117,-86.6215913721221,-104.73595429760098,-101.32327712181501,-51.80451631681442,23.709250612731324,78.18018485703412,91.7994998199182,78.04369682521683,60.267518639030456,48.952529541008396,35.80599240918283,18.064597897694366,10.493110369129866,21.082475776019063,37.12599065684466,44.2204246926974,37.607405385971425,18.344341813761904,-4.873021418402767,-23.92552527798721,-40.50444387994754,-55.267669147109174,-63.75148407179647,-69.64667371057811,-84.83626649433764,-105.02790768053721,-98.49013996329421,-42.94061820461997,33.20603445169144,83.21058223711887,95.31319295113225,83.13692132961587,62.33960920872611,42.03298879547572,23.515551543436338,8.162323599498416,3.1721184476791477,12.769110528201194,29.37105635219229,37.39307513669157,28.97561569101379,10.656962090056409,-7.267972251030195,-20.341610910573753,-32.48439815299116,-48.55667731405611,-65.93047978757578,-75.13616214851221,-78.66608332294109,-93.03973925477617,-110.88047724809466,-92.4404382444606,-21.930540264354768,57.870278060902066,101.13671330608368,105.6754460919638,91.23424002227658,71.29779914308132,48.76526115078888,24.807169737347756,10.491954401575454,16.990988447846984,38.63830712125531,58.64836852632269,62.52607308269718,49.293879416422115,28.00851763386185,4.448619860608044,-18.10190254097549,-35.92139040566101,-48.4448709343272,-57.98983158618813,-65.67829413660206,-71.39789063960419,-77.94337196536374,-91.83267510351537,-110.46690260486348,-106.78061264594335,-53.3716694525915,31.287448142747287,94.93229741597005,110.2370161173163,90.15120328593177,61.97856412915708,39.58489650430841,20.428869602488305,4.111684615178768,-0.4154310815997785,12.542087181580948,34.20947969766279,48.17667011926273,45.207488351509575,26.873139610865866,2.1132406055095414,-20.308081915840962,-39.671097045739145,-56.54309379060838,-67.59208445627539,-75.31662325120672,-89.95576624917855,-107.63119403352813,-96.08113639764191,-33.6116167800991,47.603440376748516,98.26322322178983,106.74486824148849,90.63499918903156,68.0305183290533,45.06821442265738,20.18244002740274,-1.1250605872981563,-6.137954877663155,8.186142690517459,28.903480683966517,40.28741330622559,35.30225704574164,16.800138612253157,-6.024625304082911,-27.47906543129983,-47.64596691775693,-62.753825214708776,-68.23056643080723,-73.49411729024663,-92.12404024252923,-111.33042910339034,-90.6134997313908,-16.151379881400054,63.70144297589053,103.14696229283588,105.95859838602371,90.07629034147655,65.52114754087424,39.93189307663122,15.713588418007372,-3.280705067494047,-5.496306448214112,10.63825834977057,29.65957400841672,35.97991519014358,27.025558288098846,8.961390220982244,-13.858709584834177,-39.022057458996805,-59.14430131063028,-68.88754600234893,-76.18284971695822,-94.04901673582718,-114.4292931170456,-99.23866565966593,-28.551601044275912,56.20438825702038,104.09470085772507,109.3604206463185,91.42625772281372,74.0,133.0,79.0
12.129643377962097,25.47074175454266,35.9449692433791,34.43176516251202,20.415666569164596,-0.7466901628736232,-23.1497382289563,-42.05425871076636,-54.35827885054105,-60.843392044718655,-71.80164917055205,-95.26882636809147,-111.79876331208347,-84.85179862375821,-13.185911764798155,56.44661829334315,87.65067609149085,85.1746944507779,71.24323829459519,58.89920423252709,45.46716307666215,26.48098415054676,10.31789973256833,8.638950083605277,18.89502398516752,28.36580682911992,28.222645826171224,18.01357673248586,1.2572913933801177,-18.200899947731916,-36.99344256539467,-51.93817210597039,-62.92985658063906,-74.76015361950738,-92.21038310744854,-107.49087956641021,-91.91882813099343,-30.539531917773402,43.28466144647648,86.15979958114977,89.58070439470505,72.4454339958422,56.46374943289548,45.83919713135303,30.715502347809235,14.077362231256101,11.94049438475557,25.974410921761518,40.45025453734785,43.77832026034635,33.10905698889715,11.52365844238606,-10.886626759903868,-28.786687366636237,-45.14654026007012,-58.46813141019466,-65.20686177581285,-72.70898722851508,-91.16562173050437,-107.5595290697672,-87.26143682382543,-20.684990172622072,51.66375214471719,90.19934307601434,93.53091736557043,77.44466759152029,56.2509668012266,36.539357039529115,18.522110851841344,5.294107835380628,4.53799080575379,17.485247742183592,33.21765615780008,36.56634622390042,24.21576999754979,5.066760695132495,-11.493617887183163,-23.66009054235346,-36.648481894615585,-53.82348329011096,-69.75528683881588,-76.03094143684913,-81.22671167606215,-99.27639066933291,-111.0656857783367,-76.4488026711631,2.8466401029475428,75.04549162711268,105.62559301329607,102.6253005375776,85.75292333494639,65.08887790164957,41.734507075194394,18.967045812084496,10.136469957970649,22.33858606050886,45.38520870929708,61.78640600894995,60.11192426455348,43.596316365987924,21.305303144689823,-2.349620782199368,-23.848405456318265,-40.001817840377804,-51.40663380889354,-60.417814166639026,-67.49733178267823,-72.9534504034603,-80.94224306214993,-97.46090963971761,-113.34384039109814,-96.76784576276562,-29.92536269779016,53.90078217238341,104.36032678725623,106.84501987391303,81.81782978081492,54.84827037697676,33.938548262770254,15.14343884084273,1.1309209962969318,1.6262679319209337,18.63172254956076,39.66876581586613,49.16547804427568,41.1990877316718,19.88684918689603,-4.793860576311149,-26.103683936139973,-44.92360564610255,-60.435643628068256,-69.75919939282353,-78.47071749453883,-95.74214825381573,-109.025948277299,-82.901928264637,-9.546127122905686,66.76543286740173,104.5278193692511,103.65208213026555,84.24258256317621,61.480649174038064,38.0678747308273,13.114128372611992,-4.713085145713075,-3.653709276715139,14.310738802171999,33.65768913258303,40.5811050967038,30.992935171919342,10.240997276020163,-12.399928246395191,-33.45858488619519,-52.8630108804873,-65.24145383480902,-68.99025662989554,-77.34866400435254,-99.14817232914844,-111.20937011222476,-73.44855521137937,9.262375541870858,79.88033751725536,106.80254617917967,102.74103540513778,83.50291869076419,57.997916297105945,32.79886152515615,9.233690360887687,-6.0825561796365335,-2.271224502791775,16.710187847019583,33.16860662863146,34.76057351185632,22.441820511073473,2.7987061019191413,-21.114634633669226,-45.75912975484877,-62.958136360644325,-70.57814012769119,-79.96947252637334,-100.97060008540156,-115.56598881822055,-83.77783247775251,-2.656194841951131,74.97732519832743,109.26492236972447,105.66885555764475,84.48017449109877,59.06468262500916,32.93047516973073,8.261938976515891,-5.096124595281032,0.25580302875846306,16.746599493381755,30.116439002515946,33.52533067870553,25.04449483711201,3.306389243760736,-26.30256102949837,-51.74112502939265,-65.99460491173626,-75.05264575661992,-91.80065488834943,-113.16600657580334,-105.71316315710834,-44.44773715740292,37.518662201140884,89.1035938613225,100.83770026608734,88.47512069777174,67.70540102919709,46.381385788544996,23.256066246991015,4.774487987708717,3.084324697162467,15.326116291860165,27.635522513940447,31.569315542728546,25.37122584359559,9.74206281788074,-12.052206282404311,-34.33563310552174,-52.57882956860269,-67.74726860462965,-88.41104620598124,-115.51309298818528,-120.09092167029958,-71.23038184054268,11.244302083510702,74.87727511065751,97.89017962604383,92.21982822300218,75.19951803038056,58.001643202029435,40.25131476533245,19.343049850352255,5.370739989274357,8.866208689974753,23.788951505297394,33.40925587322303,28.038669105140713,10.553704343078826,-9.617841417636363,-26.96947652974033,-45.218537410676745,-67.50271169539037,-91.06750513928101,-113.19357316546062,-123.05575898061149,-95.34879587253573,74.0,133.0,79.0
66.98371969907153,94.16019886441637,90.14426680486443,71.38085979606296,50.33711210013235,31.160918871315197,13.882783667909925,3.5177232427502902,7.134847000962416,22.47474142480021,35.93408448121255,34.34071199079152,18.889921682835016,-0.2515406826515333,-15.298652315456982,-27.06210154471783,-41.225182732876384,-59.03260881740646,-72.6287877913155,-76.76284010843635,-85.1272545961646,-105.18829252799962,-107.05241718670881,-56.308847812312564,26.855836071415524,88.41661123400266,107.25932646520403,98.49775272420815,80.01889949219495,58.64626007514413,34.65200262989721,14.34238818527311,11.66974556249243,28.636225702438857,51.53918555715721,63.29992839795771,56.42015100148,37.46731756166749,14.485358842172065,-8.970845559860457,-29.11633763000815,-43.672984420264385,-54.18789934156896,-62.68681461016536,-69.15346536830425,-74.69060773128408,-84.75302034719238,-103.23200261259346,-113.43232636827783,-82.14472867225956,-4.935006921796692,73.43465398862956,109.53899299621177,101.12942278294118,73.46523361066994,48.314213041371204,28.40352905126059,10.19758324232114,-0.5811583386530695,5.159190144227469,25.078498361604822,44.086844105612876,48.6336684672678,36.03149638013781,12.642097879921806,-11.35013284378676,-31.71552613679158,-49.9275293566366,-63.74152193407007,-71.82571255821202,-82.49833642568987,-101.40621441133037,-106.93301507764617,-65.34478262962939,14.717615501802056,82.37711880251287,107.44682842922673,99.05923352726172,77.66327260840907,54.90830613118032,30.85467949456282,6.60766330020805,-6.6155866123854175,0.34496886142743033,20.52665366333527,37.307082731873486,39.43377102574565,25.717465271319654,3.577186525886818,-18.611956887564663,-39.35731865679577,-57.475250518240756,-66.87749050905471,-70.15186500569766,-82.5691612980693,-105.52854682033724,-106.59137929837678,-52.0781334760908,33.412971866328846,92.06523514945147,107.9046335473079,98.31017784899274,76.40146490802144,50.55996106933354,25.75456061657462,3.388430682974363,-7.166008643343601,2.328361097279749,22.521296701315656,35.33722113866598,32.341320383877836,17.286208073357077,-3.7239300547253094,-28.478391893951066,-51.83456587044296,-65.86200061379084,-72.41294905231359,-84.92730818490422,-107.56638871072536,-112.55943313928336,-63.72327181073886,22.803649698747073,89.77497502708644,111.20290325738598,100.56714805059305,77.2529703404911,51.59537602725409,25.354845853219985,2.7046204242141783,-5.440516746511784,4.5444180330692445,21.41867126224244,32.22053914619221,32.39181835778597,20.084139748924375,-4.931658068440889,-34.591630708350074,-57.00703244935936,-68.56486023904576,-78.68720310173504,-98.4779902595952,-115.85051528137234,-93.26258067120449,-20.199077693724174,56.8560743035282,96.02501295565921,98.97498815587359,82.76760686392868,61.58145449398087,39.89563606633959,16.80209227212533,2.305570381391279,5.768490274156075,19.428033585449086,29.78427678756004,30.82235154660712,21.7390557525397,3.856676735073951,-18.70529776563865,-40.11710944903986,-57.02339274315309,-72.70140244438032,-96.25837537956352,-121.02261768879373,-111.79931860814142,-48.532832650988894,33.447199129164005,85.51640840349611,98.38092650065654,87.79937917118771,70.03431276658011,53.19249623954013,34.340960586207146,13.924438122707457,4.488702930236861,12.704937928669409,27.79084955648887,33.47845194425576,23.862492321169064,4.58205205079211,-14.893768340049611,-31.882960847086125,-51.298284244968535,-74.32759357763528,-97.76106295246085,-118.28213526228788,-119.94903654256959,-78.48520012965619,-3.5823243667396127,60.52995201994206,89.8035127806256,90.412354462322,76.14688043082423,58.771572639572405,41.841421193001786,24.566577760182827,13.437904767648597,16.26123931498216,29.428231681881613,38.22265302200036,31.36365199535099,15.761798340287047,1.0144018450197063,-18.288467045889135,-44.52080717304583,-66.24003355469881,-77.0789883300518,-90.7563250500135,-114.85900944787319,-116.1758511638996,-61.0953737302523,21.082185455137775,74.8012017053387,87.13459285994315,78.8337992218399,66.6383670577118,53.90232467481476,39.81550952416212,27.52401243475262,23.662016056513455,29.792314198392134,40.710001629733895,46.38143347564633,38.59580667748038,18.66528170996099,-3.8780216077527037,-24.26575096581896,-44.67341753264591,-63.28471356653398,-76.44311291727078,-88.8894302830535,-107.9990237542287,-120.413074564201,-95.36366114595882,-29.861331784470465,37.49474381084095,74.0049376255202,79.51702252362676,69.90673537852963,60.14036587551206,52.628985730425896,39.21714079479657,22.667751431411908,18.703816001771298,30.116832542476352,42.741229484699204,44.79812618262136,34.403237976663334,15.59508216586102,-7.089364074716307,74.0,133.0,79.0
46.61522211590945,29.929237683479222,5.396007134035632,-17.553080227565932,-37.1913818468031,-54.563580037971086,-66.48616048216283,-74.1042731429227,-87.42810848368386,-106.08498389474666,-100.57617560478492,-44.223982702746405,37.74585231240825,94.13909861936298,107.51846882503436,93.44888493575783,71.06132826342734,48.21765698207175,23.536996381496866,1.031573212396182,-6.706695224594268,5.519017106512298,26.40829048533444,39.66719719504207,36.9028808437772,19.728170404327038,-3.0272923376631318,-24.70064071630022,-45.09456329168708,-61.29523220009246,-67.88370875829195,-72.1711492343275,-88.93546306235974,-110.13638611640064,-96.863550535485,-27.838948584360583,54.93509389426909,100.4468492047068,106.96320573094421,92.87169212560453,68.98767702627492,43.25568461962277,18.83228169849254,-1.4712859557757378,-6.433846333248809,7.886755623046907,27.635398956059607,36.09806928053108,28.901339135355013,11.67883204181998,-10.590227522121097,-35.7574656141107,-57.05733090297668,-68.04475701896592,-74.79762451738549,-90.97848202427694,-112.79856774322492,-104.64380488479881,-40.17784638671887,46.33644832975049,100.485578528955,110.4560332077882,94.47248485040595,69.89801315436674,44.055983048042165,18.012551695641577,-1.5879753531501193,-4.151326989315386,9.414687119734712,25.508756804405717,33.428729665790016,30.217820754277597,13.993699803250436,-13.587551267075279,-42.216637649623834,-61.26917223027127,-70.98820403947853,-83.29095981696555,-105.18339726475001,-115.01489840377603,-76.11003468297747,4.312105806802459,72.67161572651372,99.85835282459347,95.53404025632828,76.71280290774314,55.47595895084697,33.179928742745496,11.066783518416372,1.4810561729885325,9.3385967609106,23.186963809995262,31.124810799582416,29.221495692929846,17.35183816692668,-2.4345181165633667,-25.243588230616243,-45.482169152537736,-61.301969886132305,-78.41239036601738,-104.46015106967133,-123.6003978546411,-98.54195763605175,-24.17824102560534,52.81355459877402,92.72940139012476,96.9293556197939,82.82811781008074,65.0389608800217,48.19157379207568,28.18615677093613,9.472108460884114,5.21644624417291,17.15466100289702,30.924767405422713,32.19156298299208,18.850355342512003,-1.353806625093291,-19.896547644089235,-37.038723264688876,-57.717010711353204,-81.15946886496167,-104.30584808195484,-121.90503990478749,-112.98068535765404,-58.531071831362446,17.874830392470233,72.64245286815769,92.32984680944796,87.20960095662136,71.09363759821402,53.91003155592208,36.77705987649819,20.258482162525894,12.7052499685948,19.517892641077626,33.16467748419633,37.907254226481776,27.094759145412812,11.417528155474134,-3.704843946806132,-25.479984732885768,-51.86942295238316,-70.23574675288859,-79.8432356691439,-97.31529395290356,-119.80757809663332,-106.11586626020403,-37.373804097441884,41.14631145853846,81.94457568602678,85.8304761682512,75.36876156316836,63.060794733350335,49.95276814101791,35.78265000559418,25.32153526947641,24.52825564390016,32.83151635403355,43.371296903045206,45.675922835904494,33.73541736356195,12.001476536487012,-9.923819817432225,-30.108164748317893,-50.46149174392404,-67.65079672326442,-79.65439844006461,-93.7438891052568,-113.60113617913701,-118.10875017286214,-79.389461965683,-8.571216094381086,51.77799467966345,78.18350450622567,77.5207182715772,66.66381652312934,58.05968731294747,49.619540804446004,34.125722387223846,19.648550785458916,20.89380745556734,34.34093082469511,44.67971774710363,42.94834121537902,29.619543729017675,9.247309665359976,-13.732150641611785,-35.12240471091541,-52.94706423164806,-66.79612454182266,-77.63356918677187,-90.19876831895962,-106.92211403642246,-114.8734061176434,-85.79145080724658,-16.91444227212616,50.99052481539896,85.43754308694504,90.1207068231387,81.30981693869757,67.57279297992211,50.18584743546575,32.30829727470943,23.476300855618128,30.279335110681448,45.65763836396374,55.85386707388796,54.49120368418273,43.690279564387794,27.289483930347966,8.862859314889127,-10.27908296308691,-29.11622839351454,-45.50608487604488,-60.293550117615744,-73.8527078757514,-83.77307700169257,-93.6665143659885,-110.31419922029595,-119.90220600741331,-89.4868441546766,-17.833110389734276,50.525007142736236,83.21094428565749,85.62628048469318,75.3656224560855,61.067187700928365,42.11398453133958,20.852004216034565,9.20783417866946,15.380803512497401,31.2947961413319,42.30947498550534,42.582317058972464,34.446582270991506,19.058660244245786,-4.366107998350396,-31.561462017170037,-53.86363490847798,-68.80437676819508,-78.83452569050813,-89.84453720650879,-102.40959102922747,-93.63309986104711,-41.54430660083187,31.686984951861774,82.61761012074592,96.10998339289132,84.44104864585788,74.0,133.0,79.0
87.7297849241731,62.49146253742378,36.44743971475371,11.1660733243944,-4.368434624474673,-1.4140905607342102,14.462598198471069,28.853077645445843,33.71413681556888,26.940833987357593,6.8800841606212515,-22.332611485749194,-48.964318167784675,-64.66163642397379,-73.64581952710513,-88.91092652478345,-111.04101082298999,-109.77229058023038,-55.09301104336042,27.57050957386661,84.76105799012252,101.05175170166058,90.90574122368315,70.54567432785247,49.29132818191399,26.363367361398243,6.441278368197936,2.247524779062288,13.397353221660083,26.388671749671456,31.625445726953323,26.77685424047977,12.282833993766824,-8.98654542429201,-31.541151556154517,-50.42797110008476,-65.64528208205097,-85.04338667103161,-112.28940507268287,-122.25109966027672,-80.73565313185381,0.3100402130771619,68.75361285405144,96.88347819893427,93.9739480578801,77.61544346572342,60.20337934783834,42.849880107139434,22.05943300849611,6.319039971897393,7.422513729986902,21.74923021147231,32.921168846178,29.61989926036399,13.25572260558814,-7.078586607521479,-24.743339632387187,-42.546327202943445,-64.37948674719655,-87.95396506800265,-110.52318732735142,-123.34162726100558,-101.86007193723871,-36.580785129542164,37.251563611690486,81.67693122083253,92.77883033333501,83.10812580416646,66.02452948200606,49.05958086689527,31.687240708556203,16.722717432702133,13.268228061974392,23.409028104100692,36.098339863651375,36.13810921366969,22.47474147808524,7.238914756038574,-9.067926548099946,-33.15037287058701,-58.45728161521916,-73.3390964080801,-83.39687642139988,-104.6388502450842,-121.5798830516133,-90.91549395662182,-12.849315393265067,57.662191599749534,85.87723921304091,83.4255778469871,71.82976183016876,59.420464111136255,45.872960392162135,32.04499208985043,23.982103520400994,26.188984468836868,36.091448453725754,45.31177907375384,43.706789103767136,28.01036543417989,5.393968395069786,-15.794471091260457,-36.017961939709835,-55.979551992370524,-71.50288898401489,-83.0463060115023,-99.28146423405296,-118.00456153032341,-111.88428892453278,-60.48313085580938,11.66888745503806,63.00390254824025,80.05614482437197,74.69507868813055,63.724940315820014,56.04104428834852,45.89049643759695,29.05243132407555,18.104370485249287,24.183347635357112,38.24646780046524,45.54546123872021,40.10446904851204,24.255507562446535,2.677875981269971,-20.223959416308347,-40.65609925241204,-57.375690626921845,-70.08939167572284,-80.83576373965562,-94.7631098526435,-111.26959475855334,-111.35710213717311,-68.71284929904627,4.919310510950261,64.79768426467322,89.09707171689897,88.37877950743714,77.72171577024025,62.90325427064317,44.7463010436685,28.34405548694531,23.86958219654038,34.46658419297852,49.63212077184512,56.65277910513475,52.162603447738285,39.360357894625345,22.053186997899633,3.4074772587399664,-15.868221533185052,-34.13305286480115,-49.84930934067839,-64.4427374725124,-77.12685749298261,-86.23331022160401,-97.79003459411842,-115.21996779485201,-116.37173691661386,-71.55131482838948,4.447605675427659,63.96903441704002,86.20189616249543,83.3383143503857,71.58165827475696,56.145127452879706,35.821845703272075,15.886602146366355,9.20820756722853,19.66739141172261,35.47977776473778,43.44906407101095,40.97307112593139,30.785333454388546,13.092526161802033,-12.237974556294493,-38.77992110208526,-58.86906358385075,-72.03139208864758,-81.5859372197906,-93.84760831337508,-103.53576903147388,-83.03527674287226,-20.4828381833178,50.09500588894003,90.13103517883964,94.48374915497496,79.05990185838228,59.82716382711428,39.81623886115089,17.0933617133912,1.113504264494089,3.967638839816479,22.17333635828466,39.226864290196836,42.66829752330157,32.42028559849796,14.06771525427326,-10.355541626609924,-37.052519786436584,-55.778385014848524,-63.145645260049115,-71.5699371857155,-92.50836438307782,-108.47783721191837,-81.20755637795283,-7.67224044445848,62.75099832345787,92.08040660996089,87.12878831750004,68.78819504648,47.928409442510635,25.798254696513116,3.240961415341157,-9.045306522503486,-1.7471810116772808,16.45684366540183,27.8521472983166,25.720611972527287,13.939402693244766,-4.723471245428908,-26.130363211123996,-42.254715432420895,-52.9916070767624,-67.84224427420048,-92.77410634965156,-112.56192203359404,-91.67807573483913,-21.504386981471765,52.9827940795104,90.23726687378756,92.51307737539268,78.38694587717032,60.210872733090326,40.814618905464606,18.314506225183585,-0.08253776363299123,-0.7462257305392459,14.228633881312374,26.889860706102606,27.340331594360208,18.604171407563644,2.6345940001655426,-20.356922419125006,-44.56309252890122,-63.600465855567194,-79.49781747090016,-98.79359572933679,-109.91783191499658,-80.83310725674686,74.0,133.0,79.0
-86.69872830303078,-13.915178704259906,53.88685848485434,87.84478062657084,91.49394972021534,78.42405121138314,61.036917354773365,44.143513756142774,26.73765726264086,14.203746311525158,15.062790524157169,27.551296036004956,37.86966716337225,33.10220659876057,17.841326278769323,3.0341708378537957,-15.200278521705211,-40.970611092404845,-64.03827993806006,-75.9237040284036,-88.13151123558384,-111.87072201746237,-119.03236883201687,-71.29740046918715,10.840582495034734,70.28667291294644,87.21328902322729,80.36896882691777,68.2781453524272,55.67440215956732,41.72289791933054,28.80104347730632,23.554020428399543,28.52720382724665,39.31425936678948,46.298781362664826,40.48200419826263,21.695053967662638,-1.0105710291244678,-21.591368064226394,-41.953414561112226,-61.09263618559069,-74.94415498560578,-86.89758763665868,-105.24078914769893,-120.30652614052056,-101.50838999260978,-39.72284365453235,29.93197339837336,71.19621292695462,80.04062633739473,71.44561160166607,61.1852012901338,53.80723386135038,41.455260711026725,24.476387607031924,18.157071832106766,28.166655066230838,41.51626341283139,45.29081534959031,36.38131342852186,18.41796255855048,-4.002925825874777,-26.48599754996243,-45.88033246206454,-61.454551793204445,-73.18773169770976,-84.33584084406539,-99.6746338391704,-114.3492554213681,-103.96971771824438,-48.77168761479058,25.39247643538905,75.39335689425704,90.66169216064539,85.88198945025832,73.8220518406599,57.92035850192353,39.40491747565088,25.425806799427004,25.629455683109423,39.04861777740485,52.849998036618715,56.44620927084923,49.1459744072968,34.65052443087061,16.73266534467449,-2.114851771218526,-21.374989733276596,-38.906164941729564,-54.12086501358937,-68.45059583646494,-80.03209875218516,-88.89297977612823,-102.61018606869702,-118.86647726409183,-108.64337021509175,-50.74098086912062,25.103380901880453,74.06170897954564,87.09215616641588,80.39464471057288,67.54028188976808,50.76362697697195,29.4903929044125,12.097467678553896,10.76383576351375,24.405369030188517,38.92201914464652,43.68235037017085,38.74618838448291,26.50750448241662,6.431055525718533,-20.224757953207025,-45.39278859041059,-63.28696252872053,-74.91890568617052,-84.63004576496408,-97.84145682023684,-102.04013244994047,-68.54009269750829,1.2628604013799385,65.68077949803931,94.53530125895747,91.20914226780037,73.46506367498,54.31745585791989,33.36401046167483,11.107922624106745,-0.22420336129832288,8.27477474364738,27.980127322239458,41.85254737637544,40.85764242220564,27.778915034540503,7.601069780908557,-18.217584474890415,-43.72369049017815,-58.78566843432105,-64.68107949215026,-76.39162504237103,-99.30362927539639,-106.37448051819672,-63.15294801162503,15.521007235928026,75.85705983259307,93.1654694468044,82.49488414064184,62.825599471818336,41.75017693341317,19.04451564252232,-2.0011164121992313,-8.951834947810733,3.2123689759178107,21.054322659098485,28.536506458893864,23.113273314122075,9.183441206132244,-10.978058363329351,-31.592829784673516,-45.58189747036888,-56.393469896254686,-74.12442895010956,-100.44996321027254,-112.13474117087061,-75.27346079119692,2.16892404070916,68.20045753419852,93.65610724978919,89.39720277079886,73.24475239331306,54.83059469552962,34.59354718139338,11.913696473503137,-2.457911763222719,2.6559287872197035,18.89146236547605,28.273179085639526,25.553713394569737,14.785571891507928,-3.4302570758973863,-27.589947926546408,-50.71209982457045,-68.16981772108701,-84.66658449993511,-104.14669094535489,-106.85546492503134,-62.948729861872565,14.583836088399302,75.2282135219647,93.99136243850165,85.17994863774624,69.56442140937814,53.985898648757804,36.529011262083884,18.072405942009052,6.992528536752028,7.843234024948907,15.74818412592144,22.60752078495341,20.995692884550746,7.961977534009447,-14.363541885065453,-40.04618627001821,-60.680110825520366,-75.60114601108512,-94.66265496640409,-109.56016981279865,-87.18788294721163,-20.77128205686819,47.17714187894432,81.06372501322102,84.05077855066175,72.95791520980767,58.4512378734436,41.77847687576546,21.60712262673819,4.6318852999476405,0.8182765529273648,10.425887003673473,20.57268745510132,19.06778759483596,5.921706316830439,-13.746019469379807,-36.596391952030736,-55.91332932527182,-67.3514608291877,-81.00028559007134,-99.70855370761497,-94.35203165845698,-40.12311418978991,35.47061927497746,82.60520396886317,88.44853621905143,75.78632891329346,62.931566157884134,50.794548941969936,35.04888905164173,18.29213903504962,9.704838805117529,12.180682037461166,18.409923332102785,19.66925219358165,11.106519190231715,-7.198070389673667,-31.233175755858596,-52.50422675607315,-64.54980229768651,-74.26421207529732,-91.68520766474187,74.0,133.0,79.0
-10.682678169612341,-32.46697243792558,-50.79153838277551,-65.1854417497904,-76.2182101174465,-88.2436154910469,-104.68704847111239,-115.34767034719782,-92.45554124321062,-27.117661821067372,43.567600258486095,82.91719760265255,90.58906419410398,82.84832674798778,69.6172054638136,52.67043317183937,34.41325928946085,23.772848807426623,28.586123654812244,43.639336071277654,55.138461261808324,55.30535277049659,45.53312068338042,29.65885602087102,11.357942695634401,-7.6957908197926015,-26.722145067511246,-43.46330106304515,-58.354904799753754,-72.22044090502827,-82.63515347622561,-92.01279842633646,-107.87264210529551,-120.27532789939092,-96.50757341742843,-28.32437259682058,43.20870862219435,80.98747978261203,86.37357663223688,77.02386474708996,63.19386321757401,44.93184282824566,23.44274904969376,9.754363125791667,13.670454697098576,29.183678079351438,41.46201138937539,43.09931667569891,35.936212365980694,21.569352286934567,-0.8451923324398315,-28.063914151203896,-51.343254225076436,-67.17434844068937,-77.6093383378082,-88.09915239087489,-101.24640359219845,-97.16729776835196,-50.67441091244489,22.434590088089298,78.04417151805686,96.1717120366496,86.76186411636174,67.87013520284938,48.64502559581396,26.698199571951218,6.056730907556406,0.2337834115845707,13.576577501287472,33.234563622105256,43.148373330194524,38.02714943810848,22.58597901108172,0.6259480261038202,-26.10236468008891,-49.43312838334048,-60.91560688179643,-66.75691229422866,-82.40471964919521,-104.86963157428222,-99.6833837912032,-41.81522944137948,36.91748176622282,85.0719195897423,91.92471865709011,77.1941736504514,56.802124969953184,35.41304120693027,12.341589076083713,-6.013187794391796,-7.112039199859671,8.660502349331356,24.67409050589514,28.096135360532127,19.83291487555092,3.873039688445236,-17.294888813549687,-36.41127064610587,-48.59633967853445,-60.41835962190222,-81.31027406781418,-107.02524310996935,-107.3367904400121,-55.10493088771903,24.667776465596607,79.72535991955475,94.58394172351603,85.3467636084917,67.97920370077998,49.316500924031445,28.06645979725899,6.191353484267841,-3.0467471227356153,7.064383765426865,22.86645250158762,28.57751613384063,23.142685036072347,10.335801653513183,-10.040493885244718,-34.72038405380186,-56.31333795110196,-72.64324851784849,-90.27035422030536,-108.22214810593954,-99.5612111264473,-41.94302121928596,35.86310151132174,84.82803057779398,93.1871564030498,80.77689461740073,65.0826062894205,49.24655276973856,31.023374259998636,13.710498845638629,6.100506353530477,9.739586586118245,18.211679815940652,23.25420105770946,18.384286826322164,2.2807062492432304,-21.80750358201357,-46.83317327151792,-65.1969576584548,-80.39958976492716,-100.66519004361957,-108.27522987909187,-71.28970763045646,1.0044926596483998,60.938471657509645,84.35025569819415,81.63773009806717,68.90098580694966,53.977854245887094,36.20770685646884,15.871958791085483,1.8916547335159146,2.5955700392755157,14.022050450088006,21.566707946857246,16.219566732904195,0.7482945955516362,-20.208343161139588,-42.93860076542656,-59.84115209946236,-70.44144922445693,-86.6031436835556,-102.407979828702,-83.57650551539103,-18.074151985879052,53.58008044996463,87.84189983134128,85.52866806007876,71.78593324630836,59.5796804884794,46.69484208175791,29.9412914766257,14.612583436441135,9.475134951595425,14.027947607147217,19.58918301686861,18.289986951749988,6.708946719776756,-13.837555788071466,-38.1195317811493,-56.90536183907413,-66.99529775874194,-78.44006652709041,-97.19736673338738,-102.40757818470495,-64.6833997955912,4.120836735703254,60.2373365873603,83.1888793757703,82.81940690694142,73.69750186714074,60.77512966353317,41.57806523658967,19.10127498950229,7.414563706166944,12.275377622798935,23.20053280592447,28.073014140930205,22.723631858036086,7.666135650711789,-14.9081599069547,-39.56901596303139,-58.633727770427946,-72.21847833896322,-90.07794706520562,-110.58042777010385,-105.83996980247859,-52.90215240527092,24.25149633743278,77.95212983603231,92.03347424491743,82.41027605187472,68.85439907364506,55.86375621839798,36.570482723979005,14.689055750534875,5.6460122163988355,14.402123118395293,28.821604120024052,33.562503393232106,24.23105144164599,6.945533436643218,-12.679919319269409,-33.476976888279864,-54.22600965720996,-71.16080694420671,-86.05785167427354,-105.00470182622567,-116.31572801023233,-89.73790778496844,-20.088311334473325,51.228265611889945,87.68690569439997,91.00996511348328,78.49707054652868,61.636322617717,41.18242241343066,18.642379780023713,4.587739358262019,6.823076579605255,20.75461231660348,33.25101710858208,32.72511535373488,19.64591311125372,2.1041964397363224,-15.309516493103517,74.0,133.0,79.0
81.58503948454592,62.35329978165877,42.681907347253585,20.056956548339183,2.3133943409903974,2.426446786488822,19.423816626613874,37.59257386159512,43.11256493934525,34.353739181295985,16.87446806180628,-6.805631863409899,-33.718297171675665,-54.03682238722162,-62.491974553039384,-69.77812362959443,-89.24654482574218,-108.08868236013261,-88.12526447404242,-18.58737357167116,55.41200951871304,90.6281084901005,88.94436021451416,71.49514845157883,50.74166194132403,28.875666706120434,5.970452003470791,-8.484666432747977,-3.731035438318262,14.090260436421268,27.131224577458568,26.669122009954823,15.936298410373293,-1.9217689362999737,-23.429575903632387,-40.554057923954865,-51.562274073388146,-65.27930082606854,-89.10930839608652,-111.4965722217312,-97.73268539675752,-32.409201730370526,44.76924240783633,87.67963102617706,93.53254526239212,80.67682962163329,62.66941278879769,43.568193499466695,21.380011410731804,1.57059945208292,-1.8512860562858928,11.957735229607172,25.872811559255425,27.92316112538011,20.165818373530463,5.21885150138136,-17.04588568159485,-41.55526106824226,-61.399223359969696,-77.26084269795408,-96.12320320854398,-110.07721898564441,-87.75674822238946,-19.09380567278789,54.41539207513447,90.81635319309743,90.68983007020242,76.213034728993,60.620351376708065,44.26561179442341,25.539443303088174,10.223920459115886,6.202474033427493,12.047593576652757,20.378328424957324,23.035336303111666,14.807490490796171,-4.091644146616921,-29.346244475519544,-52.97984905187513,-69.37825597112545,-85.83562904594932,-105.76083276965142,-102.93676398607221,-52.12221604452517,21.522419432140655,71.39477791058616,85.44536996065531,78.44855567094079,64.72470099467337,49.263522512905524,30.343620370329678,10.673806543786547,0.4648287476628855,5.355791547938869,17.245746401443043,21.389738803557574,12.524932904266805,-4.864151652501766,-26.86683012229098,-48.748554164705595,-63.11537596350467,-74.12638197831306,-92.43333564293022,-102.05555867955408,-68.47086129529636,4.498093237604094,68.2062308512204,89.8606689772543,81.772262812086,68.02394679062841,56.170990091549655,42.20558097597153,24.918777270914678,11.86130176548708,10.114049718331072,15.94533904812233,20.166788642003066,16.018779483331933,1.5444640776845608,-20.82905720991586,-44.50832271443892,-60.468355123273284,-69.56995768386209,-83.43851943259742,-101.680575675181,-96.47766289406884,-46.14763464955067,23.306624253866264,70.20092734410788,84.71964109750101,80.65523311137316,70.39428945281938,55.99492900589838,34.904281387314384,14.01147470721438,7.3574480571949845,15.465973564241667,25.55906832143519,27.600623282999393,19.300412383887313,1.7689868366723438,-22.182758673929584,-45.88746108004543,-62.77987531863546,-76.53446780300999,-96.53870908971274,-113.38483736544856,-95.47311192270165,-30.85705490743167,43.74480968798136,85.7418122381727,90.67148233715696,78.31936134161037,65.31525549922968,51.130051229938246,29.886218943636468,10.162477218337658,6.6422035396664185,18.75660789111984,31.65819440484636,32.14883665180785,19.715643398200772,1.397826796637988,-18.561758627932445,-39.63251936138021,-59.625161895033315,-75.34122948655198,-91.0958235614807,-110.29136927583987,-113.70218996007263,-72.86696587344775,2.6435774758444444,65.89807065054325,91.32182452666159,88.30191346016319,73.8757907678189,56.19424950501091,34.54686795344459,13.167240528698596,3.5248079233472662,10.135118730807138,25.16427571952866,34.68680003387113,29.901849537751744,14.710293393145365,-2.9745615725060324,-20.3616434863907,-38.18191046064087,-53.7417376728326,-61.8667147796919,-64.03649082554077,-73.86301254070534,-95.85991226592718,-99.79405727985636,-53.51982558688041,23.15843877014298,81.37585101514276,101.08088642864999,92.9255109388589,72.92091905337406,50.738055380035874,30.328186135553654,16.489257400428343,13.372450153304735,22.24434821985031,38.551428890147974,47.66712868269204,40.766041968105405,25.14818348977863,9.204345983982563,-6.780208673028689,-23.092450718682237,-37.02210603346463,-47.11240218192308,-55.09830804158404,-62.462954364513,-69.22766439787618,-80.03058540308356,-100.41051461275836,-117.6560369697122,-97.579373364729,-27.026190828168534,55.541441294444176,102.49609905210671,104.05329185948877,81.66275493301819,58.176952183480445,39.376352462788674,20.05126380460398,6.053629939087925,9.48432176093126,27.754528152648696,47.14006371101421,54.3906981059606,43.83516588404927,21.918579830010017,-0.6382768532695329,-19.188265452611716,-33.291797564290626,-44.06068704722834,-54.23266151856434,-63.79440498701488,-70.44857270327964,-82.15481976844664,-104.97756969260911,-109.75694991170904,-58.28873718191374,29.84371903974445,95.86222526778984,74.0,133.0,79.0
-71.64757412368337,4.142262304458511,69.52503947425504,93.61774207415195,87.08071037135873,71.6495229136782,56.107176235292386,39.022798039924204,20.317636598150052,7.76304348157756,7.160107240301541,14.569849758258245,22.051552526884876,21.866538114068124,10.318680998454033,-11.02342081783909,-36.74625816024565,-58.409244127804236,-73.56825733259465,-91.8169145508703,-108.9844735430651,-93.1707472225382,-30.88139331108698,39.74795862690112,78.68351594012816,84.80809251714305,74.76365169013818,60.45693118218898,44.22501714257403,24.3497014001077,6.300051027311423,0.4016025160393574,8.754817143839418,19.742768439399516,20.05176961032532,8.139336112616197,-10.863565565870609,-33.55851086019627,-53.83775024061818,-66.0258286655793,-78.63635747952198,-97.72069751137099,-97.79276816210279,-49.712022909045515,26.15566706877899,78.95958127126848,89.34004345099297,77.68272444909084,64.49900711042436,52.56065457430004,37.36674939110956,20.250137490423135,10.143842352317161,11.419598234042127,17.706904533969844,20.01346105403304,12.856450591723922,-4.30179235623613,-27.963784061500586,-50.17598714961589,-63.36483806128758,-72.62028061836142,-89.03196525636697,-104.18947170910393,-86.38083903401159,-25.902010015867145,40.3329503413311,77.30566783650026,84.72619995683404,78.0501838552196,66.78665545145248,50.58051198664905,28.17379723196065,10.226342513095805,8.63318084956088,18.78911949581049,27.188077210637918,26.24670990687294,15.10084744101516,-4.695177047254753,-29.445020863253543,-51.55877131162905,-66.60051906776002,-81.51203899589035,-102.92931227904803,-113.1570120583975,-80.80617052305837,-7.945499878983654,60.202275270217314,90.28319402653993,87.89406832098265,74.31217851920593,61.72249083615915,45.681081887209835,23.2747190845024,7.115911357568303,9.044710658275402,23.162799583552992,33.359875222762376,29.60295811736005,14.73893486121839,-4.257820076394717,-24.551892362869637,-45.71747041877669,-64.60096491681747,-79.50864648438441,-96.60380550412573,-114.36300933443262,-107.10458935277921,-52.78147315289163,24.14552897153759,77.15013478516227,92.55391941116878,84.70793317828854,69.05846356032139,50.375883809843714,27.866401020860692,8.730577476231016,3.907297744062426,14.191370279766746,29.083865113288677,34.82373576462224,26.188637679054114,9.60791556602677,-7.997349317829835,-25.48262780018025,-43.15051460290026,-57.01263337687626,-62.689688992939466,-65.38400391690251,-79.63018318176864,-100.84080756567782,-91.8829807935732,-32.26695547829631,43.582890716543965,90.88671440179927,100.82264453693054,87.77504224805037,66.5157906269912,44.49431635155875,25.40725387781582,14.392373085116864,14.715245311283764,26.6975453072671,42.62880484338967,47.23389847079765,36.62772950245442,20.447339945363467,4.666596308983094,-11.544195376925071,-27.493554625974856,-40.30036592679544,-49.52351907077041,-57.29935984088496,-64.4085600836746,-71.57819820902951,-84.9639848499356,-107.02078055312889,-117.17780029194523,-81.55459246181096,-1.8770293130826368,74.05172584568955,106.99363420856024,98.82782738233726,74.34927927961245,52.47922619952088,33.93395904565576,14.80615688422489,5.020649495675834,13.75778017915424,33.90233410174484,50.935867511330706,53.11160547782443,38.144036235433035,15.125175552066734,-6.46331490821495,-23.70312555360172,-36.64494787203983,-46.948052471557666,-57.21349283823119,-65.93804232635237,-72.67698931715118,-88.08342098157095,-110.38479162628191,-101.2356812381895,-34.012773585423666,53.32414290091664,105.92454020495288,111.87571742673981,89.69451603776352,61.94337832010727,39.18545539016828,20.09431876924293,7.433252662294712,9.34981968625835,24.253146178484236,39.374976163415354,45.01364719295841,39.01859120562419,21.474276055842118,-2.5348911059205363,-23.265201471163742,-35.99749570262294,-45.71044217838022,-57.05349704574145,-66.6717832958647,-71.17021830281611,-78.34250462466025,-97.59515297363637,-112.19990525519222,-84.49458471106585,-8.301164341593603,70.90853197071748,111.26665919292475,111.3790949913858,89.6156241409027,61.70928970311692,34.898502671965446,12.182280504011022,0.1925458036422255,5.260654220015852,23.70786678441106,43.2810820349701,50.86455032435427,41.33500306230214,21.280865820792034,-0.030716754534708984,-19.809351506009047,-36.018297844190016,-47.518190463468706,-58.30821984065338,-67.67005600889034,-72.63599260667257,-80.87586471107804,-101.10121361147534,-115.75023660900769,-84.48507632473017,-2.3478886917276394,79.69717555480078,119.49296224961071,118.80351534155793,95.99308577838323,64.24844712281228,31.945741283151236,6.296519479542896,-5.56910673782675,-0.4923512763600628,17.060636859189554,36.01406817813344,45.58086461398036,74.0,133.0,79.0
-94.7299460356215,-103.79117621866068,-72.3271072619646,-5.219312276163265,54.63763019779465,81.84890469071101,83.61319063389801,75.13181732274698,62.784508848558126,44.54114950591406,21.79953838579013,7.943696544355339,10.952455548619827,21.90838492065508,27.993412991095294,24.028993990911147,10.170767817537794,-11.610555197040556,-36.46927044932712,-56.54816042363112,-70.39129344686037,-87.22616600655235,-108.51649646194545,-109.12770257013362,-62.39539354128668,14.450594392078461,73.18042646198117,92.02524240501207,84.24846104672478,70.52599589804841,57.827662709935645,39.56438067454102,17.19061664281379,5.722765507476785,12.534420277933563,27.19470998660143,33.79612962210429,26.106358141421644,9.453816394263892,-10.001693646561487,-30.643848166537133,-51.60916642231888,-69.16764251024622,-83.90042909000977,-102.37190617273575,-116.34882652413037,-96.2021597940084,-30.627467615234437,43.35594560762729,85.07630666020086,91.85487515648185,80.54340531216376,64.03703302810769,44.16376332022563,21.43345331386223,5.570688972224268,5.62876889886286,18.657277894544777,32.17904561603152,33.666681948663886,21.818947426679937,4.46557431701925,-12.998053105348948,-30.657721767026146,-47.808785417214686,-59.535727795407084,-63.16739018242139,-67.8254296005491,-86.26554087011979,-103.18975568425442,-79.28793253160053,-9.600393071431535,61.322322444771075,97.13351673347702,98.6578629157924,81.99542747674333,60.07419615091364,38.47223566573354,21.181913161040665,13.251751510807269,17.08318595974163,31.55905931357798,45.66419732993745,45.42214874464367,32.06736708629329,15.834641096890635,0.07295817117796138,-16.306613213971275,-31.610063653369387,-43.2586671924594,-51.82700182960896,-59.455079238111324,-66.30625338243345,-74.45757887444758,-90.79431417537714,-112.77452081625964,-112.61201834491543,-61.47511825024414,22.866724648849576,88.65987558467742,107.9096090637537,92.29243893893438,67.39470533674242,47.10136881012165,28.307838692711933,10.349610978025174,5.668557567930144,19.02544985948076,39.76988693112484,53.43066901063146,50.31024736743388,31.78542901496541,8.50593186468689,-11.91228355373417,-27.850528779622397,-39.76295890126072,-49.869972022986424,-60.072708489991456,-67.8032623544345,-75.69450441285706,-94.91077812574412,-113.10779535280099,-87.32619603116413,-7.942794170523697,73.53565775854064,111.90532702471116,107.27457734871467,81.45750543540439,54.81293201183269,33.36903475490071,15.399814792431545,6.260156557581107,12.785182736822408,29.19793030445332,42.166666269509506,44.49879503877105,35.05522817215491,14.794604102817862,-9.261061184964067,-27.68961038987506,-38.77853125717484,-48.83043144032094,-60.28443811332231,-68.40504466074206,-72.34972447297152,-82.7135856371292,-103.90845040776041,-109.91325253061132,-66.15448846503838,16.80059243096123,87.33813372805656,114.71919684935507,106.50073685647966,81.69883897766762,53.72357142357658,27.721405096689946,7.2244092186586855,-0.1595302772902174,9.6573207363031,29.880196238732736,47.16118609144598,49.76592996902703,36.140334618337725,15.003192526503742,-5.926428989976482,-25.016609462920055,-39.69382217232016,-50.56329198896777,-61.39384707506723,-69.4568130389194,-74.09226227666963,-85.55616087245863,-107.61401864936606,-112.9032456146038,-64.4201083022275,24.048100865940448,96.16720185374967,122.64497152755237,113.76581370117944,87.31256229158699,54.66382580365723,23.511406634282487,1.20060936625773,-5.81364768913707,3.7129591637782733,22.9347963023412,40.11160604175685,45.61945923449001,35.77277965637521,14.587982256840398,-9.42497445144248,-29.60880277063245,-44.041713048307024,-55.043571087359155,-64.49723742517341,-73.43069217481603,-86.76545474301962,-104.86137463148494,-106.47565395568543,-61.050835985677395,22.96984458050105,95.97778344996763,124.26856776786167,112.35554422323457,81.74902791120233,49.4336868095298,19.363938809706884,-5.72609160631479,-15.21617761283346,-5.453490856206555,13.85276558718511,30.406881827927613,35.44351009199515,25.876611485936674,6.226498094798242,-16.751012468595494,-39.79473800109762,-58.338557364759154,-68.22648507892717,-76.63079368509673,-93.80666193736042,-109.91671537229146,-90.45115074853109,-20.12974587027555,62.19216561020291,111.32817908285786,119.09741643828075,99.40554494894266,67.70669592086264,33.82006295460471,3.1908179904781604,-15.01298671361367,-12.319247638289871,6.883182776780793,28.727300865762913,39.736125824072694,33.44492602756509,12.69829906370628,-13.616556696326544,-36.96170186393518,-54.322619115740586,-67.51881723946842,-79.02292786540423,-94.69906904846492,-114.49290592970685,-109.79413806473548,-50.839017497877386,37.323881763456534,101.01284058597356,119.81240320833001,74.0,133.0,79.0
-18.02453282026045,-35.8272585738086,-52.0038643980234,-61.29470904364519,-63.672518748259414,-71.63022727986215,-93.00008135596528,-101.86346681647663,-62.462088228853055,13.069997776707169,75.83780029694397,100.43813611420482,95.00385875302891,75.83599139052266,53.66492413508898,32.79247915453383,17.767365856837444,13.100560435407116,20.41789173289316,36.42783269413954,47.37114874353081,42.44883070615157,27.336528229892316,11.290195562171137,-4.60011516099502,-20.98705248693839,-35.39473786861499,-45.94658131173429,-54.07357009307549,-61.535565823875324,-68.2623201206724,-78.07153370969213,-97.30004590996235,-116.72271951099874,-103.42319628032222,-38.35345176406102,45.853561389501266,99.09071624227484,105.83309405368585,85.07246062880584,60.96073511014612,41.82817620825059,22.621430658504902,7.075454999886503,7.939191733553432,24.92551400675234,45.01683271928464,54.4481434464528,46.1471793506792,25.064343892283816,2.1697654130496593,-16.980019149265267,-31.649386656189673,-42.72408482180194,-52.84827330779114,-62.692565805144525,-69.5780198840377,-79.82647608656241,-101.94213395680197,-111.90986762706385,-68.42771286434373,18.20965855201429,89.7914876798361,114.17658344101078,100.91443648571024,73.26475539168908,48.17782875891659,27.77100621396588,11.422813373706026,6.499387467323775,17.102956779794404,33.799305761828045,44.025851418911444,43.003667493830925,30.136907259528254,7.77668175770323,-15.458701807460464,-31.43438686416739,-41.508746715078,-52.1280526926739,-63.21170534752962,-69.68952241414225,-74.08945248353967,-88.23419365416328,-109.04989816836229,-103.12206243198078,-44.20582819879641,40.66709954004831,99.878176055209,115.1471968705184,100.28364921781547,73.57952436822161,45.91258933394825,20.96170693351376,3.3842842294475286,1.0077177697198243,14.96543667174873,35.79922231949844,49.74194499661195,47.23512803580884,30.328966830693275,8.803289232412462,-11.697591793439484,-29.828041117046308,-43.01335651862328,-53.67466877495785,-64.23487923180723,-70.85938997791095,-76.1468106654323,-91.36427841866436,-112.8463427534127,-105.16385087706173,-40.66680025537599,48.823263305378234,108.53498659539461,122.82639241166389,107.31562383262232,78.1363570744613,45.20315591355765,15.816642120458317,-2.583839949245641,-4.61895301776651,8.762816059100716,28.619550951407263,43.19763115929366,44.321115878844175,30.466678805457963,7.567824319955122,-15.829962474748916,-34.32472791146278,-47.43105677106308,-57.92737264171018,-66.99192203537918,-76.56798604143819,-91.9377585178626,-108.56243102679358,-98.93229322739552,-38.895976030359336,47.44771182884336,109.14937851060483,124.10428345319436,104.45465526481203,72.19167568033367,40.54464919539132,11.22140189274981,-10.527596625983731,-14.121853601211207,-0.27111331730644467,19.38809037537082,33.312706221887545,34.121375381224155,20.886384863743583,-0.2658352439362786,-23.522670624737575,-45.91505066851442,-62.021069160261504,-70.22111495140497,-80.55799200010642,-99.80515969138237,-109.55915328920157,-74.5446645028815,4.945522592825397,80.87664523999054,117.37898559169287,115.48174983095561,90.91233160979115,57.88072484225099,24.356046755032402,-3.8754346764120506,-16.464613927099172,-7.9449824800692745,13.60246884384398,33.47404388722279,39.7417599426524,28.605591176136272,5.225393744939161,-20.929108335448937,-42.55846030039729,-58.45948725618119,-70.85667791669123,-82.78549969010854,-100.63756408116457,-117.54514074686199,-98.47629756131785,-25.854193020298606,60.03720722107884,110.85348467118195,118.33994234511265,98.53626679805703,67.95626063778525,37.627601590781325,12.099552721310761,-3.3196637668422446,-1.0543285213063418,15.633204423333215,32.18581718768226,34.58582370028991,21.88229492942078,1.9088466809463005,-20.329117831409743,-41.511321640271895,-58.22115560562391,-70.1387294592601,-82.58524132447495,-101.03480436650725,-112.34344875099151,-84.17544932464452,-11.626164549299592,63.82474243457813,106.93359023591,114.81650363339119,97.3026992040305,67.0608976607866,37.01835884357518,15.083254522197514,3.4533569187171453,5.241950090405055,20.535209221593263,37.194446445393254,40.00618316540338,26.545023976871555,4.649615508913659,-18.0084362681471,-39.558421651506855,-59.840397661052044,-75.10334878013126,-87.80563906805341,-106.04640836997594,-117.9651354799244,-91.66566693582396,-24.136347865998996,45.00406533485995,87.69970757825232,100.37495309984232,80.05074304037691,40.8395892365681,19.08834614354305,26.411286777959653,40.73541440554519,45.32907967484972,39.99946419749738,25.974141026445846,3.652967772540874,-21.99196366523396,-45.572033089555255,-63.50035745770179,-74.49001408719427,-85.58970213028229,-105.52435750107814,-118.09357382559217,74.0,133.0,79.0
101.80852722591708,113.23582482043781,93.39541082627957,65.40655377483351,41.94977546180827,22.43355765983011,8.42150476425152,8.147446054855601,21.946700943226425,37.79299317546468,44.924543770777454,40.50898954233848,24.372099894583403,0.6851792701566017,-20.974159676454605,-34.64484338915505,-44.34224708802256,-55.50705675441809,-65.69787376389898,-70.71094122033372,-76.73997698730373,-94.56620371631567,-111.93123149097697,-91.47793423999263,-19.899283566257683,62.099335943353815,108.52823610115806,113.05343145418868,93.13083480754285,65.43732580126225,38.31523445538604,14.781177601050818,0.8658371349066255,3.6156603924002155,20.874420194059095,41.11984792214083,50.86155341442227,43.443747652440265,24.171605249509003,2.727585940752022,-17.302774057391503,-34.175202861931,-46.11780026396549,-56.84696233548491,-66.691259873091,-72.0679702479969,-79.12463174770956,-97.96081409157638,-115.62292571693403,-92.19031206088377,-14.654366843186779,70.77083384869556,116.89943964469147,120.54883500788443,99.7675451178793,68.66454192260362,36.030147940702165,9.05227588519326,-4.962229127181194,-2.0765476442114426,14.3711126988739,33.83631140517568,45.1190665309172,41.71706899004238,24.38867870825858,0.5312759708300895,-21.794391668481325,-38.56238454694731,-50.62336011677119,-60.68877600432153,-69.48936715224691,-80.24607931786782,-97.40249802563916,-110.08541290214256,-86.79020997027513,-14.335286345640993,69.61687319412714,118.17867242651317,120.9981337560602,95.56778403505653,62.78259438572793,31.811800644963398,3.6503240288158496,-13.714991582715548,-11.492231233018874,5.384141319347786,24.418651633989718,35.083652365557384,31.56956878680487,15.244289255207228,-6.905606705663663,-30.25191434621515,-51.49307038803806,-64.94039902219512,-72.40835317499018,-85.41306653875091,-105.17764502043842,-105.19883945067454,-54.52260480992666,29.585815773033843,95.9879360221076,120.14812292962732,109.99035075469988,81.75972413195335,48.035557418907864,15.28110867019652,-9.601590861772644,-16.049200831736382,-2.4415278419647994,20.15918113716321,37.03193541273295,38.23005754078694,22.71600205964311,-2.463008646158404,-27.818724308994575,-47.65211831284588,-62.31345722813801,-74.10936839034414,-87.11447239738395,-106.75519349033551,-117.48799018428737,-82.1981219084054,0.27358209924474347,79.49080664664075,116.92654984004332,114.60797610695255,90.19741764139236,58.86471566795606,29.636336759306158,6.211329398090848,-4.6283073197172575,2.792607867123708,21.192198116483674,34.676765799081366,32.15135953693809,16.54763313225448,-4.416281190885038,-26.729068817028402,-46.89963303728255,-62.03852979156262,-73.31685395193253,-87.34430596635305,-106.35487570982727,-109.49440540904044,-66.5267852629672,12.077097384648454,80.21451062540415,112.46978066506774,111.84991395385325,89.26549747145604,57.87263855331861,29.68967867084265,10.589519442442858,2.411585288375671,8.567258533203486,26.000277933690615,39.83616857494938,37.5374427751164,20.668114153035443,-2.021639783368657,-24.301768495112036,-45.67338571258541,-64.89791742321881,-78.61001271283459,-92.42663385162656,-111.47100279568856,-115.45176709238217,-75.08745049532479,-2.4051629405578545,60.398033468256365,94.5513712368476,97.88330657235403,69.17583607313314,31.36680898110538,18.872198264514342,30.95549028754126,43.270373464775886,44.66590752925909,36.88907137220104,20.232386166295306,-3.693788620210083,-29.19651044175154,-51.469707807440805,-67.283430956833,-77.13542272822899,-90.46602677508294,-111.52550747090847,-114.78338782107872,-68.9466832859094,7.3887346841917605,67.9364402232193,95.63515521023002,97.48455547617206,84.85091399661486,68.75892871998386,51.540553620854716,32.26031787742888,21.326555407824387,27.462516536429664,44.06854596140878,56.45776303422378,55.72493001774137,44.03027798224923,26.806933324386105,6.440622602711233,-16.30009464253406,-39.19169968776363,-58.09300864068762,-71.84680595779925,-81.66708041255495,-87.47242946201148,-93.62006435696546,-108.65787102172288,-124.93551466292944,-110.91926844238365,-50.0714896462223,27.288006209971407,79.50068738307802,94.14413979475924,84.5731395646409,70.21061267586134,57.21178188049172,40.38879907149579,25.268535807898854,25.68454612045346,41.882234321782505,59.234143561330555,64.77427965577913,56.05339589953103,36.19003247833172,12.457609621276482,-8.255146701764522,-26.615556961637772,-44.003462565761616,-57.32351180886776,-66.98224407259185,-75.93050315977071,-85.2944847243199,-100.23824211607752,-119.75215356094917,-118.03811710457246,-67.07339662870297,13.805124610729843,75.41528031789802,97.39022783155173,93.90203803852611,83.49224758790338,71.29814756259431,53.096302069661874,32.238108230994406,74.0,133.0,79.0
