-20.513001214013055,-1929.0915260833385,-2468.1229968327425,-2096.637749937235,-1791.057791623186,-1722.2439936805877,-1643.756340648979,-1477.399372369667,-1286.110339185859,-1107.3556955724973,-942.7250671426766,-793.0252545302682,-660.9393363656668,-543.1371080399467,-435.6395709081572,-336.46248185095016,-245.01388638537586,-161.67647686924678,-85.74480965643616,-14.29791171578477,56.690292839352935,124.59573164931487,180.53041543343664,222.58833972380188,256.182790606145,282.73415838913417,300.32994029010854,312.56508658901987,323.3145740195332,329.8131919712397,327.6992053639617,315.5944140761714,297.35488632276343,277.59419796469064,260.0619579416716,254.00656520779324,267.34137646719154,290.9719140106022,304.1835065029949,297.1408838045126,276.1665513558295,251.18665983911362,224.75438952010728,193.69601360047488,160.09069595941978,130.15662460505473,105.71526371913711,85.34054208311942,68.77108829870087,52.60085960132494,30.495779794375615,3.2210140416243696,-23.282418552004657,-46.87937133354353,-68.02872139926461,-87.73442636656917,-107.0158372604906,-124.34127521761152,-138.20508616972216,-150.95171164667397,-166.2040902100666,-182.77748122776282,-189.3536517943024,-170.3940521957281,-129.2335448087204,-90.14976781971616,-68.49403351090045,-58.70167919996327,-52.144467705663665,-48.37093537817954,-48.38970708873513,-49.97971538158859,-49.40643326116483,-45.6736179300763,-40.61853069172427,-33.84441500694391,-23.730005447386183,-13.537662993567361,-7.996147798585292,-7.3596936082655935,-9.05200931092542,-12.448381255009389,-17.565609052500974,-22.63253419733628,-27.97590994515398,-33.764743103122036,-35.841497335010324,-34.77535674374591,-40.130948361747265,-51.37242813378455,-48.12993165586433,-18.03292532720078,25.17421028508076,61.79658461082386,82.79697695169617,89.19615165917465,86.24865533131789,79.64814986936467,72.64619254951393,64.88281241980548,57.767506700760066,54.771519919218505,54.71064634491231,54.13965589824099,53.78905367353206,53.96057148981141,49.21901439476304,37.227367094269724,22.997354440568458,10.398096028760555,-1.2017183739518735,-12.875341537762738,-24.330543712717862,-34.642277598198284,-43.95949176102909,-55.55632500846151,-72.173518449066,-82.00512799934857,-65.15203626604922,-23.13572339180972,18.234121931751098,39.27172526996522,40.62105505762475,35.65906723589192,34.02816787984551,32.759368537898844,27.201269618180056,20.210524740395687,16.878728182530057,16.011887303659677,13.917510277815673,12.527868335889835,13.607019068383394,12.581077492958787,4.250817867825108,-7.38638529425412,-15.790961508939443,-23.56687674170457,-35.86569496986222,-50.06330167630614,-60.944766518597774,-69.30370004375987,-81.98715285886124,-100.91911259662308,-108.5211159242615,-80.52349091142864,-24.522209807230418,23.49123517604253,45.77659844810351,53.02651778555796,57.37961708979627,59.68887867743928,57.88708996153893,53.010417821641504,46.677479846829286,41.49226278639471,39.900080642039185,41.62262387294689,43.992613781265455,43.30498189080014,37.24458579598145,26.66034766518576,13.319337165143654,0.43170117865414426,-10.461928012130075,-21.910327169756734,-35.11482652046537,-49.07386695049945,-62.82670132655743,-75.7400551291924,-89.13798125578653,-102.55699798411993,-103.20962689393038,-74.602110446542,-22.98322978272579,24.75830228344577,49.49748311467883,55.139985254303134,55.80575360490848,55.58022894591672,51.636904652408575,44.60489441986058,37.9642424652467,36.01537329555417,39.556376059027706,43.66341289708426,45.0880854802291,44.06285498008274,38.648618071337864,27.892200481849564,15.354529822730536,2.5760647660521983,-10.46044247465143,-22.73337635564912,-34.827791326330754,-47.556553443005654,-59.57358486990726,-69.32576295680069,-79.89060437316346,-95.24082715413265,-106.70000389606297,-92.09931348757786,-45.860840626204876,6.125404867458368,40.81299093296757,58.52016815919426,64.0700694055714,59.38647323372367,51.58657178789711,47.17113824507612,42.98553860568192,36.261536656982315,34.29436474874187,40.813663739160475,46.723192299241475,44.546020076907304,38.39011601993548,32.058336110421635,22.733913734870693,10.145074012153373,-1.7541777491488697,-12.921422667039494,-26.50151918984823,-41.99559061495079,-56.10400542122484,-68.46665501260124,-83.03471007260481,-101.93424298565601,-116.34428893815632,-106.8058634414237,-65.13655282588009,-11.265858765950806,28.66637561652376,47.4872342428055,53.610139585131705,56.87706093135347,59.780252820103854,58.52301583452367,50.93714865831363,42.128140549891754,38.52793165360478,39.62889922658009,40.80339020933622,40.40391908865034,39.370680314826636,36.58891489893518,29.429687871704413,17.868985798614084,4.148586313093078,-8.269298041641555,65.0,110.0,65.0
-186.90497977674605,-159.89555286150537,-116.62156367189793,-82.0419019840332,-64.9643659702921,-56.62329599245763,-50.677050097978984,-48.020508058395556,-48.8604955654656,-50.16191581138493,-48.5892334817801,-44.28287637666344,-38.95554671178864,-31.227361446585498,-20.541561954926312,-11.343857215126324,-7.416541014202267,-7.699338908069141,-9.819176564369783,-13.819343718808147,-19.087265848597614,-24.065182214356316,-29.733042417213213,-34.92705030891016,-35.523555283222564,-35.26389848215136,-43.42309206977388,-52.94927527251581,-42.00187779104003,-5.9021446643466735,37.06826518786,69.56527522781062,85.94767167788628,89.0429185212785,84.49413410046607,77.64031621923976,70.5075145134008,62.586559537003104,56.403827956224575,54.64639822426085,54.652909209232554,53.90413176915956,53.94461331605493,53.365950577965684,46.36240330082168,33.07576441595336,19.161239147712383,7.014620656967587,-4.553309774225532,-16.252717159429245,-27.452714103633053,-37.373724749458034,-46.83346384885647,-59.99403770427182,-76.67460310299283,-80.43901479422745,-54.69531260364296,-9.876442149098864,26.7343628330262,41.21789194325348,39.179495255005854,34.77665380647827,33.93606466400713,31.610750727740097,25.054800183129665,18.768879268734214,16.59866548637899,15.55789402847797,13.267008884821413,12.672071300346094,13.847564954872613,10.95677935846781,0.8366826726099098,-10.224906408180217,-17.788251147782777,-26.609779299935987,-40.05406974007494,-53.66318356837516,-63.3856167517881,-72.19434347707397,-87.15845687321533,-105.55239286519685,-104.61959387341383,-65.78590614277016,-8.357797043995548,32.43454769079337,48.68531999630997,54.35383977870866,58.402042490364984,59.58431284459861,56.7233006849747,51.24362417119452,44.920132423351305,40.614958319967215,40.14430784349397,42.393641824882515,44.2723399078777,42.11225794165843,34.57911884594009,22.984474399975326,9.386956483755538,-2.8478998474006167,-13.592974754077629,-25.574689052525713,-39.11958277193899,-53.107840371874104,-66.63921099945992,-79.45187434723013,-93.28742433932473,-104.95113009768903,-98.26983921254417,-61.026675461662016,-7.565193600808101,34.52843423519869,52.435556562964166,55.39030999019138,55.96059327057378,54.88409073187194,49.79652765744879,42.45770847339887,36.75711292554469,36.62587868228952,40.930611922039105,44.354970882426976,45.062748856099745,43.087911396228414,35.97807122478755,24.295543998653713,11.714973881971968,-1.213687874757017,-14.097424786558918,-26.18662831608315,-38.44925825507026,-51.2161173311563,-62.59684184388767,-72.03596648703747,-83.859964995146,-99.82731842230432,-106.05894039794357,-81.2773800263444,-29.976068276660236,18.263328737824505,47.353112024491836,61.31478846765696,63.57856483364298,57.025078380966114,49.927811900457506,46.22839713371092,41.1350766042805,34.7930479016443,35.51883973486193,43.127183247605934,46.91477619943159,42.86531508220492,36.62995856403464,29.81677812868848,19.269697454452448,6.505884777593819,-4.904476711128514,-16.520981311231818,-30.920766541735123,-46.33074367925494,-59.73454557400977,-72.23858769910184,-88.16653527467805,-107.32076521111233,-116.89033681908596,-97.67649183889867,-49.467667251433596,2.449246728108462,36.068877522830086,50.044339521019864,54.56662498999165,57.85626007352512,60.05320016720015,56.88830285718199,48.164391924817494,40.412175741069305,38.57201923018363,40.11808076220743,40.816621673270156,40.15112399722851,38.87952471772515,35.03067918487555,26.479475326842937,13.971034272117667,0.325749395589337,-11.55543821032366,-23.848372152213624,-38.3037519820616,-52.33410158695931,-64.30824823896704,-74.26804746401217,-83.4902306482901,-94.91735735098516,-107.12748967533828,-105.75702947841671,-74.00805167995482,-18.97366780224581,31.632807771489233,59.21078810211098,65.45989441763237,62.21550529310306,60.63763405338927,64.25421565735122,66.0458582552511,59.548029724651634,49.85789352855412,45.20048778006228,46.985685757008,50.55924857377763,51.779342302063185,48.86014588618453,40.92658282673035,28.26878757252383,13.333779799765388,-0.6324094383371912,-12.741181017446513,-24.655114127858088,-37.3319470294372,-49.74370984837534,-62.80676973513908,-76.18916358096696,-85.52113186648653,-92.90360170563748,-108.43593741892366,-124.45528289353845,-110.09915300957618,-55.58841440751789,7.266554865234746,45.32086529752321,56.8802505473719,56.918677713567206,55.029229516987016,52.085391362152514,46.48581349602795,40.051339432005996,36.46899460200618,37.13875050883537,40.38976986233415,44.326297782358694,46.92639279109254,45.90062315004872,39.606231669051304,28.05046686248071,13.885293543471649,2.2658518970009323,-6.916144252461589,-18.32730922154928,-30.72253461941852,65.0,110.0,65.0
33.69334383291112,30.05004287081353,22.935151723021207,17.733118224693204,16.405219382441288,14.94793738181144,12.785040670414041,13.011613864896926,13.735448978272245,8.641999029029627,-2.637081517803668,-12.691477729295697,-19.905264412257093,-30.106254456138156,-44.24876984626186,-56.886652428157866,-65.71229078018418,-75.65905062504164,-92.78203107935839,-108.56628058351149,-97.2435255912443,-49.36911451373616,6.179753286004576,39.173254593815585,50.768787202659745,55.62756003179181,59.17158396943637,59.12178295942449,55.344655101846946,49.39381917603939,43.339347387392785,40.07980903846841,40.62721318119232,43.14014528281214,44.19687944247701,40.45016855414616,31.57767402276819,19.121387928093384,5.5971463568578494,-5.978515035857175,-16.852328731172417,-29.37771515541031,-43.15737224475936,-57.10421876312563,-70.36874071103291,-83.27440089331809,-97.3676592123092,-105.80044231235004,-90.56333106112105,-46.00290303382764,6.78957099930644,42.11056480046219,54.10724179123598,55.549422665201895,55.989043684885175,53.817146289895774,47.75888021047929,40.439816677242106,36.05398164925538,37.64340760131894,42.19620114118799,44.803019675182576,44.845277817528164,41.6570781182132,32.89526380717879,20.660979531317256,8.040010478319228,-5.004808788530423,-17.650310831510136,-29.659815672008175,-42.1327491400748,-54.75238516279351,-65.41594249210259,-74.95293587708716,-88.29291023556408,-103.68604623615178,-102.62433991161437,-68.03326911535137,-14.477461222919418,28.643033405190423,52.6671727073015,63.139860520854484,62.29567494453737,54.651735362062674,48.63195226486292,45.127064293952415,39.0999479865083,33.98911399138568,37.40789904319783,45.060883902134556,46.369992802388914,41.045500429327724,34.86488918212982,27.21622339985189,15.602373248391006,3.02840937362667,-8.066041010643952,-20.390277465758796,-35.435030071907704,-50.464202610329764,-63.26407938333112,-76.32390754465422,-93.65836992205827,-111.97401528022606,-114.8947637485705,-85.91819205505688,-33.529886105764376,14.477370402268836,41.75803146874137,51.83099896297135,55.48219207293046,58.775719938802474,59.84867395901033,54.73245210822131,45.48542574682568,39.25307006760947,38.905903090441136,40.50587175162602,40.70520871529719,39.87311271240411,38.17542480561116,33.05471995845904,23.189045617321494,9.967421007271852,-3.300025496244957,-14.881561133263364,-27.88270436991771,-42.518294048681106,-56.023019662836546,-67.36933384404821,-76.89636357451216,-86.45046201972998,-98.72678908584847,-109.05809733729131,-100.00691777710385,-59.416705844770625,-2.679338754201243,42.22430431224483,62.760514715048224,64.92684417256505,61.23146754963006,61.288038552746556,65.41842574886488,65.00323777818606,56.6504880785013,47.764027324800416,45.20688776662486,48.06579731096576,51.26948822745899,51.403198631268836,47.109288243663535,37.68695876453096,24.030731216776164,9.097639086154224,-4.282278485580148,-16.105408658804308,-28.2807040265799,-40.95875989200396,-53.3717369879639,-66.80299020315245,-79.45415344545543,-87.41614959401605,-96.28940250607717,-114.19184569431762,-124.71314591175677,-97.66964189925689,-36.374969389528836,21.502944386333393,50.77355870423328,57.45772344492985,56.403881452779196,54.382405689744,50.74227520490957,44.542624398983534,38.591013249231885,36.26343778626632,37.910034450525394,41.531513254128555,45.3200604600831,47.09493391097714,44.661406423090064,36.755013003399,24.010895394867063,10.089324129926947,-0.4053092008800051,-9.895103696587713,-21.994018148477853,-34.023189156525234,-44.74357930697029,-55.01748644316637,-65.30502218980878,-79.57012033301584,-99.58035729418184,-109.71883792608054,-85.59537208840882,-29.317917565992396,29.818214523442084,68.40314723897168,80.94320852279192,74.59926005560258,63.01738289103025,55.60647660366357,51.55513119293361,45.94334027459237,39.813795359958604,37.858268193803966,40.93074264306246,45.50373437011007,46.41462786425553,40.27072524359478,29.63355340344139,19.182566768785236,6.626926966632237,-10.760901310164076,-28.324539319760714,-42.60543918500449,-56.6959468072235,-74.28591887364031,-92.16252044207818,-108.62266008711082,-127.08559798422166,-137.19748563316728,-114.81931011216295,-57.11711795191022,5.523563626441167,44.998121267804756,60.335401326873374,62.57255447681482,59.374538961789696,56.37900594243607,52.98866543501626,45.62727699876546,37.89255494299369,35.70977026123152,39.73833850715204,47.06345443148895,52.56413924118313,51.48823994424318,43.7819839696777,31.396655305702314,15.156214447566686,-1.4982811484618197,-14.29853555210013,-26.016523505431437,-41.0483736109392,-57.17513689841434,-71.70029243991091,-86.26981134634981,-103.62605601619414,-119.13406773008293,65.0,110.0,65.0
44.38173318568785,39.71711115873839,29.515715929936146,17.028079825174014,4.312179808127148,-8.754971248912444,-21.138333874946674,-33.18196873208207,-45.84748023036522,-58.102936883773374,-68.10172637553265,-78.22787995662573,-93.03230612414879,-106.18678560136156,-96.12830226107286,-53.08899800805971,-0.03938144104428409,37.3310976979686,56.90428036329931,63.99559240799212,60.40225150422115,52.479127316675154,47.60073956221105,43.737990623208795,37.09883913044915,34.00070340541032,39.704667349868956,46.37096065422971,45.224875470733004,39.21717561736146,32.99168551642703,24.231380902634378,11.860580919957588,-0.2770872653274941,-11.344777982543881,-24.520893357037878,-39.944972474030465,-54.37317801805501,-66.79999555039608,-80.81463855702178,-99.33265568017396,-115.362796319889,-110.04163303834503,-72.05170381199603,-18.062194188727226,24.629941888137814,45.96802803498515,53.11888992303581,56.427797649239295,59.5262339150669,59.07941910550559,52.19022319267684,43.09140907000087,38.64291942640469,39.39014635215268,40.74645671523732,40.510660941729085,39.54887558158085,37.17243706347346,30.664939514006186,19.60441793873048,5.964508937856012,-6.734201441835687,-18.359545914819446,-32.075463009761485,-46.62080794857656,-59.52375147016896,-70.2706296579272,-79.51171719397878,-89.68412019087789,-102.48153208685511,-109.34886768380781,-91.4002563271268,-43.38604966175272,12.497221080401266,50.65201681510551,64.74026665502763,63.92479556618794,60.62273179200249,62.35484456721756,66.15979602015344,63.207915441792856,53.720302011028565,46.258596013685576,45.69385741891942,49.15781615335187,51.70788773644648,50.65842577115582,44.917204713682054,34.07951291794019,19.68495044763607,5.013913783863763,-7.786381979389637,-19.51592041809478,-31.958775058629,-44.53672656386048,-57.1118168984109,-70.76351242901211,-82.24818218577609,-89.33970711851669,-100.62724014335022,-119.47020969388879,-121.5633937415861,-82.10834327280389,-17.562855961446513,33.10558566298246,54.2999432783009,57.45692790629423,55.859953030081336,53.59987627887212,49.152100616245725,42.61837294112571,37.4557252361545,36.40791789081907,38.83885856403604,42.6932957061101,46.144723752056535,46.907304222558864,42.95210018369582,33.481571678271834,19.852459440947708,6.645903030899802,-2.982390086623024,-13.156645233617382,-25.629990618184618,-37.19944240034963,-47.75799369924033,-57.901920353949016,-68.76277376762589,-85.02809671649248,-104.72378628705842,-106.92758840942864,-71.5798602573199,-11.142963599204755,43.62045046843998,74.58222369879022,80.49292816698227,71.19785479527094,60.297902902098734,54.33453319920487,50.206705808587344,44.00026682554807,38.6814278025433,38.32087140777968,42.32252530488293,46.36164637460096,45.39054303571737,37.386248365711985,26.544752483090424,16.01344742946617,2.005122710772471,-16.09259656862047,-32.76019423212219,-46.44967494184077,-61.42919330109415,-79.65868381050083,-96.89762517339717,-113.76934691334674,-131.90200736166616,-134.92515536274112,-100.87324291657472,-37.8544333890034,19.848807201822996,51.423654915883205,61.91499666934229,61.92155621396423,58.3457241514516,55.65804898489869,51.27425517174643,43.1069562270358,36.55571090533632,36.323571078049355,41.700671817231886,49.10670597330488,53.03153024039252,49.83700437291881,40.64516102973047,27.03136936019,10.13737609498897,-5.634508977994,-17.507816118243095,-30.002427623763943,-45.78748092066951,-61.53945127644894,-75.75218566293499,-90.96654171595966,-108.8776495894033,-120.72794259441383,-103.66521197296453,-47.696271165630975,19.735129585026737,62.017296939963394,73.19636156660071,71.88023151333519,69.61113880865062,65.74373243987976,59.296761472384105,51.77537782072752,45.83142045792841,44.18188605568507,45.84591734984255,47.432459553027535,47.35746369431654,44.49925050198207,37.07699179983844,23.56729487182252,8.133771807522088,-5.058496684824461,-17.058071061717236,-29.10912343503939,-42.41831229016753,-59.399905075547956,-78.0486782697211,-93.07780060528097,-105.43779162516842,-120.43130376164197,-127.7784111525227,-101.44077761312523,-38.94876269146249,25.583707351941758,60.11480849408634,66.18336047095175,61.11470794108008,55.38807565209279,49.89812414456467,41.249648799632766,30.068649857092918,22.687829646172183,24.276470776273822,33.602491396003,40.91461050545028,36.91914965646677,26.66489810679312,21.137925124515473,17.657275179179422,7.817895825488493,-7.374042375345497,-22.216454950709196,-35.96289678430595,-51.06308775925987,-63.97779942559152,-72.37188158276267,-83.56470982149004,-100.04244502412128,-102.74466955299697,-67.76922207019378,-4.329615624088028,49.69973317736097,71.98634750319756,72.12594637810157,65.0,110.0,65.0
-10.042893819854424,-22.06090597607717,-36.33889748989138,-50.57115857820491,-62.83960361480241,-73.03251741000956,-82.20018462705228,-93.20818850114844,-105.83728913698617,-107.47370467729917,-80.06062578960598,-26.683112969607777,26.040133287361652,56.96801990853148,65.46137531802742,62.74567875584484,60.50947187593346,63.64921589509505,66.25742465139736,60.803804798824494,50.99172182248552,45.38990998891223,46.525824312402705,50.1555719007077,51.83407428091796,49.52248730275467,42.284431510966485,30.160743469099387,15.3249603637305,1.107598716062544,-11.189877191487966,-23.01144228413119,-35.64306978492878,-48.09530520539367,-60.98349209061536,-74.54650144437635,-84.57617491338435,-91.6309616221318,-105.83219216171096,-123.37600167733642,-114.60707273085714,-64.28153279027191,-0.11049154388615201,42.046859765210556,56.33117920424943,57.12925499601718,55.300019929773505,52.61828363727945,47.35980654625465,40.815291941624565,36.69127095819015,36.85070498043016,39.881278108513726,43.8276212166685,46.742480524002666,46.31813948647207,40.76944605618577,29.836158907279113,15.72978647439533,3.573227590206824,-5.6313468154830515,-16.6582603805745,-29.15025989039196,-40.29452897451807,-50.74029864954054,-60.80705491143506,-72.70715216664992,-90.92864474735106,-108.42371423273897,-100.7336841858843,-55.339147327881804,6.441554350123276,55.32503264092949,78.59976715959007,78.74204253505478,67.7173875398578,58.06262149113175,53.22258869448696,48.62205974480412,42.12779403941734,37.99920332665488,39.17323791821983,43.72113461143854,46.78526864411685,43.72585999289963,34.27143952173065,23.54816704039774,12.524146922501746,-3.015497018133497,-21.26546819836467,-36.90267639364886,-50.41535454520239,-66.49853787523655,-84.89883569044166,-101.57193061348174,-119.17312256141788,-135.5241799282665,-129.31903711466026,-84.3006767658678,-19.156380967232277,31.790933179997705,56.073176441632945,62.65724311166337,60.96835794992052,57.45749272703053,54.79163064137132,49.17476331028848,40.73374542050403,35.789350086534064,37.41838324386326,43.8498064957829,50.84728485807914,52.864179090497124,47.687095889120215,37.14907353455604,22.36070822750376,5.21746891911779,-9.375676368286092,-20.789276708649563,-34.316810817320935,-50.5021141076712,-65.74490020544641,-79.8883331547642,-95.95485410569343,-113.74953304042236,-119.83132092261968,-90.94528019909191,-27.50638619914254,35.55353183320613,67.78253530939634,73.26582216441948,71.23345380988776,68.76324526987128,64.1092479202025,57.13611595160898,49.75240873714776,44.85752320936929,44.48343152478394,46.41663087120581,47.62506009260704,46.87347589474529,42.93968325088796,33.743060494088404,19.01229749344241,4.077011784915046,-8.564249364929346,-20.508934792290994,-32.71879893923305,-46.89454628452641,-64.87496257091958,-82.90006580831992,-96.65081068164768,-109.46079414871005,-124.45387423298301,-124.54026659567997,-86.08916727925839,-18.60901406412099,39.22094984954723,64.03413985513727,65.19474005117789,59.33680355081879,53.91129657951861,47.84204462329762,38.054774888852386,27.23949271169704,22.121561682858008,26.461753535450768,36.490623242135094,41.022451278196584,34.014271662170266,24.36983242649566,20.391920263603875,15.61874624580538,3.7225296106279004,-11.885590464721579,-26.147127883035047,-40.21113899839473,-55.285038234443235,-66.69595870946215,-74.89924313534684,-88.19248861031346,-103.54499224290205,-96.96872249853877,-50.87109232300175,13.868927271757949,59.48182370407961,73.35705030607771,71.02634964005479,68.93554941167066,67.85785147297915,63.455423655812965,57.08565412755496,51.52116459266429,46.700930667022874,44.298702426257314,47.37314874409578,51.00789922880902,46.19200711432679,33.56996791946923,19.94164926677685,6.712444968412601,-9.169754678087553,-24.99715722176611,-36.32301560398936,-47.50183872989401,-62.1938819970054,-76.58429766551946,-92.5870913506986,-115.98749401683045,-133.93284668169792,-117.24383593239855,-62.377313272617236,-2.16150004344851,35.113567888829905,49.18687793097754,54.680033167141225,59.55801364145128,59.97611810580646,54.32479967127198,47.07312409380931,41.89936820317073,40.4631840295157,41.6652650322846,40.46014927129662,35.955616981859585,33.52031696401921,32.05942959012222,22.66062256702619,4.329710183815953,-12.850023774277178,-25.17700215766737,-38.8035150109305,-55.722069468140255,-70.58662083577858,-79.67541188071647,-88.2579431635204,-102.82415371258026,-109.9105263879831,-84.9304626869887,-29.652981443261865,24.768820618297383,55.84059276812957,65.61023762127179,64.60505495009411,60.26125691002943,57.84343847964434,57.35722086758582,54.41975568127976,49.17223754933635,45.56584173709499,65.0,110.0,65.0
-32.51920681188687,-43.345747342802945,-53.678389308828486,-63.832294640029474,-77.25578721182036,-96.92399713624677,-109.94074375233059,-91.1138781794874,-37.69068669734083,22.813419453941925,64.79899807011,80.62073061340429,76.05261824622833,64.4210142658258,56.29033740399777,52.10880584844988,46.82295799009593,40.470348314980235,37.79393960995538,40.327096653790335,44.99480182773278,46.67080547062977,41.47542902667209,31.088734060053135,20.57712613372926,8.599205750548078,-8.291225256529959,-26.17014853610302,-40.83280718565288,-54.636779350004545,-71.80245118050705,-89.92239524698815,-106.34668662967368,-124.64216273360356,-137.24143033602618,-120.19016223974326,-65.92929169691426,-1.829770087668077,41.34994463983188,59.269259566216775,62.72685872599266,59.87929787160372,56.70241292274462,53.64242599863463,46.784922703559154,38.68647648834021,35.60479562657915,38.925933424071324,46.06158581534162,52.145950944946435,52.06208038569855,45.104451747605985,33.29410050781269,17.46150929799971,0.5421607366981903,-12.794264567013451,-24.295369202623977,-38.885988771970865,-55.10537214051279,-69.83498089945448,-84.20042887204578,-101.17777829995883,-117.75032691175207,-115.83876765018063,-75.06301433644175,-7.387172804840346,48.5188230256266,71.21510392736023,72.82410205079381,70.60800078279287,67.70984086330313,62.269402968441824,54.9352939433571,47.93736595232739,44.29872758182547,44.9808143278639,46.909836022102176,47.65712435976034,46.12904253643332,40.938900565448016,29.88798232655499,14.473408934138234,0.24315778939777433,-12.024808511328558,-23.976578407622682,-36.47934966411211,-51.74216509832752,-70.35942329926334,-87.33135813952752,-100.124804238347,-113.83310105300954,-127.31057797347138,-117.81979374889566,-68.08519525405862,0.7982533784375859,49.83930646648126,65.95622746083167,63.691703047407856,57.65276192921661,52.397985371409725,45.42582028771638,34.744658935461274,24.908787957584085,22.39363696858788,29.18369871547841,38.88864487887758,40.039752206505526,30.891637967866348,22.683452842962065,19.564824771971587,12.906290873071466,-0.6940653635257323,-16.227425146191607,-30.059942371833326,-44.604850173296434,-59.158419873444466,-69.06975261910698,-77.93297643220222,-93.16469108157148,-105.19080730382097,-87.58013510221278,-32.29050231462547,30.263662082233864,66.40765210529442,73.38017331181076,70.07868009162388,68.77377592043175,66.97986627695356,61.65023671987423,55.35752248588688,50.06444545383285,45.5761265727141,44.62548529942393,48.83410989521316,50.69091557844866,43.0501710791715,29.50402541128306,16.224654753950666,2.4415040362121623,-14.05009931257854,-28.706349724547845,-39.24277736919411,-51.483895749015204,-66.52759792067879,-80.68135079331073,-98.62911481259489,-122.9906969984581,-133.69134517958875,-104.28454058571921,-43.80934038856672,11.48794050862483,40.994418858039374,51.02984647225548,56.188004895193835,60.373408347420515,58.820283149714385,52.17672595139617,45.26904224593351,41.06272993269281,40.72073898430528,41.778536916762974,39.293428330561106,34.855991444470334,33.35277048127915,30.492206334514503,17.929008980908876,-1.1862717498061999,-16.715432343926246,-28.707733885515673,-43.51216193947488,-60.509298311035536,-73.7725519770227,-81.75054056042799,-91.94835596952191,-106.82814197173343,-106.67921614576292,-70.97660750665112,-12.359898837516292,36.435797100837064,60.373154424796795,66.03243565968005,63.424452591546284,59.215813101510044,57.69610442343986,56.888385808350996,52.97769724121063,47.80752750097965,45.16807595629192,45.30572294220828,45.59544038436357,43.47067603400254,36.383019085787936,25.129200461155826,13.851605319089872,3.1461771383633814,-8.000002495754607,-21.81935396305288,-41.26550210839249,-60.422335981078895,-70.86918115087556,-80.2598001592638,-99.58320815395295,-116.03528203840031,-104.3452029281475,-61.47896855360473,-13.267667127225344,15.440108390193819,23.86504421407665,25.401033680007796,28.437384912264097,30.644575610750664,27.76725862280844,23.603941220502396,25.996651069039668,34.69189739660213,39.73891973845058,39.07991587189054,40.86639124219759,45.86696169764581,46.92696045162402,41.73231735829853,35.1165660227829,27.617233203636072,14.816630132912913,-0.5404496890181792,-14.481910060078583,-28.99703591368249,-46.75685866722828,-67.59476103992152,-86.2742472801857,-90.22947090684461,-65.66056985350149,-19.196074482555513,21.113483772961505,39.936964712499,45.38291930707263,47.49903295973565,47.63818482166686,44.20033507865451,37.71864538205188,31.443427833490144,27.43996628186216,24.740133977549323,23.652303858772594,25.356551128476585,26.939924333677848,24.237230355683785,17.293378298541516,9.288902342090159,1.5097030038365489,65.0,110.0,65.0
-120.26147401633337,-108.34388259068292,-56.72403605852435,11.60988453316473,58.4433229071207,72.87168462873214,72.18705319384081,69.94832271508935,66.41987647241048,60.2641311255734,52.75493121888668,46.414409865229125,44.13757982136233,45.569244191039495,47.29617955623665,47.50099561999508,45.089950654443754,38.424088724532695,25.625232670221056,10.084347796164838,-3.414856033310342,-15.469948199719347,-27.476718966247503,-40.47426343904651,-56.92411399774393,-75.68678050894489,-91.34692469484156,-103.702147775653,-118.37898078658014,-128.22377836471475,-107.43245234604625,-48.34288950545777,18.33286144400132,57.50202948557668,66.37170121322758,61.94570118333327,56.08179475089041,50.740977019874464,42.64244897085154,31.495026733215692,23.219190951861957,23.500842127365107,32.19692893680723,40.50016801494075,38.08400306335991,27.90914401233039,21.536932752564052,18.381873104622635,9.553497462388345,-5.262107054469043,-20.36741998774047,-34.06410689733802,-49.04310004664211,-62.57100212616367,-71.31075611319525,-81.62885540871999,-98.01634502345735,-104.23602256663618,-74.7300399008581,-13.090442347634273,44.20824694612264,70.74333438415103,72.61088928341454,69.41681728826165,68.5615197352158,65.75779576187932,59.77449547745357,53.737447268003,48.64324156160222,44.745877883081825,45.46570504830443,50.09712063525028,49.48910494678181,39.39832580006351,25.523039457315708,12.47848142384782,-2.1209610058168047,-18.76050017011829,-31.99271865638874,-42.35199061780195,-55.75235799992013,-70.70021046755122,-85.09567430972972,-105.38893702563323,-128.93512362871326,-129.81007402414474,-88.52136739588876,-25.815650270568437,22.78633269183945,45.197558202292065,52.55489344844816,57.68715731732527,60.65038530278642,57.21158936997024,50.02761193575348,43.69672582538108,40.57348985223053,41.12431025971432,41.53842324656656,37.929732987725075,34.08206479176394,33.11096872330226,28.018171497663378,12.587484322045627,-6.3078764072333655,-20.236254672926513,-32.537913189444566,-48.44323038194048,-64.95352761611723,-76.44057816145767,-84.03226947381407,-96.21637652346685,-109.60123054681289,-100.21298193783495,-54.95274612545971,3.9546774881060927,45.870183045687675,63.37455087363013,65.7946327457591,62.11342624187643,58.447220626921215,57.624899437745654,56.10839825544778,51.41928240497924,46.68224579593628,45.0240349384302,45.490249385314165,45.34780785057823,42.011451970599104,33.370144577230505,21.757086020414498,10.757559745515577,0.006870805730824006,-11.529759822847216,-26.88781921417305,-47.35381141418563,-64.36509291004928,-72.96916488727048,-84.83763006250263,-105.82543378476429,-116.34184176169957,-94.3996493318714,-46.65739455527671,-2.454053644576822,19.440761507992693,24.434373697802922,26.05533966488804,29.434555864073758,30.34514365072961,26.329862258337183,23.377319177243667,28.22715129154731,36.92617552742465,39.81676880551531,39.059108740435335,42.25929037976441,46.860677912194106,45.923862034567556,39.74890024740738,33.26967164931548,24.514140121666234,10.361658951871984,-4.712191533920077,-18.462446097631116,-33.73295839913421,-52.576188623254936,-73.61466325167679,-89.66524307948303,-86.3484201112279,-53.41595484508416,-5.703425868319531,28.696572691576932,42.28696815295993,46.13691524463178,47.821069576459465,47.05000514520133,42.53238352030179,35.72238382907017,30.06628569907394,26.572594592077508,24.17432493377118,23.88954634152412,26.055990006011623,26.69029075315531,22.55240700032125,14.944349877285884,7.0973246408315225,-1.0978124374014568,-12.366716197670376,-24.907117040572793,-38.5299929568609,-55.23312851897862,-68.16350764327672,-73.5623279970714,-81.37845451173753,-97.3120926332298,-105.24258170240775,-81.64835710844237,-31.53901215940418,11.453330100347126,28.45883830436717,31.42257650175863,35.97859388067981,42.409320044453615,43.25065775711863,38.281854161836655,34.1619375308527,34.97981678233151,37.937179914007174,39.66615480921995,41.13730086938289,40.9534409551445,35.38997775819493,26.317950747514743,17.222302388504335,7.285968630158286,-4.171849256705579,-15.062040491469755,-25.43158922638966,-35.897305972632644,-44.831749478348215,-53.441561840652376,-67.15638352225064,-84.10805574940241,-87.23067941036715,-59.893808608905545,-12.086043826086966,27.664361590001093,44.67477081683436,46.57081521142651,45.06801598877429,45.24972621638702,45.76433352555894,41.88118202954901,34.4659271951646,29.66105756749211,30.522237876682148,35.98984456973374,42.0467029944832,43.343135593683556,38.47393707190624,30.849765067120547,22.08432811263171,12.319996693638746,1.6542733623743917,-12.338949492802072,-28.7985437065009,-42.1018965736149,-50.16394020603638,-57.801472350375214,65.0,110.0,65.0
71.52813500759319,69.03932819208717,68.1475906315595,64.23598458227225,57.917246314925784,52.20615795482551,47.28649180759919,44.32682485134079,46.7132979941589,50.87766336235535,47.41561525245612,35.44203024395927,21.67539036402938,8.585416295429265,-6.915514554843744,-23.12989137446471,-34.98816946072796,-45.7889546770842,-60.160100169661504,-74.73648286483007,-90.06116924483379,-112.61883470797287,-132.95952081633303,-122.07537442764001,-70.86917735908527,-9.194343526932096,31.73469857893415,48.13864094945352,54.002076719264714,59.035740685043116,60.32634783216986,55.282931154252545,47.97067130705347,42.39655628951745,40.426583812756895,41.52567466033283,40.890867854824805,36.54825593517257,33.63780582324614,32.52308234731618,24.568075859927642,6.943418725656866,-10.909186449758158,-23.611376640948635,-36.74033068751206,-53.442279296226076,-68.93167771039934,-78.7095991974268,-86.78150275818551,-100.76508555202832,-110.39782319761466,-90.46459925590956,-37.734255357221706,18.65632296591879,53.15345380915678,65.13870528389016,65.06529214296975,60.816692791465215,57.97357871453689,57.483632192095875,55.01575038287436,49.86011278776104,45.8476562650974,45.066419211317886,45.620357794561556,44.83750972480821,40.07137388728202,30.09729284799155,18.476448326732296,7.677007282085156,-3.178598671523245,-15.378943367264318,-32.47380065489323,-53.13458920657267,-67.45486275248689,-75.3801723882194,-90.3904202582811,-111.21538521410358,-113.71634309226901,-82.1255748431689,-32.22273145979989,6.311399219063266,21.98225865238765,24.791221029417205,26.92771245714626,30.210383775570676,29.56450997024989,24.971861839523026,23.886062421683143,30.836227122658283,38.56702392684965,39.545515730004546,39.461840970497484,43.80050445750039,47.33104668409696,44.43997078519151,37.808296602201516,31.24469058127134,20.883860989747898,5.8581143625806,-8.73228090854705,-22.581801253880947,-38.78691666893208,-58.615253534128364,-79.27509507884803,-91.43174769752417,-79.79755166642487,-39.82149496339852,6.4967005625879635,34.40675253950983,43.86983068408823,46.769167570087816,47.93960783065923,46.128648967855234,40.65427546875131,33.84469088126366,28.888350206249676,25.77386300078576,23.78742497218197,24.37149876917244,26.618969509866723,26.007635324255578,20.5624425282712,12.601436845315243,4.90705257106535,-4.014521268953497,-16.003854603166197,-28.562598687961547,-43.16041953067717,-59.787440212551594,-70.24961719861349,-75.00926315644715,-85.41639473930523,-101.63159224854806,-102.23842303003036,-68.63568036252617,-16.899559321800112,18.93814073585633,29.858654357307017,32.2503358486089,37.98407234647986,43.447058737423255,42.16594189449718,36.700959581383046,33.89867503880341,35.84445334380533,38.57227878338488,40.06495478444813,41.45969294200039,39.94370257592942,32.92296915252735,23.64199757985422,14.547803173920686,4.04409481455135,-7.434219535169587,-18.04928001641921,-28.487338833558194,-38.70466626034685,-47.12853803990928,-56.6974881984237,-72.20749053691513,-87.44182182527005,-82.64690684906317,-46.99021316863812,1.3688790115633709,34.88175125224217,46.16611550311704,46.13078105908667,44.88751645726455,45.57608900143003,45.22964239941196,39.84772138115745,32.57363657978406,29.315271503509553,31.752889442418553,37.922747902557994,43.099161143767105,42.458575990521936,36.40518896954513,28.446760621847304,19.32688460208634,9.403614355527933,-1.9493338439801469,-17.06171205633321,-33.19177886559327,-44.87478058587884,-52.06792314968789,-61.04411006422569,-77.30475624266067,-93.07820203832213,-87.26675963720501,-50.91614500683005,-3.8604523811838356,28.822146388684832,40.58485034868501,41.064252846628456,40.609100433177204,39.219278613406765,34.81135076275758,28.81385814249286,22.43685138246773,18.53819072908312,19.01804927792007,20.746759495414036,20.37119659878,18.196444642381252,13.692180715383909,5.34892377866249,-5.813830049382387,-15.474340774601991,-21.273267361932255,-27.04714385218539,-36.05814483784287,-45.87194364493054,-52.48333289454963,-58.609962386203485,-72.32969134170287,-90.04992674156347,-87.02938102436087,-46.83935178333264,8.203250785940488,43.95545979288578,55.38562727451322,58.1467807157075,58.93457797266826,55.43106256999413,48.201620597013175,41.901999207578164,39.30014342722128,38.37093516402456,37.34843061812204,37.4205364684713,37.71665157835532,35.014035526951936,27.266839756875427,14.61195920124225,-0.8218633721928191,-14.970995771153953,-24.91612921631626,-32.44451133988916,-40.03973685512296,-47.82413639519213,-58.82805758370967,-76.14427963485637,-88.69200646490921,-75.78346732588831,-34.65256635717171,11.53335224839302,39.54175071226534,47.25606731748883,65.0,110.0,65.0
45.31662483331854,45.21883686057082,45.63962961609682,43.99284121822571,37.64908577932023,26.70175006857408,15.293221704338148,4.5821061010186925,-6.446752406455451,-19.66780337980021,-38.44483504485926,-58.30629499468338,-69.88288429811745,-78.50150672530832,-96.61957942388082,-115.01169337102382,-107.99966983148542,-68.2182783466776,-18.88805166067255,13.009785835272746,23.446097262346463,25.172882225747227,27.9498746972138,30.614010701633717,28.395230997128184,23.923064490076204,25.16500851926211,33.51887588461709,39.52137566578831,39.195125006140636,40.32707266119918,45.27217873489704,47.19654270833611,42.62923914821434,35.95371621287213,28.869422880776508,16.807240057817857,1.4424293523001204,-12.669644116681992,-26.912895864793548,-44.16884227664207,-64.76375000424886,-84.28265293674707,-91.15132824395012,-70.66059663897494,-25.67468613633227,16.950078863322815,38.50109794904283,44.974262805173744,47.296962295705804,47.80120833068388,44.879419628612794,38.654056681463544,32.15174649250063,27.869262512111863,25.04514065203769,23.634007641026933,25.026241567698737,26.918732104947242,24.89060352643498,18.356440405678022,10.317356109687996,2.6237424503916853,-7.24127257515703,-19.640332366067405,-32.39158446318111,-48.05066857161916,-63.749290442798205,-71.76344240588281,-77.01101849277596,-90.11286197363304,-104.64549056434406,-96.10007439634569,-53.96352206795257,-3.7997231066511703,24.14989280568026,30.601085981083664,33.47890738998701,39.984337180873936,43.84251843123297,40.703985073019744,35.37894185727721,34.08249397767238,36.75357637310999,39.07207794667549,40.497212133963856,41.5404490058693,38.41862191257459,30.278430266084378,21.020840115560052,11.730462074204722,0.7095161648746247,-10.599220592590518,-21.028565648414407,-31.54536709209957,-41.322487034941396,-49.49763662588808,-60.52841728229663,-77.34920293414547,-89.05034448603809,-75.25216844927164,-32.958344827765025,13.419231966041433,40.10978481910843,46.73689379587847,45.63713024199902,44.90998792668371,45.831425051786965,44.21061776226031,37.63713945201555,31.055183732529045,29.464819151055185,33.31409771590098,39.77891779631463,43.623461710765106,41.09575125432383,34.20960621326296,25.941855413164586,16.506340059245755,6.393470652657852,-5.913502950334777,-21.892836124830005,-37.16957998601978,-47.22792378407103,-54.117027606676466,-64.98916097231391,-82.72529031662845,-94.53180032592711,-79.50074310337573,-37.09763304641179,7.759746628870227,34.14533433055596,41.27779790383081,40.838549097291256,40.476074872623634,38.22152013429812,33.17841367587659,26.93747791804346,20.886800354477362,18.2808975224877,19.60369767994537,20.888135107797023,19.896289395765898,17.217693437041902,11.701940650540898,2.266319182873732,-8.972661447581862,-17.47421477890613,-22.7035710345348,-29.323496009111743,-39.03007686570774,-48.17494970317057,-53.94957967099229,-61.54179783749195,-77.81826495895439,-92.60826205564305,-78.9954206371585,-30.703161806048335,21.439961516686395,49.144779079034834,56.469337787256116,58.64301206680406,58.44745038498774,53.55681053614066,46.07087045714024,40.78844978652691,39.00452811987396,38.05884664517071,37.21443248481988,37.61916922330466,37.373279796957185,33.328977531709626,24.056612526808188,10.29174229910583,-5.2448703778222265,-18.28050775431635,-27.183900563582743,-34.605369215045506,-42.242226301682855,-50.41741842388529,-63.31044357956713,-81.19486435897761,-88.2732225563647,-66.12524899078534,-20.51919813592789,22.03156083690425,43.423109955468185,47.36360160614795,45.76660268030962,43.31846927693268,40.21204215771531,36.31209962911648,29.16567851076243,21.566185410179948,19.993427073293013,23.166153594890734,23.601451762965937,18.687445711289282,10.458883228214223,1.771643291927786,-5.396123033574276,-13.43371989227401,-26.71536992894047,-43.762107267637724,-57.125508111617236,-64.78148300694941,-74.57372544812239,-91.1938279401799,-96.59537377349838,-66.49125773558487,-10.74656505803263,36.05632351149413,55.52338599975125,57.28572257028936,60.42423390880394,68.35071660654884,69.69132145928717,60.10729749440621,48.27910252078104,43.22200405084107,44.169718213455326,44.39035231514322,40.86414888271751,35.942745646614256,29.46259065041329,17.716517269534116,2.366320722302264,-11.47804117770367,-25.109785634937886,-41.21919371991911,-58.202833793018314,-76.8243545442847,-98.74062388318063,-111.66958198243611,-95.00378771834808,-50.58779452689963,-4.955277717235756,21.64041314015823,28.781467747828476,28.149090611660334,30.33204836343266,34.11708539798529,31.93321505166648,24.48533793295385,18.99347624266881,18.49158120578689,20.179201069543666,19.84998855317034,14.53594990634155,4.807412894763439,65.0,110.0,65.0
0.14013553859619698,-10.712701731250442,-23.24593588093226,-36.51187927631712,-53.00252693717026,-66.95449325548326,-72.99434491288872,-79.79864802655504,-95.08026604429625,-105.63997432891203,-86.8612576320933,-38.588128045194445,7.187427873700769,27.449013520736358,31.14142385229635,35.114601655841575,41.741588433979736,43.578330733892734,39.05276603593015,34.44211553197226,34.634160162002836,37.59359361625761,39.486371219476354,40.94459591389102,41.24575537007605,36.43317441497315,27.56694738350615,18.426319847591408,8.730470296212209,-2.640882203071212,-13.670663696035053,-24.033304305903457,-34.5492282974825,-43.756175480988475,-52.10898182430855,-64.94603745785071,-82.15217870134443,-88.40334338417497,-65.25759580040732,-18.597904841998904,23.637352800281015,43.57987104331602,46.709120471006806,45.2145602680772,45.11312976809875,45.864303679219134,42.71294920818724,35.431775496004,29.988721559265088,30.08712313198926,35.11205035429111,41.41031220638763,43.566381381340165,39.36423730044453,31.928051105789695,23.326006656478377,13.648183348983645,3.2078864834104546,-10.238523426292977,-26.664993879810478,-40.66155331923673,-49.27808212930686,-56.520648148994795,-69.62426797441044,-87.73109760507649,-93.5902432495544,-69.2433696555258,-23.12345837529228,17.688427013143123,37.77388136621697,41.37352637205019,40.7041224164857,40.1603460694929,36.97185068170695,31.457762104069978,25.051576388260905,19.648192364854655,18.38851109236898,20.169359317690308,20.812178639338487,19.303479755412905,16.000086744452663,9.362129940127298,-0.9900003750677036,-11.87286798265145,-19.153659356221272,-24.279321368048517,-31.89771837571589,-41.953879095270075,-50.13088668404425,-55.542233824617966,-65.32158715677703,-83.3379769712967,-92.64393446116422,-67.75954300704782,-14.277414079464558,32.37045623589221,52.56304718532883,57.24345081265023,58.96765919869912,57.53002265583591,51.44395908500159,44.1522461839003,40.00071561694558,38.75924620739827,37.7352625971056,37.21554300375398,37.77019442747717,36.6999669400443,31.192691038226926,20.46027730945166,5.807673225900558,-9.439885067683623,-21.20842534595213,-29.338933408177724,-36.803916643620106,-44.44805771928982,-53.42025613159851,-68.34171204284151,-85.37882689975349,-85.22428268920302,-54.34837438283552,-6.714453149231453,30.59544771794216,45.795527203295016,47.0769137050909,45.14516731595358,42.45089661459094,39.265404133993556,34.62673135997227,26.69269145534222,20.335924954094324,20.7412641591979,23.839200310824854,22.671707891847454,16.53666008136489,7.8571217482718625,-0.4463521499951213,-7.4123636953344,-16.622614790719137,-31.552709981807865,-48.28862880447682,-59.72961791579791,-66.91946828079419,-78.96197329537144,-95.26461816657658,-91.95239372190981,-51.57603373797845,5.076125920535753,44.51413066516096,56.939153812174304,57.45912780796915,62.62909119269839,69.89818996840414,67.83298574032702,56.39465708661079,45.94824324163139,43.15603276540432,44.57372812263126,43.70675713395561,39.47148077581256,34.3973997963298,26.701098927108454,13.380457686232802,-1.8776836773636814,-15.241178303669923,-29.52949065789336,-46.11440867504092,-63.24357329763148,-82.98949828861477,-104.3948553600525,-110.4724012752728,-84.07635725092739,-36.2699442502477,5.052575114076721,25.30806039420019,28.787558412575322,28.28041390845128,31.622818162575584,34.29735875981936,30.0178568252267,22.426323467738094,18.38352352964385,18.949096146132785,20.457525985640384,18.896370452764412,12.021598485278973,1.74754607145341,-8.80751335750943,-20.584892777951083,-32.127386427336624,-39.78460754364258,-48.780923950089004,-65.87499017690791,-77.67673726480906,-60.79495179660245,-15.758280667878402,30.542316693884423,55.98350783570691,60.06608254199322,56.114095964836864,54.16255484947678,53.38673349260522,48.143388236716994,39.03066164796984,33.087962763625804,33.15593149158465,33.10484758273109,25.48277427245221,12.739167658228572,2.0384269017486414,-7.643973357833297,-21.278489785157863,-37.78411401009925,-54.61321492850124,-74.97872732630316,-93.97423158201697,-89.9788431604394,-52.88439832442593,-5.9729058988306285,25.02650559823586,39.5686898589407,47.07185362771639,50.75432766083732,51.28278043385053,48.86402434595254,42.7033025651828,34.75991667767275,29.519996849312488,27.439159204967062,24.60694594748494,19.497756571438487,12.042463962441126,1.185880199504228,-12.814674330130803,-28.330402772346723,-43.56170037833347,-55.914772972881536,-67.77678348009114,-88.24904956540301,-109.85823369323296,-103.57366160055935,-62.39675973871591,-16.33508277365096,11.347645549277235,23.62189735643685,30.609060905482433,37.08944907391868,44.72382292689638,50.12200255683493,65.0,110.0,65.0
-59.46535858262658,-74.80604841882126,-91.73798752142285,-89.91717074966554,-57.02337893556842,-9.698533956188363,25.74782483033258,39.96792114962339,41.18198488138611,40.63904777889634,39.58330238338219,35.527101405153275,29.663168648982513,23.22907979049093,18.793406058545752,18.77610714826157,20.608059625060218,20.54656600006582,18.581807193295262,14.494428900778392,6.685673229809751,-4.303386949200303,-14.426163865218507,-20.62522055564834,-26.104351648933132,-34.70858569917975,-44.69823449772079,-51.78792626226026,-57.509211849392706,-69.95133054442778,-88.22368731969402,-89.58058216398511,-53.89206876149903,1.437649761149016,40.846735265074805,54.69965986672317,57.881669992146804,59.024238301364385,56.184283347542426,49.223263239257086,42.533305588351055,39.47646076997168,38.502279863448535,37.45089121628457,37.33689880859775,37.78221270420134,35.64245213153218,28.60662201430016,16.524767639080633,1.2623133414651204,-13.312090212743835,-23.807096846921546,-31.46113752787285,-39.01962632729842,-46.722222507103396,-56.97621539594235,-73.68152906821192,-88.09453041561981,-79.39249764937148,-41.07555343833879,6.104364904829816,37.16236382747588,46.99869436190836,46.59724956946106,44.461462556920175,41.548100755453206,38.21970880082265,32.6013348741965,24.34637475411061,19.748802197995044,21.736194069238277,24.097039617449628,21.313963496846075,14.168890019992803,5.297539983804422,-2.5157669152674464,-9.61240519998892,-20.348763802197332,-36.5703788413626,-52.30929855396631,-61.90977527752794,-69.51996147457989,-83.90697289804146,-97.66605622037595,-83.89737835784005,-35.216529773482414,19.270604561882372,50.53871603742197,57.349971542992535,58.18005289733729,65.07471152975427,70.56818370620991,65.11400350023435,52.797167664890864,44.33547261592234,43.461230939687084,44.74301517481718,42.708825882855976,38.051493393575385,32.64788418116005,23.408348482339953,8.880319863595746,-5.899677401499703,-19.101126654037643,-34.17315251041405,-51.01382472365113,-68.50945274355605,-89.42964339940796,-108.79038717658017,-106.33398369327666,-71.23527331377296,-22.611738539470835,13.170886863286265,27.51962310494745,28.49417081490126,28.833381577483763,32.871143367295076,33.81021699627306,27.806242325893486,20.711434218498525,18.19094449521345,19.483245687278135,20.470944687163087,17.468599842627935,9.207060302668774,-1.2890457523990142,-12.031593122429742,-24.15675464671338,-34.741909742278835,-41.76156972466517,-52.99491350349125,-70.97873820600267,-76.3974653194983,-49.76336846956024,-1.172147478163845,40.46842872824923,58.8838265382805,59.11370591042671,55.18856336468743,54.072348077381875,52.49884590322379,45.63359711907976,36.69740878982727,32.60815471421791,33.57781927894147,31.805825750417593,21.955023038860965,9.283318078023052,-0.6005148532952496,-11.080821638759112,-25.950028295725808,-42.553150610480884,-59.99765470604145,-81.35161057722455,-96.21758845247903,-82.1770395301749,-38.836648520237006,5.1197608022930465,30.448954835821777,42.19283340389753,48.504651783951836,51.19233214702694,50.92676101739921,47.46641370207366,40.39464150579605,32.816495489991645,28.746540171359,26.84440090511076,23.350092786815686,17.623390347318274,9.289608720089054,-2.6017236793704366,-17.214029414700995,-32.86450691429731,-47.512278854899115,-59.001853084741256,-72.56852861303084,-95.49965290675891,-112.07530634403159,-94.36137393849997,-48.02930630286613,-6.192926626205679,15.97313199562605,25.866165370888506,32.42723828392363,39.17679300155447,46.8540437311642,50.18494311871046,44.82183206731491,37.68167885616786,36.22411360411107,40.16932812003332,44.64092430618033,43.828025960792715,36.67694351022065,27.73013642740962,21.451580971599462,17.126762088817074,10.006261427382594,-4.02981617558378,-21.82582335566937,-34.69031277761806,-41.3940038162584,-52.90468510712074,-74.36836864775518,-86.42581137586112,-64.61690326494727,-18.91190314358154,16.15083459303683,27.495347879442114,26.93218130536333,25.7487569855544,26.357773800968097,26.83775724961246,24.067466819021725,19.023428639248316,17.90919230620311,22.065929908815356,25.56903837345687,25.770935194991687,22.37221960491417,14.697277535757726,4.936153035647173,-3.307903341556839,-10.30271619420316,-19.49595496581268,-30.969530185584624,-39.96218318472534,-45.08283758544056,-53.78702588584916,-70.45426295945022,-82.07506378926827,-68.83986043107542,-30.750289747216293,9.055754265457422,30.729850575942468,35.33701969422763,35.18268162687734,38.16111835876297,42.471816462268094,42.13659722735017,37.84496216612195,36.16099228030037,39.37007416937324,42.29694348408015,41.82852693925117,40.728817983909785,39.11699238136083,33.13445923666779,20.981797573704732,65.0,110.0,65.0
47.37833617444645,46.038375352670684,43.697553511105,40.63561622805982,36.977696987942736,30.29215227833994,22.332399726433543,19.789346279171582,22.751589170386318,23.871635982990313,19.589149741491894,11.650349004521901,2.8495336875962947,-4.491868792494682,-12.13108653417965,-24.60022474334137,-41.5449504463037,-55.742885311246404,-63.875281566925786,-72.80061695320086,-88.98111826334792,-97.61935573088441,-72.62987676778015,-18.392517401044934,31.314921081133978,54.37984055767714,57.312273337964015,59.569825603302476,67.41065006227129,70.2117926087968,61.77532925111475,49.5779603267745,43.4270382595352,43.94208121490388,44.58524458746802,41.480682377296844,36.61809313742977,30.56678102304394,19.611481950172664,4.391708403084176,-9.741679338931139,-23.157314964449284,-38.97442033917187,-55.9223163273824,-74.1103101082983,-95.87771743371104,-111.30370741251306,-99.2234844862934,-57.223706596099206,-10.16828763627352,19.387756655805774,28.583453513675472,28.208599761088536,29.788102567888643,33.83178629553128,32.661254245655805,25.513071668281633,19.428645257093848,18.33728273546503,19.986043477552453,20.13884243560562,15.564632342218712,6.214637472625911,-4.310336278353564,-15.414024015425731,-27.603481145602945,-36.965060919226836,-44.11759983267688,-57.95875135259574,-75.04422448528867,-72.20761359850557,-36.75521779145252,12.720798022757739,48.304649103061294,60.203434161755276,57.874820835532994,54.571820158871695,53.95869004689378,51.09935296164988,42.92306806915003,34.820335618473976,32.613888605537724,33.755536379614725,29.74092223801674,18.19077868774492,6.140539198915281,-3.2899598229463165,-14.943768043271993,-30.75107870995248,-47.337078105520305,-65.81681067410649,-87.30056524494282,-95.87930697411349,-71.68393376509431,-24.832413457217758,14.460236751983874,34.740882068637056,44.418207527197694,49.63226733314428,51.391130734647426,50.30973743466383,45.73790074574091,38.032115817013796,31.21190060037476,28.17361414313855,26.083190340876662,21.91071782805952,15.539510784267215,6.221800225909474,-6.6204456108172876,-21.698779572504172,-37.3284667058086,-51.141757941429304,-62.21631579970068,-78.32842672277398,-102.34940464828995,-111.14893402972027,-82.53765939639767,-34.210781177645586,2.1423992117570836,19.583713448610624,27.878248682528895,34.26449362938435,41.39415066554593,48.62447317866875,49.418440866201486,42.47540265846853,36.56089600633437,36.963709321583956,41.69347639088641,45.124920886956765,42.28763289054105,34.01140874894807,25.56495991370728,20.163441714787275,15.608160587849573,6.704534818547618,-9.155441207700383,-26.364649397632633,-36.93744560086795,-43.647057073184605,-58.44862847907615,-80.19102215381007,-84.02506893105937,-52.37976926447927,-6.42741114041947,21.58037327034964,27.88008669782957,26.41096732871621,25.78001223305699,26.650683517667964,26.466355719133453,22.60899942615365,18.044803168384583,18.78035411464527,23.383125725110542,25.958472289565147,25.209735863967843,20.569861305789374,11.909318636024462,2.3058274881745016,-5.3145042328449605,-12.61351657338089,-22.732945252897284,-34.04892687181227,-41.64499796026469,-46.80379311517667,-57.99409277826586,-75.31251329317193,-81.36552503981937,-59.6358939635044,-18.22362585813507,17.533107078279524,33.31895499541124,35.25822491602385,35.62313886358877,39.557490904703045,43.00864964143364,41.042063875131205,36.82607455950903,36.72097298477659,40.52280682099139,42.443927738769325,41.450500666138474,40.46214469525847,37.99933289689169,30.230287173398263,16.47484217242181,-1.52732147060587,-20.670210374571763,-36.812182931365776,-46.623503013316174,-49.94676211002432,-52.38518284849393,-60.95651844147923,-77.04825715254636,-92.39582021650486,-86.48162428817456,-51.06590099624316,-9.816635874129503,12.243336129387371,18.201103988443897,24.958638130757397,37.97634397925385,49.39458618698386,52.1584603589541,48.416693323156196,45.06698883203732,46.95101970025041,52.11817590643742,55.27600862271636,54.83637830816309,51.082374866942175,42.596309670271744,30.44966539438549,19.57026491341314,13.325354543269421,9.58505939758508,4.658838197794077,-1.848288643289132,-10.256487439210515,-21.77020653637474,-34.01179583091294,-44.157794932512274,-51.40720313278182,-57.03220502236904,-63.20098263190297,-69.16623340268293,-74.88852311720322,-84.11752732182889,-98.26516573998089,-106.28814092649432,-86.98833539415627,-38.6448913641979,12.091006454443146,41.71258361941093,50.55613674849828,51.68185083981488,53.228986671962716,53.32014755088601,49.15231597948737,42.880075403636226,38.341922632247375,38.07064957894325,43.82721387764292,51.576783886456845,53.05604664141582,47.74026105273242,39.523570500008034,28.80974972211696,65.0,110.0,65.0
3.156970156711096,-7.36746964373353,-18.93447073807404,-30.78342704871777,-38.91730786049603,-47.123838266126434,-63.366026298646304,-77.36777950001552,-65.04637404015378,-22.51453242329003,25.308455323727323,54.02696578398911,60.31345407520157,56.63153195410419,54.241418016700074,53.645129336127646,49.18245560767607,40.21817228767031,33.49917242083343,32.948342463455496,33.45623210104794,26.964211273342908,14.422889807390563,3.2848709065127415,-6.19452045638056,-19.203509754602504,-35.57268013070167,-52.25703675054454,-72.03083362499937,-92.22931161638424,-92.55898954411282,-59.13718107538053,-11.627780904007166,22.06134894386697,38.192810719748934,46.30718530255157,50.46483919216859,51.3678438552598,49.39486729474472,43.71551680719454,35.749391144774734,29.973826148106344,27.67666173248401,25.12032886546014,20.299164150340673,13.2098286194488,2.8426973504090958,-10.825491466022445,-26.233415078035524,-41.64506679524251,-54.46255328625515,-65.86437426351179,-84.97245102991167,-107.94568305696713,-106.75918479855363,-68.96986058170407,-21.60976813213734,8.78903410380262,22.467617824392057,29.763066501856386,36.17262443415517,43.68059894248597,49.81721820830906,47.914839196181774,40.25612955215986,36.01796839629948,38.086267190458486,43.108865500960746,45.040732043121714,40.259691588457684,31.348339129808018,23.69467155982162,18.966406121366866,13.71333364055498,2.756720199480947,-14.418109882931013,-30.26668970150497,-38.77928287320844,-46.667798946084034,-64.77031535591837,-84.47980165104346,-78.34287642626865,-38.863587324969295,4.30984639579809,25.081823444333956,27.674922122479174,26.014528443083535,25.952092687325354,26.863418844108796,25.742652033540615,21.061278702438333,17.571986172508325,20.013279773029403,24.479239683003964,26.076343697773652,24.322554964774017,18.404607292038694,9.042246645233352,-0.12122395338856455,-7.280668666571844,-15.19870262746045,-26.100911248684408,-36.769603956896304,-43.059264745179114,-49.08667652025465,-62.85560461180523,-79.23152212554487,-78.14514843536948,-48.65624058228391,-6.261674268367968,24.186820889599915,34.71851457474834,35.104791973425854,36.427833855621635,40.92314503337822,43.02433931319059,39.73579087513461,36.20218272087422,37.65646213867098,41.47335223634595,42.31161688248676,41.1170640033628,40.08935030646832,36.40930893613765,26.814009416670007,11.604168433398813,-7.1166581861288325,-25.825218869065935,-40.38677379488757,-48.121265819938664,-50.372755281817135,-54.04146138995714,-64.95052493912684,-82.30665085672454,-93.80795535724805,-78.74962627822323,-38.254599642643036,-1.0452260287724608,14.859223943923762,19.490330521808932,28.273461058312517,41.897711672097024,51.15567964809738,51.467415306950876,47.099450658366464,45.01855509719949,48.35348017589981,53.40658266990326,55.47916122753301,54.14089100010403,49.15953226362172,39.29075123154864,26.936441887780965,17.283349915566507,12.186884041215498,8.36504734071288,2.9071648796349683,-4.001632831746872,-13.289434906449529,-25.404090323047775,-37.21821309788325,-46.549556796612684,-53.07461314192069,-58.73360574544719,-65.02088205822349,-70.73042201319339,-77.00380330046242,-87.86620917144656,-102.13499894075099,-104.25063955884308,-75.1753125948451,-22.81109855789792,23.24506479168095,45.892182494177185,51.10513023118279,52.02731688157718,53.60582096330346,52.5499619752388,47.36618348693011,41.26572087556316,37.71456799940796,39.12523516686004,46.253691946067114,52.8820893205615,52.00839481001938,45.5890168259278,36.699713094484466,25.328588709740373,13.841567489615747,6.556116437964013,1.9624770871838766,-6.5967487302354515,-19.278150269449846,-30.93472694966753,-40.670737079173094,-51.32697437988252,-62.93751505961365,-74.30915066351552,-86.40275078509676,-92.07063793744581,-73.65943841993358,-29.35485287671359,16.66791185126532,44.17883138484392,53.69615790912313,56.02079315111358,57.14277190139689,55.907887654134974,53.13412841943314,50.944928323262424,47.50122557092842,41.480827433019556,39.30519682592641,43.93528036998269,46.51252196519683,40.06974602168314,29.490957838288526,20.71946977071272,12.025979935273192,1.8206433927391314,-8.355889993474737,-18.467608490672713,-29.78604679167988,-43.601671741708756,-58.35366850182732,-69.40675689040481,-78.20203238606831,-94.83739067403174,-118.59523892741231,-126.76302652927856,-99.4858097971206,-47.0243720257879,3.029949878284478,33.24818617890504,43.54062568731129,44.601329618558665,45.80067305074181,47.75703214753787,46.138889351321374,40.457037414181535,37.04540871938079,40.77925751430992,47.378032100520564,49.54524274502374,47.04636853033161,42.3234911662241,34.897738510100645,23.816419600900396,10.84727391237714,-0.6495556266200561,65.0,110.0,65.0
50.2600341318246,45.87266924268671,38.38416405667548,36.03852983205103,39.47614726026211,44.24947334792157,44.349409917770245,37.86486007179868,28.820952975866618,22.10429003305157,17.73972544514341,11.312342337208232,-1.7771858435796688,-19.563091242971666,-33.45493563278541,-40.52347174896492,-50.68836317308507,-71.39300591539319,-86.46393416436321,-69.56673273198895,-25.08302035924542,12.926305321845458,27.01707676882723,27.18722292696642,25.790912509598442,26.2189233710529,26.903297444314443,24.66684514477806,19.60824320360302,17.67260996641077,21.416031406405565,25.29318179891229,25.930141753669005,23.074951028240935,15.925185984348394,6.206294014300633,-2.342877028149302,-9.313660067717825,-18.076980711463175,-29.463563097791944,-39.05643335414276,-44.41120669907437,-52.11485218173913,-68.06040796259668,-81.62841701878756,-72.34506414065888,-36.531575191033646,4.566443461240004,29.047951267523846,35.271849632556425,35.09557363551515,37.55790890007689,42.066846557181954,42.522523418430374,38.40965414882196,36.0588428234779,38.81280257312973,42.11670156583934,42.00080903025841,40.84349015988921,39.49657096670268,34.293021723377535,22.92360746882873,6.428548889230925,-12.709345765768711,-30.624066794776944,-43.36973913968986,-49.11214642891577,-50.92853610518904,-56.345762778408556,-69.55289722689804,-87.17269857281705,-92.83664835341817,-68.66189727205797,-25.815888373205624,5.725240276405325,16.506898513788087,21.24747828739408,32.06333806585594,45.41354295073852,52.10245941951734,50.37109025117231,45.998479051026,45.47697775405603,49.905231242235594,54.406329710319156,55.40087815469644,53.1555543048747,46.79844343780834,35.753313251730745,23.675487530848176,15.417547098005729,11.149706460987272,6.97813996116486,1.050673367221965,-6.352866556502691,-16.595847957646193,-28.996271223395308,-40.209985743969085,-48.68679330267742,-54.672022532319254,-60.51600406823338,-66.7709507748744,-72.31397376339027,-79.53393837920876,-92.00590580645964,-105.04701229299222,-99.39020724460369,-61.249435396000024,-7.6137553947048495,32.2720949229586,48.57353098362553,51.363372262447456,52.49221597224438,53.74062658409438,51.39763417315084,45.50681587831935,39.87318185403982,37.50181599989283,40.71638366399433,48.65146021399571,53.4768221730933,50.500856915713584,43.26180429878394,33.64514840863336,21.817050189983515,11.190387138709752,5.251723125819027,0.09623653155742407,-10.061143411502345,-22.920357988955672,-33.826307310285294,-43.56790854975868,-54.67621777156124,-66.21259759532823,-77.76156263601817,-89.41777265257976,-89.88974818852263,-62.768816540380065,-14.968673147865092,26.85170771166878,48.35616727800894,54.643806395544914,56.46883567687579,57.078010131654736,55.13373248102727,52.43362974890011,50.247527839123876,45.87458762525598,40.096960665524534,40.16391064092832,45.40614719846682,45.551783954845575,37.056951580392465,26.71806653687499,18.372343865912455,9.167579058975992,-1.1637896570725728,-11.241758580466211,-21.542043268079567,-33.50515450449068,-47.9560961419579,-62.085907718549066,-71.7998173800079,-81.80875082178424,-101.637974732811,-123.82952824391785,-122.7041576938731,-85.73597162865119,-31.204721068514697,14.101970390316133,37.910083082729784,44.24453729215284,44.73943196229863,46.45552998239803,47.8259139450863,44.72413157008011,38.897820659497654,37.389222837577385,42.78407752705254,48.621920323918175,49.156949729651316,45.881839138214424,40.51972124948444,32.06767688447987,20.090354490938044,7.307286468019761,-3.720360785960673,-15.234180550729727,-28.719201670540837,-40.98035178432456,-50.119106342584104,-58.887732975735354,-70.65245303808337,-86.1455271931264,-100.01424729400502,-97.48189905801657,-64.75579462754392,-10.542195341092418,36.85147453592932,59.71347782017222,63.9000721249917,62.18350626875247,60.63619622253622,57.39534103062671,49.62153976773427,39.958581367742745,34.69003440068128,36.031879276247835,40.29158998439622,42.91105892842689,42.8673494073803,40.4208933556474,32.401823816230745,18.761537962876293,6.409768447532699,-2.8179649623799587,-15.895435196684215,-34.76938699320294,-51.53572066682761,-61.845245437790716,-71.4278232749206,-86.92172349998626,-106.12179790079394,-111.31107235791312,-84.04592487896375,-31.702424266260433,18.42902660669957,47.150418436049705,55.14707517456316,54.84635921304509,55.29713157023301,53.92200107454236,45.8224072394655,34.881343459551445,30.23889193650578,33.62366343264734,39.93546790400856,45.15637231623176,45.91004280746172,40.70929585534293,31.092911275183006,19.79273361426741,9.31811326357868,-1.9328739360655176,-17.806191760835663,-37.770197340245915,-58.02529092085542,-74.8230587956202,-87.27598561838607,65.0,110.0,65.0
18.601013741585668,1.0207265217008312,-18.201341930559593,-34.97664911827892,-45.73791925991877,-49.73412966038385,-51.8165231977828,-59.34113030382207,-74.6201341965548,-91.08457309689766,-89.13760680678001,-56.860989250179294,-14.497751543634854,10.57775956293051,17.68604717355887,23.634621895931208,36.10304722043878,48.309963723896395,52.29391973027688,49.05009254235901,45.257519336370606,46.397272588647766,51.44907001297167,55.07775219129952,55.07060616916259,51.82626368429033,44.01171853391926,32.11791100341233,20.77073321121818,13.917941535059915,10.099568146139381,5.424844791162623,-0.9065654768746655,-8.958258711354972,-20.108136126679543,-32.467554090847514,-42.96886477613978,-50.59295345790183,-56.27495025055515,-62.35088379649904,-68.42959006356377,-74.02374965446565,-82.55292938137559,-96.31543485683531,-106.37776818175617,-91.56479383217243,-45.94061374984031,6.272810600892608,39.19020277941188,50.12131549256599,51.56524665267723,53.00621264261829,53.540997135826316,49.91954334831034,43.68296998926343,38.75278392252742,37.76976455881223,42.766873620207605,50.76395861959204,53.344558556571755,48.667181088528025,40.750226357330845,30.376259974934776,18.397311474847537,8.994741309132909,4.031253954153013,-2.2603215923416666,-13.766280166629146,-26.35140290351076,-36.607588916406414,-46.613739494677404,-58.055863883216055,-69.46547486617284,-81.31403531058847,-91.56640081906174,-85.21570692474003,-49.990969395738254,-1.1977239846651717,35.200280380547525,51.22533775306778,55.287555212747414,56.8486028742147,56.765077903381105,54.30090031244551,51.813660646782274,49.34519523306224,44.061561830885154,39.27036174321718,41.53712659893296,46.392798121930646,43.78395078144118,33.91991484203109,24.17426921139469,15.916668897182772,6.207370961722049,-4.111203855795753,-14.141136651131482,-24.755300611512276,-37.459654457787344,-52.3050777826005,-65.37802392202144,-74.16274672132508,-86.36566325352351,-108.79067120079284,-127.0188688128986,-115.40786645375219,-70.47249065624663,-16.270848899423193,23.269728462253536,41.058954055495555,44.50022754668107,45.042849622162805,47.10156027516561,47.47431579026024,43.037993627811176,37.73143574920311,38.385852127132374,44.816525716477216,49.35949521542812,48.457379541447985,44.565681414076,38.453748608988576,28.91735682041073,16.29363145705816,3.9592094707698338,-6.839590275851582,-19.00486842394527,-32.56700267743811,-43.88330457089328,-52.51546283031447,-61.87786336230831,-74.8234038168321,-90.79680693398468,-101.79139633347506,-91.30300006966718,-50.201286392514746,5.101329052734121,46.08019160842776,62.22924877867855,63.567946447260724,61.68659354348578,60.062216847659215,55.62238665708111,46.75362828540758,37.75286670800282,34.480453033051276,37.202110007536234,41.34292451227115,43.124993137104546,42.48347445576413,38.843156383195705,28.79719692667457,14.76176354969411,3.6485742391393496,-5.886930168396135,-20.991813418465128,-40.226869592817145,-55.06782828198079,-64.31580831480296,-75.14748934314625,-92.57506272372619,-110.1366247631264,-107.05374556199467,-70.42642146975992,-15.78386635373185,29.251678221665387,51.141593081954696,55.315755777206476,54.81133008929227,55.39634119269224,52.304274462916084,42.537364696494954,32.597283583222136,30.58334339287569,35.36483078472548,41.70177722547974,45.96854865939165,44.98787791501612,38.28115443073008,27.857974274836113,16.644948719290955,6.3462370804188,-5.962242790515843,-23.298483612781755,-43.77462876783648,-63.368154015707105,-78.74574162467756,-90.72865425110771,-105.38685069566186,-121.64126841788715,-122.0889717205936,-89.03519998152083,-31.808968313666906,19.299498131220545,45.386179486409745,52.35154419981682,54.68932695090294,56.19532461890497,52.560881685377815,44.741009852069354,39.054257112946566,38.106687709784154,41.015443104508,45.64976603227293,48.81214024719056,48.73990933071889,44.67129900562273,35.58205757866652,22.516026255730555,8.178052745026186,-6.727762154366076,-21.101072506074157,-32.06364081160802,-41.613619656422884,-53.613669086319895,-66.48701090409786,-80.56147853840754,-98.77535589803439,-108.64934842315161,-85.80090645477144,-31.159765864455217,23.843936794799582,55.07689188745273,65.62948436609945,68.80473527113506,68.3808003960774,62.683962317689044,53.2690175111901,46.082545679861866,45.824852163058694,49.6778032793313,54.0774068305035,57.10279727109084,54.980673429900875,46.097286795246774,33.941783954393,22.166556746942135,10.2652320764703,-3.2358153195737764,-17.942470182348295,-33.14497976560507,-47.812333350887016,-62.744118863869296,-78.49998370242928,-95.6366412299229,-115.5648879176749,-128.46261407291706,-113.49453619466375,-68.12620750976808,-16.77851733766325,65.0,110.0,65.0
26.943910597386562,15.203010122408807,7.240256421757753,2.6823560361583514,-5.122476598573071,-17.5495934056058,-29.540883065450625,-39.37465669780283,-49.810576640011384,-61.40955843362933,-72.75898036563457,-84.84555753776259,-92.33128521951566,-77.89996112534119,-36.00184735422966,11.38413795546954,41.73809320925829,53.0889167737493,55.80158012308916,57.09409870474013,56.22184881459751,53.48696945972274,51.226734527545496,48.15566230485425,42.2504985338759,39.12976050617881,43.17480386944292,46.665894215515394,41.35556617887323,30.847769341339216,21.792837324651362,13.29398064316683,3.205147238962607,-7.022441074706509,-17.085442225253207,-28.149681188791938,-41.62535825875506,-56.506922784466404,-68.22317662407514,-76.80237042129735,-91.94556877491843,-115.69328013776389,-127.54414251743745,-105.11450152183671,-54.45654170775459,-2.6850694965135196,30.524321782740827,42.980382665866884,44.5724411001371,45.526962522463464,47.60784665857155,46.66289188131377,41.25568992079822,37.11463870194842,39.93046437139971,46.650786030396425,49.592810167343345,47.53213460192269,43.07713162162959,36.0926686008243,25.480236374694492,12.538033424096053,0.7785601906881755,-10.100403480238354,-22.925033067298592,-36.19759098828801,-46.53348704660195,-54.97963707403511,-65.18659029080554,-79.29421837510625,-95.10590649521416,-101.73573408406773,-82.36951504271647,-34.36365224435552,19.40027450033372,53.08279917341051,63.51491617665541,63.0258871696603,61.26083350295368,59.23875340875746,53.43465067661418,43.8592747072424,36.0719161382502,34.80598521276649,38.483087717236934,42.16628986715314,43.13911471162122,41.88515783770861,36.67962507310253,24.816137755550987,11.076940672181014,1.071244029971713,-9.494858928611466,-26.493767604827394,-45.25334084766884,-58.0674978294511,-66.93902096639982,-79.48718268074371,-98.3636237014977,-112.37940269476019,-99.76956613735383,-55.21914740822375,-0.7819802402290859,38.00868071815951,53.60127998208949,55.150594042992985,54.953684032440066,55.169767783887885,50.053904446200306,39.22079186380752,31.056832197566916,31.518378294076882,37.21548602961733,43.301200167921024,46.31946080055764,43.57200583702216,35.537246964651935,24.56057171440336,13.61349149906807,3.2081396343815696,-10.45277868186544,-29.064400525109434,-49.701249340137316,-68.3350916724642,-82.33216875568617,-94.45425597239067,-110.39826122672687,-124.44487444185539,-116.21873328682719,-73.77256977386591,-15.113569756254927,29.56344792403947,48.66188280174426,53.05713896977797,55.373801967949774,55.81107769286325,50.46436359528912,42.64981565277799,38.30790648830637,38.61655753749312,42.312603150325934,46.84054190939977,49.14807650236698,48.028661522128075,42.57436268129844,32.093828193702066,18.418801835480092,3.9434794007905962,-11.077266634390137,-24.6679187128869,-34.72883347272344,-44.80641537246652,-57.36433621841233,-70.23079039245103,-85.500644248727,-103.61003209014953,-106.15120715753427,-72.1977740357049,-13.76762969219841,35.65692384328149,59.60062068822293,66.91130886847179,69.13268246655646,67.29777756022543,60.154459845698504,50.63957209504011,45.29361708176043,46.742240465347884,50.95981830149845,55.22995260667471,57.187755280676356,53.033238001124296,42.70018537917406,30.443376689322097,18.842127015817812,6.528684898256916,-7.382183038819548,-22.340348109070575,-37.44374273921556,-52.03524159393382,-67.23151121946154,-83.20675450351166,-101.1946504531844,-120.91508690997867,-127.72955369284422,-102.76702652133679,-52.58060367320737,-4.639982135733648,22.0812525048206,28.07310940893504,25.79986659487197,25.044896573832396,24.425063971563223,20.37399470076843,17.02863348717824,19.954244056616663,27.391159706389168,33.890843751028264,35.525519386136324,32.64965928654928,28.835697039457056,24.115091664314324,14.29185988760329,0.11760907900593938,-13.008503836522465,-22.998332986518186,-32.53812368181889,-42.60997594632085,-50.2678612606397,-54.19671383889058,-61.29901658257204,-77.9919851166531,-92.90673296167327,-80.62217732660378,-30.0437244273263,35.96206913902498,84.1813676052955,104.05354835949267,108.70347137415585,110.84656896071712,109.00497152971353,98.64984649728306,85.30122472178704,76.45281548208797,71.07100494717125,68.20896985918776,68.57568801384657,67.47978074107867,60.25685852649382,48.82102809452928,36.86099660080362,21.36310175149633,-0.7795635943797393,-24.07951013896366,-45.2433109257562,-68.15735690623455,-93.8854868443032,-118.00228915421266,-135.5341246438911,-144.91019968576106,-153.58042787341728,-165.88416638794826,-162.35278888416428,-119.21937357522553,-51.11062688094333,-0.5149832415399891,15.508874975655214,16.481240774648477,23.211562519280143,35.89666885703994,65.0,110.0,65.0
-2.3048729183718306,-13.563546053936452,-26.899836339106905,-39.54228427043946,-49.009790055671104,-57.60280063839151,-68.84517097806648,-83.9661874494766,-98.70906949576501,-99.4126512248146,-70.84319820257632,-18.02209662801042,31.83730995063953,58.03883512352911,63.92096967940998,62.43952712370378,60.84806962606342,58.06949864652075,50.888612723707546,41.11997706287634,34.98524949446379,35.56772828278945,39.746098791084584,42.734426896654014,42.98818855855994,40.97708633932502,33.89026859020501,20.668208394667374,7.791053621626576,-1.5387797504711362,-13.731053784037197,-32.16791227562241,-49.69959151348196,-60.69927788134915,-69.90318750465306,-84.44830823101574,-103.84729617745376,-112.2762224192322,-89.60381976726381,-39.17189564054224,12.774535742023945,44.71465220968217,54.86624437741844,54.92103517180204,55.193717969655395,54.45198876352396,47.2548204157103,36.14597969562794,30.317128982886256,32.888055262399384,39.08677399309643,44.646804639371375,46.16047089372248,41.706566535815554,32.54033859401816,21.280509801519248,10.667490100001004,-0.2228652102398,-15.391463695637361,-35.00294946063256,-55.45548106565186,-72.87655899104769,-85.72554224528156,-98.58352269128034,-115.37331352557305,-125.33916255232006,-107.25283920694861,-57.06793183004741,0.2668973035559815,37.52361411702966,50.70659656061622,53.69419560380557,55.92984298736939,54.87817687625305,48.14261512749789,40.89386788970477,37.9587708780333,39.418117555842876,43.686719933077434,47.82652675136711,49.199403092852194,46.95753254470305,40.036416934744686,28.332204029338236,14.280116181956611,-0.3558087883601466,-15.31632533093725,-27.885128736504686,-37.405767777987776,-48.25567747772837,-61.09498199699142,-74.16631018461092,-90.83612658148616,-107.19110513012656,-100.3361560786559,-56.38818492774843,2.729016404781619,45.147600506105036,62.733636098292905,67.85951422901928,69.1285978981926,65.74118172129448,57.39539863655342,48.38614695933431,45.13205330199277,47.86544182730356,52.24565589638967,56.208341136695836,56.73211093662522,50.53424369855684,39.15786304570314,27.033204716948187,15.449759799321866,2.6475362667157425,-11.615952135159633,-26.75310831994237,-41.67901149275813,-56.32447231406302,-71.77360807660378,-88.07251370493867,-107.01409112204337,-125.24458635058365,-124.13842442268734,-89.7723375329684,-37.304028476962756,5.588264659691404,25.503418323497794,27.649137233640232,25.290583713804875,25.102681720152265,23.580867353820338,18.99845799794574,17.16111871243026,21.870504325828172,29.597652870024046,34.941772056504476,35.020907761637396,31.508203039851598,27.743118305614807,21.92438340451488,10.419869190393372,-3.9913598825310808,-16.147734021669102,-25.66679628982815,-35.474726781692894,-45.2355040192619,-51.65054216614826,-55.45346444390614,-65.2163354235563,-83.51591198587866,-93.21695294977683,-69.54043737029335,-10.919697983637388,52.772632308661606,92.53781054685855,106.16539669265057,109.39579227167597,111.03700734759768,106.85449175719967,94.64873176447021,82.18409834016444,74.68860127961813,69.89891931239474,68.08049171913676,68.71033741728445,66.06675515026183,57.162122058198484,45.40019736167728,33.023266542959064,15.53767416871164,-7.713861718990505,-30.308550081869036,-51.49971330735678,-75.44151716995636,-101.25240970005974,-123.93781582497783,-138.92969590154522,-147.0042851725235,-157.11103210735033,-167.88742067115038,-154.25608088108245,-100.30727464584633,-33.074815255003486,7.258118369743906,16.106154777811785,17.434686325440854,26.6853194536903,39.21705128955608,46.154868272581076,46.94856136204865,46.04010777328537,47.196006787966425,51.91462841302365,58.015088802768176,61.824171326411545,62.442443879242276,60.3396093648785,55.034655887220566,44.4360996155991,27.817335711634232,9.455348483064586,-6.88241017605676,-20.42429745494192,-29.590737032777316,-35.71828179190553,-45.39669786783137,-63.19893662508416,-85.15519274580039,-93.3882472870066,-66.72688361817713,-13.027236367728426,32.9438018104525,52.53110816271428,54.56323515459093,53.409366349367076,55.182551289787014,56.283136476142694,50.626844869876805,41.56437276034395,36.034265168134006,33.36807141123474,31.20746697342958,30.05813203444806,28.755313069857756,25.1609983447875,19.193656287537635,9.386507941906672,-5.916413992693048,-22.990830494878924,-36.87560472530712,-47.380560399192134,-57.1383796843267,-66.26703240380937,-72.19555013829351,-77.65883507249625,-91.16000606792628,-107.38016603375976,-99.39149025603326,-53.16943352613951,3.5883884421123895,35.76882905061318,42.57549002180388,44.87234126055965,52.180307005400266,57.35929861096391,55.70757043519411,51.55231463761878,47.02732746176068,44.28665737553692,48.68058125203944,65.0,110.0,65.0
-89.11341463362842,-103.15205289958202,-119.87438214185205,-123.76715962325737,-95.37625226360109,-39.75815561681458,13.791000755908845,43.342857260839494,51.945648700602476,54.36624033548663,56.204545554284834,53.40292439131795,45.78733024916076,39.538051479408594,37.98000495051286,40.465482583185874,45.04978743947856,48.56328073497669,48.95616366089865,45.49014272441936,37.07693501284091,24.38026566775275,10.11222413401099,-4.711364039258434,-19.3423084370439,-30.796952435150747,-40.232268849580684,-51.89658201597036,-64.78672986189673,-78.44248737268103,-96.31684078219968,-108.780569091075,-91.12830019734916,-39.24841787176642,17.641642425020585,52.40976631958714,64.87725019666149,68.56130045135492,68.72049584645926,63.7402644818937,54.55618432017117,46.66628937886124,45.50716640654998,49.0940265095822,53.51136154674409,56.90686416323755,55.67587198654566,47.57959082515513,35.58005258599788,23.69418985536876,11.935591252982492,-1.3553685923070387,-15.93033180812842,-31.140299319200704,-45.87744158381936,-60.698990876241915,-76.36336367287177,-93.1806834774009,-112.90967761498703,-127.93868533816574,-117.53329872780327,-75.18095800768768,-22.943260766641345,13.768325189336943,27.386322394358835,26.900718489014935,25.04668150403007,25.030083777583528,22.414482531477983,17.87043622783124,17.90089265343198,24.045625128846183,31.588753582146143,35.519805282050115,34.19803652917722,30.391892742476404,26.49819147338925,19.200247658541223,6.289418166617287,-7.8735263630451655,-19.038108459696534,-28.39040886987674,-38.43043152355849,-47.55745904328451,-52.74323680970801,-57.244841674831044,-69.99870854299596,-88.3923183799912,-90.57245423509765,-55.29152587299953,8.609108200827851,67.38115138086181,98.57980749245543,107.47626025019447,110.06024943231088,110.72074034141164,103.94470090888984,90.65127574952717,79.55364130930211,73.10974221387993,68.98080894162429,68.20689416786809,68.54629756504566,64.07958679581458,53.83491747883481,41.99438566863958,28.725473706573442,9.1622347553563,-14.535777246037389,-36.38024474609941,-58.032620961882756,-82.90941149306943,-108.35422448751251,-129.20235991999877,-141.66799934947264,-149.33257953041525,-160.90540942159927,-167.8002007780671,-142.4457403388185,-80.17845127867038,-17.582360567359572,12.19520837261141,16.160905369662753,19.204837344791272,30.45434604326384,41.99863480957887,46.841300930046785,46.66277219907305,46.040965223278114,48.21316519865732,53.718679118023495,59.454823457505874,62.303389427985046,62.11046263755823,59.19784822716605,52.628852386490244,40.14786584512725,22.44044203759525,4.47981872850341,-11.131945548897345,-23.58496807889034,-31.435430709957913,-37.845336996460205,-49.662938243333656,-69.62285289993851,-90.06155141136618,-89.72338597258843,-52.61530624054524,2.49809674782007,41.28897199672001,54.19617269716765,54.09689232532561,53.60956704442884,55.91776505530463,55.41677978761885,47.97376708103077,39.47628517806945,35.14263095962244,32.689374452924156,30.760071365734767,29.819078545598714,27.985767571648392,23.682219264348348,16.888264741141693,5.478281425066655,-10.942157859928987,-27.44266866095359,-40.145593285505925,-50.18764149064762,-59.948136896147346,-68.37292765274988,-73.4469131169762,-80.49634997125854,-96.4855794893808,-108.8680787236358,-89.47775566978706,-35.91871478254026,16.207671948076662,39.49372020324703,42.87936970730035,46.59182614503212,54.32701445195337,57.47411534495592,54.55845713251704,50.29437749957923,45.787025449466476,44.74030548789173,51.00192484645739,57.453193548609846,56.4201604781922,49.67936440910181,40.48285008249158,29.31423185778859,18.37307317608447,10.342427261851995,2.8338644835940903,-9.718573349735248,-26.932940809459225,-42.85851249055552,-55.99277564873131,-67.21997625901199,-78.00066132625471,-94.03543846301982,-114.61206285149203,-118.61633505202754,-85.02817480034318,-28.889193642023347,15.38129323286052,35.72291358721944,41.29502085921752,43.44406072126621,44.68409735113501,42.621565817348326,39.49966081960925,38.356567978790444,39.06861472464551,41.426957680170226,43.731299513996795,42.82632647676335,40.097389268437205,37.43216184855587,32.12344407002535,22.537116862462685,11.146736128705045,-1.3714423608763298,-13.65024977443017,-23.25416773942286,-33.609819072313805,-47.80144470537515,-60.437939910638,-70.0803015203226,-83.46329883317254,-100.77455259707182,-103.29043102238256,-72.40166266059047,-19.684116133554305,25.7280133262916,49.89498594685628,59.223061401189376,63.89649607593827,65.28652663175292,59.56251311655338,49.60071580904172,44.68944219466322,45.14511399501766,44.18724213350316,42.52280992226483,42.01463982092312,38.0650372989148,30.22434102596533,65.0,110.0,65.0
-10.013025834714226,19.906538077444626,28.065067595436368,26.11540632788987,25.01753563545706,24.693606313481762,21.035883307471966,17.16991499022289,19.19651594439722,26.335823228413272,33.2557486988354,35.62612764172462,33.165050122012566,29.322313995222355,24.960216854359885,15.949597929126128,2.058903292249369,-11.460755267991107,-21.767032795901333,-31.207373784870093,-41.3236779889104,-49.50453977260736,-53.72001167613083,-59.810710292141934,-75.40091301151546,-91.92685545507447,-84.57057665985195,-38.45854328237567,27.610952396253314,79.47862655617544,102.68620291524059,108.36197411772014,110.6428192935503,109.7251614826432,100.42085389088501,86.89862934064716,77.35185349859104,71.67818861687094,68.3752508935195,68.46102888748084,67.938267397993,61.566783012897375,50.40697343598867,38.52235119253158,23.835525161446043,2.4058141446713543,-21.128546625931524,-42.42550654565914,-64.88925249457499,-90.43437715945592,-115.06962222982358,-133.7156436745409,-143.94405382475847,-152.11577608579486,-164.4872846188352,-164.8488189784306,-127.21698997922861,-60.054345156597385,-5.156169454274776,14.858006143263628,16.27721278129187,21.785289367196647,34.229525108783456,44.15021949789299,47.09565708386258,46.350582157933665,46.2906685655244,49.53801307650385,55.541700416401206,60.62689075956276,62.529534316375695,61.55819140297527,57.765848265096146,49.709027264150976,35.38262785733076,17.070253368216104,-0.2873392605878316,-15.132752481610433,-26.323855252712498,-33.128004827598026,-40.45526600863084,-54.67321706345051,-76.19277262114205,-93.22630628537351,-82.70473236806274,-36.87683917090395,16.446498924193747,47.31489852798845,54.79710872142768,53.662097332875646,54.10919328062503,56.41232288779445,53.88041112966109,45.24269710302282,37.80587095985028,34.3865704261389,32.03907985409478,30.420227647476185,29.501751093964547,26.990063263199964,22.02128748387018,14.18698665281181,1.1029314671954649,-15.962429047375693,-31.53772851437617,-43.18506333579029,-52.99957264128839,-62.66144138671972,-70.13771799274303,-74.83099814496283,-84.22951756353484,-101.65758328029108,-107.50981946200365,-76.3962581681028,-18.866566054576516,26.12720837177463,41.49035597518841,43.34842975838459,48.74507394051341,56.016470670007024,57.03298620990648,53.346418942836756,48.98610216877979,44.81725117490325,45.907257656359256,53.34033306822225,57.99890614920566,54.84816832859095,47.23495273741774,37.422675018929915,25.964668466224545,15.736958189249098,8.371909582079123,-0.10216183106774836,-14.472643628718862,-31.857211746580152,-46.880649018365034,-59.42591733116,-70.19943742262899,-81.82244543077067,-100.05343362875713,-118.7854769211173,-112.93681392283818,-69.51355389128432,-13.749808526839953,23.52869416224165,38.255717243615806,41.95159724950394,44.02226117485264,44.43883269065041,41.62970176863783,38.9339939740081,38.398257474920875,39.58657677093414,42.26777050016434,43.84515772382428,42.06575794930907,39.367996884813856,36.33956748703048,29.71635071754899,19.337768735592366,7.659239929289982,-5.099448479650328,-16.68616255242535,-25.88532945245701,-37.440734573184415,-51.888146445963905,-63.30657908027661,-73.25996064418784,-88.53386920728163,-104.18447650832339,-97.9618234000152,-58.123949468536495,-4.7289397944540035,34.88706178369636,53.56999046698043,60.79313409742726,64.80662032613436,64.45165557018693,56.711992541577196,47.36737407324034,44.59729460923121,45.16681897555315,43.575541573415734,42.38325438088205,41.438148693700626,35.970414837979625,28.049043064685883,21.949005506688863,14.52788899915054,1.1250766337986455,-17.119550943596302,-34.20357094375566,-45.52603530423315,-54.67209873069073,-66.21085555818384,-78.87778879754556,-94.65867469736534,-113.34910348350894,-116.11502028794368,-84.14537195567249,-30.934614640738882,12.855296272248353,35.54882865514905,45.78940030885666,52.698190737290666,58.35100872763716,61.33970533574998,60.14484433098739,56.27876886348753,54.27453843025707,55.38052438632283,56.2152318074175,55.81458139888856,53.587699963523164,46.641689751277674,35.65744154127423,24.90139764039501,15.549304072276867,5.179747373445773,-7.7850737710495155,-24.294846181250485,-43.602315569281714,-60.92686361439363,-74.87339768246656,-92.04614375039806,-114.21129293910569,-123.43295938926015,-98.66453430390656,-48.269923403414275,-3.7380151140007145,17.63922561529402,23.61013272365954,28.78226766207259,36.734905928016815,41.582397817980464,40.14708036589443,37.41373737761703,37.65355794082611,38.79373180183599,41.39515826412513,46.37714534743304,48.585911479608924,44.29143655856177,34.736006412020615,21.762006023551155,8.42681149628635,-1.99405718992291,-10.695777247262384,-20.850114161916572,65.0,110.0,65.0
37.74450731679392,45.660927733954374,47.0425537036478,46.10641459721393,46.83653697767724,51.120172647636885,57.27379995986848,61.511997106972075,62.52154208316432,60.77903883243761,55.988832400627004,46.23083397365389,30.25931733418532,11.817670901155633,-4.848988506132944,-18.834638522421184,-28.645541156886058,-34.855531615338,-43.67809725295495,-60.37386899448862,-82.48880652568545,-93.99779625414132,-72.4400596185042,-20.50732940581452,28.281781679415342,51.288722353499345,54.72656854174439,53.423979387871576,54.822175371831754,56.45883094791369,51.75780591516248,42.65737972358587,36.52069331211517,33.68518885712761,31.449568013057135,30.16296697600315,29.035665663987036,25.782541540175096,20.146422716348727,11.017680022997638,-3.642098436646713,-20.830693765955704,-35.26949026868546,-46.07603877032023,-55.831139839427735,-65.18910539498648,-71.59619407315843,-76.62176801011466,-88.81761804632079,-105.93652681076013,-102.77844316838006,-60.87697724158206,-3.0503433352858433,33.31343836151715,42.37510841615086,44.263497215572606,51.10264468995878,57.08967895771268,56.18762524982882,52.12120190104038,47.64109882535972,44.31352489942518,47.69719375849244,55.4063232099685,57.82242944562853,52.92427110429004,44.62249989959692,34.20057861391622,22.724380729743988,13.385556433005029,6.3208970077961535,-3.5977708208148704,-19.49751337397752,-36.53132601725066,-50.70249867614981,-62.70118070927669,-73.2084033353928,-86.27495131740001,-106.28017354369905,-120.83238001219577,-103.80013394369604,-52.93993376159338,-0.37849935716223043,29.699952889643907,39.886497456384575,42.55107225359001,44.470399945148536,43.87446685136798,40.66663944147952,38.5682974833641,38.572989805793085,40.252317103748055,43.01907786903289,43.63103720943952,41.24853518493527,38.646547625500034,34.917777850763834,26.970181851836532,16.06310652689451,4.054959675539425,-8.726635339459346,-19.46383246011469,-28.748249943513105,-41.57958389652299,-55.64871766552767,-66.008137460273,-76.96399996063198,-93.78837037370015,-105.69752353182098,-89.56608435611635,-42.67163083774071,8.913136852736478,42.18036484194207,56.30736668077192,62.17059540993358,65.36885244323929,62.92513536203404,53.69915348339413,45.78810827975542,44.79938434518658,44.92623219266003,43.0285393440997,42.313433667369445,40.41630631801705,33.652357096415635,26.093421721403903,20.217035199570546,11.3428899365352,-3.8508818337877053,-22.490712929359546,-38.06877577338323,-48.08183925710374,-57.74971492514126,-69.80718748758345,-82.89472992628293,-100.20620485592738,-116.98576174965818,-110.56494438412616,-69.54546547284966,-16.259154146900602,21.411056150199904,39.249888813859776,47.924090412722755,54.490371174817454,59.58021741080975,61.43946433582329,59.12306353150479,55.32787353954643,54.39229795375782,55.78012789038126,56.1874237172333,55.483342523224074,52.1520058404278,43.702257326351905,32.37566556276626,22.130096405023004,12.772379392296031,1.7261652200358855,-12.138639093264294,-29.754980150430626,-49.023931946734315,-65.13122041777491,-79.14170079984137,-98.33917359242021,-119.3991043092721,-120.1309451185805,-85.46040237088727,-33.506871854374346,4.849376241391581,20.22459352849748,24.74696711027319,30.98028881775883,38.74144973257814,41.725537970302106,39.16555600664459,37.20410164852004,37.98392947212299,39.25191391015763,42.730668492320845,47.576751703036216,48.01692123549732,41.977349304585594,31.253666375762883,17.754740289030362,5.0681856532840746,-4.520634401341392,-13.40550460914787,-24.150436718858348,-36.08866681074097,-47.19593501320069,-56.7160993925529,-68.20700617337299,-84.23785827965733,-96.14118721014493,-84.31653200948111,-42.15925424718328,6.996778726640157,36.05834296704186,43.691326418857116,45.07044022521082,48.846467653183694,51.408932868713315,49.44595446986944,45.884170856298354,43.38831404327847,42.438396288713776,44.223629879480484,45.56675190543828,40.55965219815296,29.99020256387757,19.28535067411868,10.919467383887854,1.896923844617227,-10.099323996465344,-22.582608660357817,-33.86619897341835,-44.16171118533602,-51.699168062594865,-56.96661741974249,-65.83323831423279,-80.95082951216347,-92.85612235398457,-85.20986824064613,-52.61687645097925,-11.536001744884159,16.674094256036316,28.59912183783585,35.0046384766498,43.49613381506324,50.97804010582907,51.35904657812469,47.342081202647805,45.68798246642664,45.56621406095559,44.22435192085159,44.324793160937034,45.53559102062581,42.45710385597779,34.241954604739384,26.354269997425817,19.859592602924796,10.899706909847831,0.6682198622572473,-8.555833578463336,-17.672205645958517,-26.48558986554491,-34.401719477446,-41.604198003596395,-46.954388028987495,-52.66606706385002,65.0,110.0,65.0
49.91150136462511,56.95809757323042,56.9920185159289,50.748704512773244,41.83204400036758,30.86755556909018,19.686136239662517,11.266970123241663,4.022022554952071,-7.66669162161892,-24.60195635778313,-40.924191733088534,-54.35852398479902,-65.82338155731011,-76.40842836825269,-91.43230833661848,-112.1842418818577,-120.06403301135293,-91.54884626967562,-36.31558352428305,10.909222246245482,34.15796783218556,40.93274379245947,43.16109438906031,44.685701883697824,43.05586579620116,39.82748742163486,38.3858501407755,38.87995059735108,41.039365177367166,43.57027073770845,43.13087632945266,40.449201571672894,37.85194065758863,33.100671076629126,23.975422394957317,12.718182169022436,0.35310273183737534,-12.15592519193357,-22.070798845237757,-31.97861994665236,-45.84800439839594,-59.01438778594541,-68.74533003980761,-81.27706635794736,-98.75110265520473,-104.71213414953692,-78.3688569178921,-26.86955451564199,20.85536773878787,47.796396462969206,58.40352652187642,63.39319193088062,65.4479259117793,60.749421702876354,50.812314429837734,44.89335477724712,45.060911388719866,44.45512400141046,42.63951759530545,42.16082023422413,38.91069648774705,31.286878468639753,24.341135488120603,18.21869191741512,7.5847694826676575,-9.14291352140087,-27.579704891121825,-41.40000663599225,-50.63558871273442,-61.07209254127268,-73.42832271723765,-87.3135295651277,-105.87491249383227,-118.60819287395243,-101.8485428296187,-53.89003014626492,-3.0827340183491554,28.209892542323367,42.22929334269955,49.92750461208077,56.17265257642133,60.53536462627946,61.163524155952345,57.959496786294906,54.65758023484167,54.729271543341355,56.058245042347615,56.087090971575435,54.94441690975065,50.24805165431637,40.508742479548346,29.219498165723188,19.451798730139597,9.834646003534115,-1.9544011743637113,-16.82900060755297,-35.380413732508295,-54.13764069907067,-69.09927098972585,-83.9169965183703,-104.94815744848793,-122.84782771880131,-113.60682180014904,-70.71845750280443,-20.05786772941987,11.364313384904605,21.908519633186856,26.131185434746772,33.34647084827396,40.306092409730965,41.34365952453406,38.27372208311336,37.266228494478725,38.30404837695094,39.9196999508569,44.22624039276461,48.372111459125826,46.87753890919928,39.28208789550702,27.519914420325005,13.82357757428605,2.0083208180959033,-6.989341912835762,-16.29851984695331,-27.556337809588396,-39.47769864747838,-50.0338161652047,-59.6073156795605,-72.46999697362095,-88.87297826720989,-95.9876560410707,-74.72392475964669,-27.17372935970549,18.07382153429587,39.88003774737188,44.07996040523393,45.91483703269818,49.98845651776951,51.257078641583625,48.398735988646116,45.02593214590979,42.90712881578616,42.67239215093496,44.963086618114346,44.90557040082151,37.84965733664255,26.695661103350815,16.67726247695509,8.573731605403504,-1.3053092548692524,-13.806975193702582,-25.94282565967165,-36.9839632639161,-46.71164082666978,-53.26395691867655,-58.86880131054891,-69.72576353052439,-85.43618984670533,-93.27724651661057,-78.0109433226627,-40.50680228471939,-1.4854793265685198,21.427442093970594,30.49706512018684,37.187476537568706,46.1023043546155,51.91200409527544,50.29229944387749,46.48270556271813,45.70668978210397,45.25839559667082,43.96904930074709,44.77585908061405,45.2891634606034,40.42005489716137,31.705725099295755,24.51335152185301,17.60353436151846,7.8994356912478185,-2.0854885568600086,-11.16475086362803,-20.30363865384586,-28.84513713949274,-36.591653825371075,-43.36357832766089,-48.30962327177659,-55.32653464991223,-70.43215485550404,-89.19084191763893,-91.70871210459302,-64.4800942797134,-23.64800813511074,6.661412271497738,22.06208565616434,28.29829348111441,29.566225409204698,29.726331337304458,28.561228245339464,23.18137282491003,16.511220825336938,15.082164074428347,20.523394571196583,27.70834553319666,31.684865630313766,32.18264860831721,31.485042321688226,31.63258211806703,32.688205769649656,29.56538369400049,17.600248353725824,3.033652721090194,-5.200060379628172,-9.759825906537268,-18.765093001823928,-30.86268888322751,-37.1646337705035,-37.41827364598885,-41.47874595410774,-53.38962785151462,-61.345829047160315,-49.07800216066972,-18.462512335183295,11.044849360884202,26.253405546750134,30.343767409674356,31.895923155169836,33.600334677305256,31.65161602436535,25.089917121968234,19.421784889605643,19.01262647505152,22.892983263822728,26.41352344266691,27.558120385735155,27.71186629042245,26.062657746973724,21.213525564273723,15.16186323153301,8.743249133185007,-0.4609507262311635,-12.12797597275986,-22.81241975700241,-31.192648984842172,-38.715969631692076,-45.553884314986,-51.51140981449542,-61.04194364868748,-77.39406392757049,-88.34383820682173,65.0,110.0,65.0
29.026610598467375,22.7033280365566,15.808517173949994,3.278083977689689,-14.598067888607691,-32.23375933471434,-44.295273185269956,-53.34340003639912,-64.56657023368852,-77.12100282996684,-92.22737259341729,-111.188965661561,-117.59603669052747,-90.28181646760244,-38.06217121565802,8.27105476079957,33.517044145754056,44.73782870257013,51.84220821255415,57.706736036201434,61.16770116023552,60.536767700906346,56.7856808764992,54.318774546857654,55.17260910356082,56.195052798832755,55.920866810493216,54.10278167212449,47.878082941151504,37.19273913774897,26.226097189299587,16.79199647309893,6.69793785621736,-5.881870773428666,-21.864942804787805,-41.03055875914042,-58.873751773656544,-73.01898692631313,-89.33030641024386,-111.42823147746165,-123.90221511943244,-104.00978692797814,-55.33262149957415,-8.415425594650822,16.02442107337143,23.112371184039432,27.86473309397793,35.70377383265244,41.31763783224858,40.57792321838213,37.61559490949323,37.50942119148611,38.62670726988192,40.86317163440835,45.72984380198299,48.65027978219694,45.21617329219437,36.243773975558184,23.60362846816078,10.072652908235243,-0.7811754486353297,-9.50039739522554,-19.375380287474602,-31.022432471817677,-42.7388646586562,-52.752637103881916,-62.79828829010309,-77.12313539320489,-92.80253829724083,-93.3069801489603,-62.71933947411243,-12.447494841899406,26.979058751830156,42.17527007410062,44.35956057262469,47.02294912149745,50.855140064555215,50.7210322909959,47.33067349450076,44.28339768277229,42.566667793214364,43.17168113484194,45.50656994123854,43.59463356255828,34.78526446459304,23.52830300523674,14.269046847228475,6.052877447768602,-4.761601937781193,-17.456143994133573,-29.20880682663215,-40.01401713059319,-48.963782598052894,-54.71191397401075,-61.256477230584196,-74.11760260493527,-89.29024962535789,-91.65476672127971,-68.79652807866674,-28.297331765062317,7.060829864359796,24.965484074190773,32.25255059231997,39.63404088714563,48.44248107950027,52.14127633719727,49.04484193045929,45.951211858128204,45.73247191668957,44.83682311742393,43.94143766397189,45.22547093097231,44.53876849794177,38.02487529843371,29.359960375956884,22.711919335938934,15.054992731280501,4.8982619971172285,-4.746416575697232,-13.797748565116278,-22.87795343227014,-31.13503584283594,-38.717047301720285,-44.928156060648014,-49.814800649660725,-58.73356161093398,-76.13726101906416,-92.61086347995801,-86.76109321099032,-52.785635782220574,-13.209257542203126,12.400807580151406,24.591970147642435,28.994450292326995,29.61266630517891,29.685470288195027,27.461168941137036,21.08577048497316,15.338469505083495,16.085956004992582,22.712562025215416,29.287587408215295,32.09945953243735,31.997489664933966,31.37457495757719,31.957644914249123,32.54980384889587,26.973181684896684,13.143509244031996,-0.1365792725221023,-6.491613803986919,-11.699529840600707,-22.332213486927735,-33.56458040185831,-37.50883663253177,-37.75955787305621,-44.33758171584515,-56.93961024196277,-60.279828603791024,-41.410434097806075,-8.922935053895216,17.029210408708096,28.168223379362505,30.771308700654295,32.47223686611727,33.60303762537212,30.060474711778944,23.07820094436849,18.70048028477929,19.87254375542186,24.139819601559317,26.940362343528392,27.670091711263137,27.528330255424315,24.9609516473109,19.463714530469748,13.434955288168075,6.451595011687342,-3.7155135236786547,-15.450943192957004,-25.42843146681143,-33.39291956191754,-40.81425399748303,-47.27945543754487,-53.59002084868859,-65.24745736792374,-82.06562802885531,-87.44320735721071,-65.51903611538529,-25.34052786663577,11.285916806632155,35.17331475925999,47.34318137161808,50.174313779007825,48.37692703311634,45.557052202975896,41.893057458049974,37.786061825571316,34.12868200286408,32.925487576309514,37.54756485445865,45.0732294976268,47.98047914645985,44.83201418618933,36.9789136776595,25.448578766297988,12.546656235945495,0.7129333851867758,-9.807686295275811,-20.495757336465307,-32.149029246659275,-44.30275562272852,-54.73963023577585,-62.389127593084325,-73.36229915566479,-92.21364557454271,-104.04314626619117,-87.40117758152115,-46.03693984534662,-4.108536721651674,21.680512828014727,31.556451514313448,34.14323028420609,34.05871482188613,33.4804158568238,35.50924589903473,38.97813885833284,40.748144597431974,42.12808202243804,45.19282955122713,46.02229643869257,40.98152386486392,34.17077912587639,28.050599062243204,18.643776333328095,6.600119237840073,-1.4967037787765245,-5.337554699795103,-10.893923641876135,-19.4389472315863,-27.894893483690034,-36.31042397715194,-48.64306014048298,-67.31247893539756,-84.65645193587503,-83.2652766798477,-52.80697086829714,-8.07966563750602,23.88157463955126,35.82555673151642,65.0,110.0,65.0
-22.613179114988085,-34.498195712051135,-45.83142057962498,-55.44747487087377,-66.39504225546752,-81.99423756075403,-95.48365577675162,-87.81588969457019,-48.91526230504502,1.2270563653812605,33.674542305942175,43.380468449727715,44.78411127880046,48.27079497881484,51.33408007360071,49.89391645173123,46.31845355586671,43.647415416946835,42.42258854132992,43.86926438564824,45.66666105680672,41.64936623121632,31.520927746903585,20.56849249854316,11.97254342627171,3.275526743363708,-8.393403812422182,-20.9940167684823,-32.40878472915689,-42.899415105402646,-50.90266363222023,-56.20868578592444,-64.2424432511917,-78.78815012400185,-92.06388424459396,-87.77662379415669,-57.98686561954635,-16.60482299111227,14.001800793188725,27.598619642753132,34.088603345024175,42.26298909532405,50.31652390011023,51.7276372686386,47.83579507245166,45.71925720364122,45.654625515039875,44.399073163032725,44.156741051462994,45.507613615265235,43.23779436907414,35.443941515417904,27.252343752834918,20.80732653396426,12.252797743139446,1.9767558304378265,-7.357101854197762,-16.44959141590645,-25.368542247783054,-33.378807499434686,-40.72932905149412,-46.33529181204372,-51.653399740389105,-62.95113588833081,-81.8719184479783,-94.05828010081117,-79.22373514816074,-40.66789551439251,-4.101930576599362,17.0050167265091,26.490195321550853,29.366899136533377,29.659427118709853,29.456765947195272,25.95565427956985,19.03601234095672,14.756657258441367,17.623334986191438,24.875773445597513,30.517612589602564,32.26347882490107,31.774386418290494,31.378496866806568,32.33031230814477,31.87063820050407,23.59597504540294,8.753092782340355,-2.626289249556102,-7.682395806221377,-14.188520594009436,-25.97563617159985,-35.562392975855325,-37.491251766386725,-38.70754982255662,-47.81682026974499,-59.7069208127309,-57.1889212500033,-32.51733951265721,-0.030910548022869327,21.669414654125656,29.369268868289044,31.17907696914707,33.04039337237727,33.16741435268388,28.14295663817593,21.313401087978953,18.47880157512817,21.010815699397572,25.22807298015306,27.279301924913575,27.738979751990183,27.133327317632606,23.584394382681797,17.697721444249588,11.645495696779022,3.8596419757204616,-7.115036327211294,-18.599977415535076,-27.86157446865372,-35.569496415891145,-42.82605263523002,-48.94646865902765,-56.1462766516313,-70.02126967165397,-85.78949171973002,-84.06034640705214,-54.76949381817472,-13.661155358216625,19.524206734980332,39.80125781662375,48.967500199025785,49.887071270440345,47.627289993492546,44.59160531101967,40.709181463338496,36.64353724934649,33.36392104226528,33.60034965482943,39.78704087614232,46.59673755565936,47.61377289966201,43.01746580128173,33.94537207954556,21.739472945624502,8.946357008566432,-2.400132914208588,-12.820686684047848,-23.759354643836605,-35.668878183164495,-47.627867238618606,-57.12036463210002,-64.80022995081661,-78.22047392543526,-97.49162175327153,-102.63446324439221,-77.0452045345824,-32.92342965981401,5.285019400933337,25.818455452863965,32.715229501513925,34.32980777049261,33.78565591393586,33.736144219070084,36.540504053139905,39.70902811715514,41.02435036533216,42.891728938689056,45.944149606896026,45.11502563109067,38.92852169055726,32.45478757316773,25.82897001055096,15.159079909057795,3.636577906101449,-2.801067106861751,-6.552513270283759,-13.190259680168682,-21.981396451668452,-30.20827563243049,-39.257888921997754,-53.47547601155556,-73.12746515446632,-86.97927780038424,-77.32935107718602,-40.08247517581804,3.345950479144295,29.011995038632666,37.16655221395911,40.051198366441184,41.88942955746198,40.839001516233154,35.39545962771615,26.52590183855746,20.30563892935676,21.225041880579393,24.665568019437234,25.914536355437864,25.678488215573616,24.81270695159373,21.93182150424174,14.235677227335684,1.0575335507672416,-12.232359560247874,-20.803892964898534,-28.767850598107366,-41.250201806509104,-54.11687984439695,-63.685832362073306,-75.27301117005938,-87.83337697922511,-82.15749805865207,-45.768156149938,2.2565715910562236,35.37802785338503,47.10698282971339,47.63313904669075,46.056619445382395,45.636559347277846,45.54901446134113,41.953577169327325,35.415386820595224,31.90941835376229,35.77592666132449,45.04604625021482,50.89472717490189,45.30189888236568,31.36916090761128,18.418244626035136,8.354065018731024,-2.484636711136983,-14.802239712236071,-26.144877560381712,-36.82230401722674,-48.12817024281147,-62.44813362375048,-81.32217229966379,-96.31180570557888,-91.36469291844959,-60.835792889393076,-19.35393833341021,13.1834766622742,28.11734595812947,30.959217466790516,32.04614356488332,35.35139506872945,36.142053438720524,30.366542706612993,24.527028253638118,26.361681227331648,33.184628067882024,65.0,110.0,65.0
-54.01446230130131,-67.9284798700329,-87.10934955015163,-93.06780215641538,-69.5160244036661,-28.83993836867426,3.584557121902348,20.655399544473095,27.839262045862625,29.530350010777802,29.712003028347706,28.92967168242682,24.111868060795867,17.22059958562677,14.827550211261517,19.550402011196375,26.873418204085226,31.393571657914656,32.2394259509107,31.564605215329216,31.520335540867936,32.625047410833,30.478990933062608,19.591431675050178,4.714528662968034,-4.500597342011918,-9.026262964036738,-17.21728654144538,-29.417054912072167,-36.81802569604459,-37.4002806481231,-40.41777790296503,-51.628267354590285,-61.20272537553224,-52.07164225102939,-22.944882226929163,7.834711086700721,25.061412666138256,30.101969309484677,31.65020603290077,33.47985472218306,32.241443220558246,26.058274638970534,19.91722614439548,18.74193056666664,22.29247697529632,26.094668706529152,27.489211478420543,27.744096357470884,26.469238398066622,21.995131839272112,15.95613657014118,9.70883199322911,0.9656109348353218,-10.556161731885387,-21.534808519984857,-30.161801951285668,-37.72980584383971,-44.72184545179303,-50.66209396440053,-59.3349675151512,-75.07988389498615,-87.98836946998871,-78.16297440844565,-43.01622212002366,-2.7703568997605212,26.649627070860657,43.50567859385929,49.87496531403893,49.36226371465563,46.830344128212104,43.54507823091219,39.51220162826999,35.55304964204421,32.882641999190284,34.842429967846726,42.086817424467,47.57322458741038,46.78539797442675,40.82650376129482,30.64057883096883,17.982543636809396,5.489731472269725,-5.432111717645341,-15.884439688542443,-27.110979203888952,-39.20924891448885,-50.72910200313696,-59.284080611200835,-67.73360350299289,-83.74065263168706,-101.573915049966,-98.42202506580024,-65.06261313180092,-20.408762362780436,13.091447697734845,28.788576840994597,33.48892861815204,34.3280505149147,33.5490940841623,34.27603400452556,37.598408879923745,40.24238687408643,41.35994428659001,43.80880600817564,46.34166973407515,43.69687021753022,36.90190997052738,30.76419563006528,23.20433268145312,11.576769935694532,1.1726314085835032,-3.856573730189519,-8.068035704365464,-15.677501669183297,-24.443910094074152,-32.56559624875544,-42.66103408315128,-58.84720577994488,-78.51565717150686,-87.24980016887238,-68.88610505374423,-26.818241966215094,13.08406416858738,32.60089524587236,38.14688522006371,40.73823201036018,41.97575414131762,39.748564312497386,33.01321821961833,24.11040579163055,19.890847446179684,22.28323554253908,25.28733506016176,25.91984315591883,25.515200466897205,24.296984736667934,20.32532349462242,10.86549368743898,-3.1073826842338765,-15.185201766581567,-22.818954620641712,-31.917445064348968,-45.259885602012524,-57.10311776920322,-66.55026974022428,-79.35975222998294,-89.11977096714925,-74.51736058409996,-31.704467897013956,14.107714248182715,40.67389687983443,47.86763084287198,47.17389049387216,45.766488828764295,45.73316575057309,44.99843280234112,40.14357951848018,33.818634848880514,32.20599471090491,38.19142847073088,47.56132269445794,50.57863903194603,41.68926746964506,27.250398409623077,15.352055149446638,5.443281522605059,-6.002298181773954,-18.235808406591094,-29.225886309033438,-39.97061806670335,-51.79329937546772,-67.55838341583681,-86.73619281235473,-97.55579048368479,-84.85999127276774,-49.00137525764686,-8.364315795424085,19.295190994296654,29.689473676531694,31.104312036469683,32.84138968553179,36.1716980327199,35.055744002269684,28.215269247545177,24.170482535649825,28.171861492034246,34.97687398502382,38.69656802844914,38.76128842148298,34.409159658793044,26.022383576494782,17.09194697616393,7.3891135688641425,-4.228775923306039,-15.896323184894516,-27.058816385044967,-37.78222764896293,-49.350435477476886,-66.58386461744469,-88.76291187092004,-100.50838762718777,-83.15551124371298,-40.50330702381471,3.1077188498350665,28.524472568128747,35.80402772957635,35.012467742859094,32.352536135301314,28.70851153426299,22.9573368872771,16.57375830664685,14.114480790618021,18.167586007930268,24.67625230294921,25.13588578800012,17.935739528855887,9.980645587689523,4.972706863517751,0.10139531088187763,-6.985241541478537,-16.387373196163427,-26.624262426595173,-34.62047204540121,-37.81168276495962,-39.140205726602105,-46.808443593845254,-57.50268911520134,-47.83829262434092,-5.526862473097573,47.97485215630215,85.72835581906956,101.52718400990558,102.77103954399564,96.04978120482733,84.86158054640549,70.0474973005926,51.16469935158027,32.328741383472,20.599306929354995,19.783211887217778,25.147026970222345,25.7464542890853,17.76785038106407,5.426137572359117,-9.032142285151489,-24.88998452456695,-38.90801123695229,-51.08205100544137,-64.95268371095847,65.0,110.0,65.0
-88.15585093097154,-69.96318670774667,-30.893483210350826,7.105961460788458,32.71591415888375,46.32717296177219,50.18903373869006,48.705465714630556,45.97520683122867,42.42716477960008,38.32511208630056,34.54795310573609,32.79966958582035,36.59953493568345,44.2109272496661,47.97872127208165,45.53943864601826,38.27224345543849,27.123627589775744,14.245398745907918,2.1873167358411223,-8.427552927374066,-19.021152204440472,-30.543255695538704,-42.7164766834492,-53.544987482088665,-61.383861117495464,-71.39586606078166,-89.56673162941864,-103.79933692608375,-91.45927818735166,-52.129848926116644,-8.946120009262966,19.316044888399176,30.845702366763607,33.98868267298727,34.169424362998626,33.45244999573175,35.07380414444673,38.57705939879241,40.612526468097926,41.841766605806114,44.77346856360513,46.25090470390766,41.894846416238764,34.99891070174777,28.96085760364121,20.16604681024162,8.106239244152817,-0.7656945651039131,-4.849854637174768,-9.926661632932168,-18.250217226980727,-26.82097090527775,-35.07130156130299,-46.61711512313302,-64.60001478981123,-83.0162303177343,-85.11797090635032,-58.279224403203784,-13.798328818105425,20.91620909989253,35.00891595036548,38.96295095853269,41.3297701725655,41.76286206600009,38.26447383244209,30.404895038649656,22.12388722697866,20.099515369132646,23.356113224299413,25.67865646166044,25.852225085184056,25.297895914107293,23.56040307469653,18.23626084022714,7.069075043554506,-7.085051905555624,-17.692760586696927,-24.981947395905635,-35.5016704830783,-49.09872246605458,-59.82203171733397,-69.78692233931021,-83.33338200095427,-88.23785595217883,-64.28078455920969,-17.434540702239545,24.183826852513405,44.271268397968264,48.021556931951395,46.6817657126604,45.61895416815868,45.79008415702639,44.049649413907574,38.1867016735919,32.63873442293279,33.18670333690314,40.93273514784536,49.521181941865024,49.16956482023682,37.60320000914091,23.418391947141302,12.471024003573932,2.365138718879653,-9.596631648684456,-21.53239219110571,-32.29670327528192,-43.18853910525839,-55.80434050043114,-73.04258898180895,-91.48708413150224,-96.72178644588553,-76.28015758357435,-36.784457082942815,1.4459518863409762,23.8729629875076,30.510775492366886,31.33337162458482,33.83195958734739,36.582619538235456,33.406813105524286,26.32576243174096,24.57333322694231,30.21431018974047,36.46152273928687,39.07829819479123,38.02774479907345,32.250872262544675,23.401426371730334,14.481042699864238,4.173682585099635,-7.669957390147029,-19.151567839741627,-30.217010522948414,-40.85977169809229,-53.55614747774597,-72.8700819944766,-94.22830332668184,-98.89268177204394,-72.54013083148318,-26.84267981113093,12.68095574707575,32.07733671551752,36.00024942182349,34.32311865774562,31.44763432626372,27.2849856276329,20.99752079594471,15.265077262914247,14.635554037292447,20.177923303346546,25.71708326376291,23.622898722080684,15.384897924907262,8.293000331906756,3.7062239752949817,-1.679858721805223,-9.50137294191141,-19.366055434953207,-29.326431458608813,-36.05532438683914,-38.046857471675814,-40.43205664673485,-50.3568807007734,-57.95386530885007,-38.5652259077164,10.231094861453174,61.209155806516655,92.3202447910131,103.0063475260288,101.45861450637784,93.17066238306211,81.00319689859418,64.94429884124544,45.402914059092105,27.93469654005345,19.247923058921018,21.1696088855388,26.208456122271155,24.197717676384826,14.453216204217853,1.4771426215123382,-13.589527058907917,-29.25333988388725,-42.448113852440805,-54.85353761869505,-69.08938789010634,-80.33503079873827,-85.22257916439254,-90.89485794711592,-104.39767197356214,-113.68901195623118,-95.73291397463709,-52.004384471312655,-11.142650915258743,6.906860330032218,8.547004531638654,9.301741498797428,14.399084085114104,20.53904386365126,26.418825588969856,32.64653520238669,35.686599877887055,35.4843308484922,37.536691749449815,41.57804390971905,41.35937601296734,35.00854878442177,26.676749892274554,19.93991801177652,13.13101226862113,3.9743287953806763,-4.869106229472838,-12.103345623204413,-20.627793817488637,-30.691103250091782,-39.48603739509713,-49.24943147552339,-60.19708642302567,-57.20958418557501,-28.00286897305324,12.368084341689855,38.38888709156142,43.80280987400094,41.430528353041886,41.59100225163049,42.51348489743726,40.318048495529275,36.04187965135653,33.55155854638044,34.32751814570211,36.56198521979318,38.75734993660079,37.99535420143194,30.242390038025434,17.343830798626744,6.569740384462083,-2.170476034875345,-12.535408773570703,-23.301760175486265,-32.73901922220593,-39.323881805228595,-42.96097523520936,-49.63463683174847,-65.54203263869888,-82.57497415687115,-81.81825246645674,-54.98542840725982,-17.464180850240812,65.0,110.0,65.0
