33.19577413061058,-153.4420157756176,-149.1874506658077,-29.31489387479191,48.052835541756586,59.18160592942928,57.78272443385485,65.47973029039089,64.78851389829438,46.20669801594747,23.38108259409674,8.314403734397242,-0.1453607603297289,-3.8884192332634964,-4.8426102310375265,-10.109498681140488,-25.8724307606772,-49.47574048604211,-72.11431266043172,-93.72115092526529,-121.76424270593061,-151.00384109617357,-171.19396552540277,-191.61869363751526,-228.75691839805725,-256.91202764203206,-207.25911770314204,-66.01878804592972,78.5206066539593,153.52796946076154,175.95972716557006,185.84237178792694,192.5051038759663,190.94076142193904,180.19870324894148,159.19386880231278,130.89441321155354,106.51043804904204,92.26635311634632,82.40688513420699,68.51675414506657,48.43386667326661,24.9244536799633,-0.15853834613787152,-26.83857712982284,-56.40602167742555,-89.35068402811388,-122.82194463934664,-154.5438859954642,-181.81626730356794,-208.30135925590315,-247.48539067251846,-279.2502004828993,-232.21591173695836,-84.53236857174451,71.32620352778741,150.50340332703945,168.33915571416676,173.22356255665918,178.7004098183883,177.06772665249346,162.89409363441874,137.95880049720233,111.2230057191262,91.25635958792466,77.0783489486034,63.23482088257148,49.07264944943619,33.39667272584824,10.52884584279641,-19.268531795143538,-48.17905819076498,-72.14524614657529,-97.48817787130872,-130.37354853327773,-162.92929583868153,-185.31053528189645,-207.12681506493774,-245.8823875657194,-274.77039408159436,-219.81448023881356,-69.3835417856871,79.10411810633951,152.76138215126443,174.174077128086,184.31089819264992,191.79638131222563,189.851204372501,173.4826735169675,143.2698766551765,111.12859294822093,90.80479330702339,80.63112216855065,69.51080144632195,53.021127366309805,34.60778853088706,15.749951897665717,-8.425365087910267,-39.08702234351665,-69.24649831331399,-97.83964873333306,-129.44718601265185,-159.4812930325274,-180.17333741788366,-200.2868086330026,-237.424546524096,-267.6514884114549,-217.8683506419686,-70.31321611535007,82.2189771642473,158.30399653004994,174.321210936937,177.87901420736696,180.6955640301808,173.2630085119982,151.9993329512717,122.28167341752113,95.99641736823101,79.50532733838739,67.90909994335513,56.98020780275116,45.160706750323236,29.205225464656447,5.977724618048952,-23.78578548274812,-54.58532616371249,-84.34728759780786,-115.22794262418374,-144.59313833365582,-168.72475542816798,-196.65167514517043,-235.1656633986853,-244.94605033525366,-164.81641465105372,-15.56624784932891,105.1624170144024,151.65207638382037,158.2218474938558,160.66927710702498,159.15350009431742,145.12099445430883,120.88136139605162,94.43698186446542,72.89052649873327,57.016079645545766,44.70624773762254,33.316214062936844,18.67939812605444,-2.005485518561131,-27.339788918780908,-55.01689291254582,-86.26626879954843,-119.10293531452365,-146.45277435052046,-172.91917170869291,-211.9252107494029,-241.76299973891918,-198.69458776343404,-69.63230681668222,62.566807899542745,131.71937816761638,154.68580984480917,165.12476911173317,172.29058907964594,174.01178663294135,163.5620019427137,137.467792249489,105.61161601312135,81.01917671003436,67.06328444890806,57.42749758729996,43.10991422251956,20.30701696225347,-7.988130729826785,-36.513292903906716,-64.31376870942229,-94.30418131027582,-126.27270726371597,-154.49939371176941,-177.27388685624973,-206.1403830408416,-250.34116249765506,-277.25367725161306,-221.49975238234322,-79.75992306249829,58.682204052747124,130.21322543421607,154.41920720449926,166.89015146764325,175.69727894214657,177.64181887802883,168.71740886816235,146.5846610548637,117.06215199745064,92.45260577273586,80.19082266377384,74.0812743482833,63.298859183033876,44.87083125047177,20.72374192114993,-6.388738218061192,-36.881458451101,-70.44911016701572,-101.3315260219589,-127.01780767821725,-149.46587723945225,-170.8330343018926,-199.85929658962056,-246.10508522029363,-275.74097467723,-216.62741052584602,-67.17763888244473,74.30807684522365,141.90217841424092,160.4228262484914,170.56090768545934,179.43836282720392,178.8969521582273,165.48887083847876,140.12584013881786,112.71584745545543,95.29402296345413,85.28803805379448,72.16029626200108,54.07324104162963,36.94216324792443,20.050216473712627,-4.772534061687357,-36.21359936253237,-64.8392591627637,-91.72060037773234,-123.18130977800156,-153.6582028283578,-174.6200427603448,-196.78232695732214,-238.79775972829736,-277.9060683820558,-242.03789470759546,-104.5331603589988,49.112856210266706,132.9141983861506,156.774264378887,164.30941989133703,171.0365580788407,174.39492836839707,169.32524366624403,150.32496344889634,120.25411760041682,92.38557460319078,77.01241003807921,70.0,107.0,62.0
129.93091514841214,104.59001064090864,86.84261516455638,73.17633499001965,59.1201807892347,44.92246010931539,27.726791000005793,2.346119209989746,-28.065737754496382,-55.51933581033475,-78.8721832452889,-106.27965781306402,-140.44062121861913,-170.48573265872707,-190.68612963654394,-216.4555111162972,-258.2164277397777,-270.38455156529704,-183.23470885275688,-21.17612244123493,108.48610940720287,162.04205134428557,177.27938832289973,186.9994853475642,192.49192450131488,186.7344922115715,165.88277574898476,133.41584747064996,103.76290877608301,87.30271352631961,77.91993063924815,65.22449652617857,47.705442711948805,29.33604172678967,9.559884111629007,-16.85556821760119,-48.139780242582006,-77.41943186241366,-106.63122195960715,-138.74495513797183,-166.47540348934072,-185.10649272907202,-209.05109514360078,-249.6991245905843,-264.50049453493483,-182.7503758566669,-21.50550619331602,113.02041252252516,166.67853022835087,175.3033664889229,179.14246199738858,179.9459591689083,168.46634626917023,143.82067494912255,113.81076854719822,90.30347240715497,75.94852779436972,64.74064545555478,53.76508039872759,41.14870086460356,23.314746108058728,-2.141417868151798,-32.81826738580809,-63.19278851250713,-93.13207527525782,-124.13829714108307,-152.01905771304735,-175.67621561932603,-207.28309320210977,-244.05404760503632,-232.4393355690172,-124.89126935985179,26.193536966327677,125.65202119581932,155.41967851825464,158.7796724044581,161.1659034125575,156.4792543361506,138.85994916977333,113.07266986221443,87.54566372692526,67.81830129862695,53.178021152653926,41.488785022254596,29.606309001470922,13.34606521139964,-8.997427410505097,-35.09745581402049,-63.60917029218323,-95.9053215382003,-127.74674711996998,-153.49083385965918,-182.75927328958815,-223.9818623067737,-239.38715478206612,-167.86937175050008,-27.254950098545716,89.53921987048278,141.21882010211812,158.17427791334592,167.53541486193868,173.56607217852064,172.59531913674024,157.4424554601107,128.17748368913036,97.38699295680777,76.03208076885085,64.2648128029553,54.078870077017434,37.37367174002752,12.438798359717381,-16.361844685270196,-44.51988984974631,-72.63420921099812,-103.53215990278328,-135.08010610427542,-161.39557113408674,-184.21407779901952,-217.6883360515661,-262.74281259926386,-271.91365509191286,-186.5075833985651,-34.94871769282276,86.58919664126107,140.08208704739943,158.39349953354164,169.92461433287963,177.1245578044703,176.37080115685856,163.61670335581877,138.31526026375465,108.91134404874586,87.64763053073514,78.35228859583903,71.73979638160414,58.71933599989526,38.34196959331125,13.134045675148277,-14.761979190045436,-46.45609623086738,-79.90218129501591,-109.2213458746474,-133.75469802680385,-155.58176355805315,-177.76025292856335,-211.69582660060752,-259.5216552670328,-270.23423417468484,-179.46987888926398,-20.68895375267541,101.62884061962042,150.02881605339388,163.2617282605849,173.6115460223683,180.51755104860263,176.38694113874303,159.17375745114927,131.7393709382407,106.43529982645357,92.13279170189438,82.14316953585326,67.21714968554906,48.817307450302465,32.3853694432515,13.940816044817607,-13.614570008155715,-45.02297571174728,-72.4079819150652,-100.30665208929643,-132.6306558593993,-160.6946458915811,-179.86879671345037,-206.66660948249557,-253.09086687148377,-278.43488659316074,-210.78883643455828,-56.49420498983292,81.77465766224131,143.8002544594489,159.31825167172892,166.3388526168769,172.5471449118333,174.0731774219587,165.3927951554387,142.3014176640584,111.33559643788914,86.4907623612737,74.99245462011251,72.4369600846426,67.76538769409528,52.280617866922654,27.503629961294326,-0.9223256953779434,-31.916061543269038,-62.95520895387183,-90.49050345537597,-116.28051272316142,-141.7702553165184,-164.2419145597281,-188.50983153541262,-227.16163421116167,-258.01083199645444,-213.8457624704251,-78.2084682409436,63.030369846591384,135.84415579049747,155.04790555642697,162.10027642450112,168.4310031331641,163.65911907767187,141.37764587738562,110.60738296847023,86.0231815008186,70.7404873125757,60.49572894428098,52.82693632694873,42.457501130044015,24.277001364999737,1.0070223777337388,-22.60560732875887,-48.09490192628818,-79.62931052258439,-115.11601476302565,-144.97995725932788,-164.9803824613526,-191.31948473980987,-237.4826210851968,-261.44229292102847,-189.393804997794,-34.62824011257027,96.43985055505354,149.6884808389532,160.86058145887347,169.72830218861301,179.65454980334644,179.60919107695744,164.10848342862178,137.5237540516108,111.11471180172799,91.73386283205444,77.0647181809012,64.0545163026288,50.98763040638482,34.299319812126164,12.323037297308348,-12.92926996236051,-41.47581620345273,-73.10763713642416,-102.32593487945783,-129.23423726886463,70.0,107.0,62.0
-41.77169815706043,-71.74911543915385,-102.0614348407163,-132.77635061161817,-158.96429240019162,-183.36239937240842,-218.7709518163144,-248.93591844103952,-211.0981676872376,-80.98418673681611,62.976780747330174,139.8778408224874,157.18084375704197,159.50085814948758,161.03669258997257,152.64387206649045,131.89785242122917,105.30307714610244,81.19259100936367,63.16900707939936,49.59522026275792,38.265068247928305,25.514173418089275,7.470931482466371,-16.295202360076473,-43.0229158119946,-72.56716701312132,-105.5366971418967,-135.74839222441068,-160.78816824699277,-193.9564988008415,-234.14610700432772,-229.13372371694402,-130.63068527220105,12.65105450293962,110.5178300864762,147.93082518618317,161.197921914437,169.69599515419108,174.2947554966935,169.94448828900778,150.03792679834382,118.78192764613924,90.0296944135317,71.9010170687774,61.59812000722637,50.13819074681223,30.906660235899693,4.246219643169155,-24.640548094079595,-52.502553507235476,-81.2282694778651,-112.84853799000096,-143.39962876230015,-167.8891710506305,-192.10603465802237,-230.5831032281869,-272.312309823671,-257.9906281767103,-145.4181451455587,6.827550424606853,108.27536771341033,147.12189263850513,162.0061253355827,172.60674893801396,177.89509424931742,174.07974585017968,157.39807375811293,129.67355281107322,101.4976616641298,83.9494633523891,76.7270364207832,68.79602629969348,53.511172041605676,31.406675160256103,5.35527236210022,-23.47774743958058,-56.21911323310343,-88.95654709687395,-116.69742436930741,-140.27436495971497,-161.6535448101067,-185.676127092972,-225.12095386965908,-270.03300126976376,-255.47157521721124,-136.03299435939815,22.14675185926601,122.20851513661611,155.33789449175487,166.12086168207153,176.39526662428793,180.6233624623596,172.77386328256998,151.91540538358896,123.55403089507324,101.20416172188472,89.34512671397812,78.49655603702007,61.9498053363602,43.808787139121286,27.694995108412108,6.958610605146213,-22.803135254891224,-53.378228934835285,-80.02744260637242,-109.37571317757074,-141.7026405441401,-166.80858193525802,-185.7490849198359,-218.59171676008097,-265.93672944783464,-270.6171533206932,-171.47694675216167,-10.201769769649948,107.35479418904447,150.82788677081157,161.40336287892896,168.34985152067077,173.67182117427,172.90483514011433,160.1728155722538,133.55903149850838,102.98440886372573,81.79283862432644,73.76361325057613,71.82616953018909,64.54718814665884,45.777922801635185,19.543052545771676,-9.629324479647103,-41.101139055137715,-71.29217112585101,-97.96329633636188,-123.76358665853503,-148.6481867571573,-170.44759936651263,-198.03941606934694,-239.46802955555583,-255.74474637442563,-181.70379498388183,-33.15179522599775,91.92669935186579,144.78206165106437,157.1530610943413,164.29139642810736,168.73402025170094,158.90810349352319,132.64224489014842,102.43456618260468,80.84750517723293,67.38815357092241,58.157064045473234,50.43106032786716,38.04811735230096,17.795032891370628,-5.8476040259214095,-29.560806683144072,-56.49805590735787,-89.81273056090427,-124.78672030263117,-151.4722584073543,-170.8183794459424,-203.09417518340493,-250.2372694724825,-252.51449463562105,-149.13779765078164,10.198682382971834,119.31944221942138,154.829510256655,162.91059792782752,172.96056286320479,181.08384802660942,176.71673807768667,157.12706701098494,129.37937546925465,104.77066051045735,87.20920820274449,73.19118190193802,60.413674579498704,46.697491991481755,28.443170487512063,5.2720595118124525,-20.741731630018176,-50.4943875404822,-82.00320959793675,-110.07763631818092,-137.39171710183064,-166.37402199340602,-190.7834240727023,-213.50012681098892,-249.75598806479374,-279.3391605587023,-230.74779653207617,-85.77812291207628,62.6317805803172,137.31156966113267,159.00319427919578,172.8565952057697,188.25097705399463,192.91135746964514,179.65417062845285,154.46449759636263,128.48088952554528,106.89805114198265,89.32009891402983,75.83021598624869,64.29673879084575,48.84508851427934,27.456935686754438,3.11450023675106,-23.10976403273088,-51.94776411360672,-81.7574755944837,-114.42530222415313,-149.6160038703843,-176.46012435241232,-192.62748025585813,-217.55385878530836,-257.429032553264,-262.6930298376095,-172.35589453493498,-17.454510343359768,102.36967161872549,151.79458018900672,167.95912690978076,178.4924373431576,184.16080664643027,178.6153386924732,157.779052808189,127.53105751899325,102.1270688595498,87.91598938951458,78.47292063505074,67.58207752894421,54.65682007590367,37.16472528296643,13.455408687628566,-13.493484713405898,-41.602444722504224,-73.70581066802454,-110.17206433694415,-141.97655152338012,-162.66808171776137,-182.30140945591899,-218.03026761400764,-253.30065554319307,-224.62216478057377,-102.09953218335352,41.18004819307457,70.0,107.0,62.0
152.37236229387432,165.39888098611428,174.8416496749276,177.91471366034565,170.67676122923422,150.18833684055883,120.98808462788534,95.05384936786106,81.2041294176387,74.99289416287286,65.18869524912172,47.7206407003241,24.153133270673685,-2.6271892987925,-32.56825891696231,-65.99277500701236,-97.53855181892439,-123.82832496178038,-146.6039211272469,-167.8559352644933,-194.99787821622473,-239.48166637657164,-275.5009177278162,-231.02502981366695,-89.12286565792505,59.36997275018168,136.83984025018674,159.0140042480881,169.13586588009792,178.6457909965136,179.68818001178556,168.0435437543177,143.9485577433594,115.94514753713767,96.963802468672,86.6111175232221,74.28505870941693,56.55183068798658,39.063255039410166,22.60388697273375,-0.8932623888137413,-32.027412340456266,-61.298210227039924,-87.93141524814355,-118.79023919889234,-150.0881553569701,-172.2357308556983,-192.90283687355318,-232.19072186772837,-275.33165819739054,-253.31040221525063,-126.42874030449305,31.757180168455932,126.22457741893098,155.280973281413,163.3864503211383,170.23828795650473,174.30351763984183,170.71919642119883,153.69781541758135,124.46059887731606,95.49097013334297,78.26851254820329,73.07359313547397,70.73536007442684,60.28485502397473,38.65472585557244,11.380003050968506,-18.565919470971053,-50.168732088213034,-79.28902081324603,-105.39007299241672,-131.20189646575807,-155.17678046032822,-177.08752761474966,-209.091283786365,-249.9600470766701,-245.3081529045383,-142.63955305290125,9.485714187992913,114.16643343275479,150.38645896334197,159.07953284653752,166.34605433623113,167.76761265922542,152.67309837764753,123.57348803403161,95.09913385597936,76.35904170914044,64.3691474571576,55.983417896296004,47.625768581191736,32.913588630062684,11.044966356323833,-12.654671316062313,-36.78461022455044,-65.49391077221887,-100.18036962446298,-133.69853635994903,-157.1754865149703,-177.83065544747376,-216.61539575780944,-259.34072981433144,-233.8624503783992,-103.73940471058219,50.101027091700516,135.54848810917002,157.88227273350626,165.37133243064548,176.05331162992988,181.41147617630477,172.48684592569472,149.4266510290892,121.55880804664093,99.07418773134215,82.9561644337499,69.42181153088768,56.71317478278281,42.00051043160683,22.15174429182941,-1.9779985516621879,-28.891683045616404,-59.699759179582564,-90.53356938614306,-117.76433912649914,-145.78051960108135,-174.1492965799555,-196.85086832191868,-222.2491905549594,-261.6575764309351,-276.3797662109284,-196.20848742215122,-38.07458831543147,92.44506499107325,146.60487690977024,162.65533075569317,177.5669055911619,191.26326807589294,190.88195795069151,173.09279867872982,146.63860778742276,121.7735026547068,101.43183032919353,84.99450710290736,72.53685133288407,60.460245256174154,43.18461649358846,20.59207408300109,-4.209396943426839,-31.219291073409032,-60.498426561371836,-90.71644162901828,-124.68033527910397,-158.7428449776265,-181.6918096515216,-197.88175445362666,-228.58625692534545,-265.9233652694194,-247.41774931968737,-129.9364806243911,24.37938537395895,122.84640432448928,157.98607153071364,171.23624954205133,180.89111202527707,183.99078727236946,174.15961448227446,149.4178284853325,119.12486927917602,96.99028103872179,85.1073615300246,75.54572778909757,64.0933951862235,50.24019451115236,30.88099319168477,5.831620791433788,-21.456217946416622,-50.283998314929086,-84.04940447107927,-120.33786472288608,-149.0189442009263,-167.5627492405686,-190.6569471542365,-230.49840082573144,-254.60245550146414,-197.43895178954693,-57.95529567353854,72.45788690640968,132.02599194750084,144.33054905339753,148.98212785050688,155.03199515272416,154.01565770472916,137.1611882815931,106.50386116105304,79.3486066469127,67.4349809675795,62.34532186306113,52.51127157032913,36.33909443745841,16.176328281887496,-8.353626638605947,-34.90808300431109,-61.158378872403404,-90.32754301492237,-121.17781005318241,-145.78317379153398,-165.80191740642044,-198.78144233235113,-243.0317041142358,-241.49187701990763,-140.66856361295126,10.435955919633138,114.20055403867347,151.45215095314904,163.1373966154814,172.74948052034924,178.74127397857728,175.93499953213305,161.0309734695204,135.97907038410182,110.18009555660623,91.3311320308815,79.33626613647544,68.77594638074287,53.72390243865881,32.69809183462457,9.012270146536196,-17.557550227587218,-49.02924971736664,-82.13497259666475,-111.74706157071202,-139.3045213444904,-168.9212110801648,-197.54635784604415,-227.28254414318997,-266.1250646879159,-283.50080811823057,-212.7914874345211,-59.91610660377285,75.2498329826479,136.43473676178328,154.11729360274953,164.6759029541916,173.48845022613835,174.19018518914461,161.41105107246585,136.98039162141364,111.86082527999396,94.58921764085993,70.0,107.0,62.0
75.81183095509239,72.63659353313162,68.91007531055698,55.01690310193279,31.09471676037805,3.011530373465134,-27.68019675023661,-58.99350003766415,-87.00375322553448,-112.83548145105621,-138.49139553198938,-161.41497693303967,-184.61827798275158,-221.33196175199635,-256.7150469930913,-225.85807020975315,-99.04855916094638,47.494698895842596,130.2447067612523,153.8696880480699,161.1110390504666,167.94505080681145,165.31867591565108,145.17380324614257,114.60230924707085,88.68103244141736,72.4116997837318,61.65371155095747,53.84595941255293,44.24456643740475,27.127756822906157,4.179228571350779,-19.451848866303603,-44.41108824782658,-75.05582068285456,-110.473987710699,-141.65677789852253,-162.4987128555077,-186.59071634790712,-230.97383597562782,-262.5369694586049,-205.4822256068483,-56.301622875283385,83.47218142086062,146.2402433489449,159.98005954355477,168.27772581681373,178.68261004522526,180.48481382716207,167.01031018877188,141.3139515472499,114.26498275125131,93.9423538817257,78.89070286032094,65.73561391619896,52.852156602140774,36.84045983106135,15.493641377321927,-9.421731364714866,-37.419940493982565,-68.91123238440004,-98.68037370577366,-125.56346709352135,-154.26294324048342,-181.32985779982494,-203.06342998722963,-232.55391116374852,-271.84127290178077,-264.81269695455563,-154.39804296916125,6.79480888276389,115.2033972531813,152.80957206900385,166.5033199643898,182.24604183063462,193.0216184550915,187.3103184819539,165.7989187084977,139.00854099953537,115.46565974454612,96.27377096903456,81.03389990905164,69.29599843009066,56.141923795377245,37.05450513706525,13.575656286008046,-11.716984903772476,-39.54532945299033,-69.07151366483272,-100.04200878269428,-135.02318700743888,-166.82241519471287,-186.19413495946154,-204.54643059200484,-240.62853620248455,-269.6737826364005,-223.0094283554037,-84.19527434675187,60.80699712170611,137.70768138582096,162.59627414898148,174.34422807053207,182.752738892493,182.7192132099885,168.370850786184,140.55266944711812,111.49592614881904,92.78669388433676,82.45088969598679,72.42808608083396,60.44155707441294,45.334631394541596,24.092527830272626,-1.9581068812627689,-29.505388791914136,-59.423771995793956,-94.67403257321983,-129.8127818478077,-155.08061754527427,-172.81926464106039,-200.74247123933523,-241.97389486983803,-248.64924813345658,-162.58898550605903,-14.862464023409506,97.1386170805941,138.2707497863576,145.46968457579877,150.83654479249077,155.93197636670968,150.99782468722623,129.16785765272652,97.40828092357151,74.39898607820787,65.91493586595811,60.253993709344,48.355696495011316,30.904914036493047,9.538820704836741,-16.025360057535035,-42.44454275782908,-69.14692029854699,-99.3877516176893,-129.2084517716888,-151.44404358912522,-173.21381495954,-211.89338096340862,-250.78952770329767,-222.71296229228764,-97.39903326961807,48.13290005569105,130.28109866492298,155.72545582180626,165.9492106279623,175.1195524341505,179.0153143230303,172.94479338876047,154.51533647942048,128.1321104706133,103.87679428922337,87.34272691608066,76.42979477303672,65.08223209148294,48.14742851662026,26.013265740623474,1.7750555915583774,-26.17369164191549,-58.701584035860826,-91.15120274021514,-119.66787980545064,-147.64823764216658,-177.49358243798008,-205.51987653599406,-237.74913202714285,-276.27611570040233,-274.2809352880076,-173.48783910847877,-14.549562162272878,100.24818633165579,143.82888945523302,157.17878952524575,167.6468967172453,174.81731955235412,172.01039366989968,155.17141451972284,129.25481648262468,105.93376706412455,91.1160117210991,81.57256351814539,71.8410887124589,58.9584186942099,38.9862425117813,10.754771204343875,-19.173591444377962,-45.07753038276032,-70.42391066672471,-99.77549442822006,-130.06274007518624,-155.77999877450148,-176.83251429617582,-206.46832858149943,-250.75308864390686,-265.9089906433932,-185.0273378831799,-28.152902999978522,99.50768619689123,149.90724032227865,163.6436332357492,177.43334996035384,187.9105809301811,184.9738956527562,168.26684523555974,142.73132539769048,117.78734788214284,100.16105077858676,88.10286682186533,76.46891999340836,61.92769321202261,43.67505468217379,21.290934191068075,-5.914662449730093,-35.87409539778497,-65.69217963163416,-95.52807528634386,-125.71662944145119,-152.03678414948598,-170.8193923745289,-189.18095834153766,-221.73155495057108,-267.97425428275983,-284.0778961103148,-205.51043767451804,-46.45303416043653,89.81031266269041,148.7763445794375,164.16310360980683,174.3701375540049,182.65174976751925,180.5845986075956,165.7357350548451,141.84052781488484,117.75939895308449,100.47752730166764,88.7401430479074,76.05911122761636,57.79793402141443,37.12209344571466,18.602555201234424,-3.073915952088655,-34.350717826181544,70.0,107.0,62.0
-133.5976086393205,-162.62501035983883,-187.91062528416995,-209.95129350492246,-244.1642525840422,-278.25690394726945,-243.7051512084129,-107.92526677103942,46.50163926827395,131.58671941318033,157.2487222290509,170.76153120364043,186.52180349683118,193.30901945301235,182.34843713870043,158.08274380528852,131.7119995346455,109.52410764915587,91.43581665440435,77.4087650917949,65.93483069981787,51.27636200185914,30.55159721088512,6.442698512067747,-19.455823203712075,-48.01594088093535,-77.71760097447708,-109.79405931261056,-145.13319164000933,-173.69620235801142,-190.51470353221325,-213.0160599210407,-252.47653411740376,-266.74301641089465,-190.03960220821085,-38.06722927236199,90.7916719106065,148.13064790217393,166.36892356902086,177.24994251820266,183.9104929565483,180.2135704894803,161.36299199389816,131.58662355848497,104.84206183687508,89.3264045585947,79.7598320634005,69.14420008635469,56.55540036600378,39.87487111374559,16.88817758840631,-9.840317194405456,-37.724149826857236,-69.08171560314668,-105.33003162265653,-138.3748477872895,-160.38233805221068,-179.0001635331153,-212.34086249399604,-250.71968995776578,-234.24949533075252,-122.02241724169316,24.68160059867471,115.36297498661095,141.78679417044978,146.6917178785165,152.7232993275976,155.9787873827451,146.47306591464505,120.23770475535069,89.15247808328441,70.80145675816057,64.59411258993028,57.56409374364084,43.736961509976915,25.171604398151562,2.5057027807525496,-23.74261903030079,-49.96203755496656,-77.49663740530767,-108.44865574870143,-136.49697621951685,-156.9518918144145,-182.2697248117029,-225.4685099557189,-252.72722799421814,-194.9111791435207,-52.41327814212991,79.77037072870002,141.4271602302858,158.98606968214284,168.78495341775778,177.032839287845,178.45153102022184,168.8738004908843,147.28600608516075,120.50310221115107,98.2726642879727,83.84825791874083,73.48237751351873,60.8808338332966,42.10836578085924,19.20426760321105,-5.781145114944128,-35.21846008089659,-68.36486268860754,-99.77529427066509,-127.54778208464849,-156.22316265105238,-185.81879020397275,-213.81802650471232,-249.13661629930596,-283.2364944247733,-256.0010142116104,-128.80492534421091,26.451194120466106,118.8048606370336,148.87955410348997,160.20263526987944,170.35932223817585,175.3019762441179,168.59299449108764,148.11711412950697,121.79523729905176,100.7840697176262,88.0966712703691,78.94086623115865,68.5755470948862,54.10732946848992,31.50891982376091,1.8949298784743036,-27.09238728801025,-52.139307652353544,-78.49957671050392,-108.6879712107662,-138.1603043666438,-162.0118503275725,-183.71716958079418,-218.49606679229024,-261.4933528823512,-254.0228424042027,-143.3718913140823,16.036673949150064,121.19904006742244,155.1897081066496,167.2158386019159,181.42776790649907,188.6016213015197,181.4263020411068,161.448166661282,135.0141584610176,111.87817325047826,96.33255894733072,84.89684725889812,72.64399262073516,57.02971585391965,37.686590911671324,13.89783914059705,-14.445945432602926,-44.56411090346309,-74.23870277964436,-104.30860527390105,-133.99234633499657,-158.1807616742286,-175.53729946981682,-196.59206429573777,-234.63767712713212,-278.86504359620193,-272.860793740591,-163.97692798536582,-0.2578849312856779,114.36533230000664,155.37915377922843,166.92511078714483,177.38537011996212,183.35326245786936,177.55888687546957,159.43580232987895,134.46932740698276,111.96248460055,96.75970129888796,85.48137602494619,71.38052660621733,51.76049068718433,31.575415844276257,13.105923819832501,-11.15695675164844,-44.45703930467471,-77.61276227485948,-106.56427505815549,-134.30061245179897,-157.84009138228447,-177.54305114695813,-206.76420113294108,-248.1631863242671,-256.1164474379934,-170.73530299894483,-18.7192198801165,102.90603914843071,154.219470405222,167.30714409180263,175.1892858524636,183.13444462716856,179.2272721437569,155.54591337237966,123.4130783366816,100.43473947688484,88.6418996271971,77.13942334013137,61.143848232575834,44.18130732495374,26.640227286451857,5.535806162504382,-21.31774474033854,-53.642164200500375,-86.81631499046826,-115.36972438493392,-139.6458011200641,-163.21319205680237,-184.93837331125056,-208.42261002721676,-245.94902445306155,-276.13165797778004,-228.29983319942522,-82.43030649569633,71.01058513694983,152.58397681168532,177.4420170223387,187.04140333381216,193.805176914424,192.78272575091736,180.3565894192039,157.48276618936922,131.00904327589146,109.8655062442593,96.53038930618625,85.963291262217,71.36276786010107,51.66109417270493,29.356113644314387,3.956021009352722,-25.428558645330742,-57.02046160640186,-89.48072412426885,-121.20979874300114,-150.36503525190716,-175.58409221363615,-196.75964588555757,-223.16314326820654,-263.34900265407066,70.0,107.0,62.0
58.838266901180766,127.87678730412773,143.7167960917662,148.1926093791013,154.4011329581758,154.92911573531416,140.4297011334742,110.84260347913316,82.11805168352097,68.3073832533397,63.137196585519305,54.244780319287045,38.74638285267521,19.101398415518442,-4.867612339166785,-31.40625613566733,-57.57751471992145,-86.20943379094031,-117.26462291306575,-143.01162553592772,-162.81801053557638,-193.1704179692349,-238.0596595571754,-247.04478267908905,-159.2285425120878,-8.62737411514822,104.8208414458001,148.89825776037998,161.85002080766512,171.5445575846857,178.35872097033558,176.95908546578795,163.73704002614053,139.59901994597482,113.30692288647364,93.3689243516633,80.70774305882084,70.33514415868933,56.11423760999489,35.72415917857875,12.2677755311768,-13.738754402397854,-44.61310955537832,-77.85575252442695,-108.0360542147925,-135.54481681568038,-164.91766755533757,-193.8836383477652,-222.8140846303005,-260.87601077739055,-284.99195970667586,-228.43329489695847,-81.64396394464205,61.41136696033964,131.89542675902393,152.61960508878926,163.26611446290292,172.63474726811054,174.79487349902118,163.9447077302191,140.550474965531,114.84447552109133,96.38621647377728,85.36525673755763,76.18726469461869,64.99091750497318,48.53776928110591,23.389760660774265,-6.8783208430066844,-34.60730493425767,-59.33930733363408,-86.95115706703896,-117.53989443255776,-145.74164251215248,-167.94768805071513,-191.80425031201375,-231.65304576546905,-268.059826425789,-232.64529987389153,-97.23778635060765,54.94413605351733,136.46461344310342,158.90788922416064,171.22068360009325,184.77792518970926,188.034842344831,176.787323255431,154.05346717763916,127.61839642819444,106.6600996847093,92.85298742921154,81.60438976591544,68.52055541437278,51.827709731795835,31.32511649351478,6.098374518213088,-23.121300227670464,-53.18817877591904,-82.83034446710572,-113.09655592391026,-141.78750820099623,-163.6601977255032,-180.53061519026397,-205.56963288496226,-248.41688564618346,-285.6242657946395,-252.24926425125005,-117.38110407892215,41.12904228397444,132.277584618148,159.71094901496073,169.83975491826425,180.01874306572174,183.02495797429762,173.46627371418748,152.53146367438404,127.33730004906275,106.83646876717032,93.39182626543946,81.96134622818482,66.17416198780577,45.69457763800501,26.260528681822656,7.096579349214291,-20.113687435022168,-54.49453509197806,-86.2549361825353,-114.70455192062595,-141.7476915516919,-163.53831586492097,-184.29956664278365,-218.41324599976494,-257.13232027214144,-242.17360941358896,-129.58349042988385,23.21143893969643,124.27255893115108,159.99301177657765,169.38209871576666,177.8405391859646,183.85300978139557,174.29539991807997,146.2291300053827,115.35328545926333,96.27428319142587,85.75162740670727,72.86764610621698,56.209298242240706,39.289059783629,21.03840831515807,-1.5830192605934497,-30.208683142227763,-63.438453924043145,-95.66321761422583,-122.64382526287969,-146.47017832374183,-169.7866699457587,-190.97958911421193,-217.61171997326028,-258.05348247903294,-273.3749262494993,-193.84106364079776,-33.68949783671894,102.83221541593556,163.44210604829104,180.62412689259793,189.41519126510798,194.55713765547154,190.41153851228168,174.64050169802107,149.76461451498236,124.07427599399033,105.32131752822444,93.5344014510044,82.3503892522223,66.0768628731427,45.42654627886972,22.43208826296664,-4.179157153074065,-34.40887525272812,-66.36080843367685,-98.8138482490181,-129.9620283916092,-158.12051888698278,-181.96912784524358,-203.14326052763423,-233.73346092977692,-274.00916655584837,-271.96546772906333,-167.1541874061085,-0.6898654791514773,118.30815633707533,157.77325441980105,167.20248723415466,180.86466330503572,189.69636393475852,179.8208992789344,154.84820525426628,125.94942352380866,100.59973239394344,82.03023527423245,70.90780807730904,62.081927210809575,47.666190118578754,25.61652903446025,0.06638351262094709,-26.529734866268953,-54.2059929503473,-83.14671879008952,-113.27708364008768,-140.5760120558418,-161.70341585453474,-184.703688874263,-221.78996361117964,-255.7440812164504,-225.26504591202843,-99.0508882326393,53.22176300651371,145.76532479273914,174.55560153306155,179.97593061043403,183.88462569642178,184.20278884219226,170.25444481274994,140.28897908710272,108.81896071748288,88.6049812700498,76.56754684053075,65.2102604173048,52.505883601592984,35.5290562726834,11.277107438694099,-19.28493817660997,-52.92877756539677,-85.24090857400712,-114.31285664388437,-143.8783316755711,-171.92186581183262,-191.82424250863954,-215.2283769063223,-256.71007486669725,-277.4483992599433,-204.79760466550462,-47.89159664484204,92.8241408088924,159.32025176454567,175.5786112982408,177.14629794923235,176.65549817144554,174.49843174919556,70.0,107.0,62.0
92.6511498775534,82.76458353024661,73.26081744727821,60.98299323264233,42.18295534639088,14.807554885365246,-15.380487318949445,-41.81476707438542,-66.8379213321044,-95.68719348444537,-126.18523991049007,-152.7442058282023,-173.93357092598578,-201.4516311253817,-244.96038185988553,-268.3812963481463,-201.97844938726632,-49.68954478596535,87.11534479685938,146.5702444624538,162.1280788698439,175.4774660964434,187.18069421609843,186.21926534998587,171.15906317992517,146.32879414105403,120.743646700914,102.08201022818434,89.57985453743652,78.14160507323292,64.08121888711824,46.320823013828786,24.555575142145013,-2.0560181986827435,-31.85139389899501,-61.75389303166945,-91.50134207454822,-121.7840678692246,-148.96306954865483,-168.63091987762098,-186.21388586880016,-216.25035726755328,-262.08318292973786,-286.3084239712578,-222.25018150346287,-68.71931381522802,76.0856615480929,144.60586078701718,162.8714213253149,172.92870111746876,182.0095463297644,181.6094643426834,168.38190533476865,145.25290743083244,120.6500215178291,102.35158758613386,90.20159240374907,78.03529662778125,60.518409001394915,39.771635018390924,21.03793782318509,0.3391402355356908,-29.753927447825927,-64.21714515812096,-94.60419362273099,-122.79457227440479,-148.69205052460157,-169.0480096099782,-192.3103907269347,-230.86210489477975,-261.58403363080015,-219.24069601987566,-84.79929980777791,60.13865585162369,139.83216548992723,163.71885039638897,171.56910960445165,180.36769125109282,183.19800767321337,167.66432995755923,136.6909376586994,108.42055865159237,92.88691493763007,82.5735741381583,68.24725050196346,51.29862958210117,34.29547084542753,15.060568632126685,-9.219426761327759,-39.52104710534267,-73.14096187294362,-104.02077092984246,-129.64518876869477,-153.3102581780793,-176.10356478373035,-197.41120987019053,-228.31306679288764,-268.3974760101023,-262.0452216832136,-151.8773030089524,12.585208345942288,127.65630886671109,170.7381185003837,183.34803554113367,191.53323084459404,194.50125478983446,187.04409952353345,168.11665029058776,141.9808154821685,117.77814439235021,101.4029401529685,90.58723719377544,78.25606259018343,60.41863504743639,39.03083896910363,15.19003166403594,-12.632355298516181,-43.52077614601105,-75.75191047727277,-108.0359842669498,-138.46070081942224,-165.5136035049403,-188.03097876579568,-210.3531190590781,-245.53171717402716,-281.2945999183768,-252.97776440591025,-120.49772513785902,42.291374177340714,136.3910300008951,161.1045554025416,170.54737570120204,184.79452334835773,188.92341897274096,173.66537304121775,146.45889749493293,118.07147408139976,94.44257476187848,78.14623138409851,68.49806204277836,58.748361211987906,41.94995477820168,18.39976751767675,-7.517016392096323,-34.41468151820538,-62.41365164079212,-91.80726648023732,-121.73043133306416,-147.21938261918004,-167.49563506038692,-193.8074107666002,-234.04341105452187,-256.5399877111843,-197.38438528614907,-52.91370965948873,87.95340540052051,158.94812943351752,176.95691836821794,181.04002883507772,184.7857183849481,182.04780469489714,162.83043823027268,130.53791968392926,101.67145941484702,84.70521769906156,73.37963230724345,61.73698905275823,48.23409199585605,29.298273875189185,2.9752345991846223,-28.863529550981788,-62.602252110713934,-93.86747659178103,-122.65888908273159,-152.5300377757873,-178.48349873167905,-197.16554870358098,-225.67527299509626,-268.2729617311183,-268.1310520312946,-164.4195495976147,-1.1274410805300716,119.64765675834157,167.22768638132143,176.59347571381133,177.07251182142176,176.34991683800183,172.87258622888638,160.14787792650563,135.68231716588346,107.68673165588741,85.8065854494919,72.96740695799627,63.180736993097554,46.93250357185046,23.90987338492298,-1.4641636407444896,-29.678796017219156,-61.60363325400425,-94.74552945270511,-125.94871773311554,-152.3135609113194,-171.8121117566029,-193.6201058619922,-231.75885192549796,-263.48634659200985,-220.0206876985352,-80.01859274114334,68.69781262814503,145.68330655429534,167.73665230591862,178.48387838779308,186.3437539741812,184.20122445098974,168.64949464671543,141.08148067777802,112.12405311622518,92.35064329471182,79.71753521784676,67.92878010563582,56.636488468971216,42.506750610303726,18.034033083703562,-14.248071283076895,-44.867582266337934,-71.26138572089896,-100.31824062566848,-135.60098167397874,-166.03379280865641,-183.05195055665888,-203.52991202403163,-241.96046124371003,-259.00878217864437,-187.06174731234162,-36.1168753710858,94.80763991265232,148.18584399208302,156.09021314999273,160.7399284570434,166.9616392576212,161.3417813864356,136.24189603935184,101.16624710177467,73.8841046783912,60.20888284683641,51.881579254394865,40.983972268408905,28.858389359060062,16.593610402305064,-0.9887280389071711,70.0,107.0,62.0
-39.788070888142784,-73.49274407128952,-102.80375011148301,-130.73255884307451,-155.07572960615536,-174.73761135231865,-201.843849039813,-243.04236638576577,-259.627075727922,-187.76366465201275,-39.22604502381073,90.91270785884507,150.5730650487484,166.30315607019335,173.99675946797953,182.43813783680488,180.89226507194095,159.61793292375154,127.44918464873814,102.68952080690222,89.94375168015218,78.96254236113533,63.41051533984321,46.42436787676492,29.11499573349516,8.64984010567889,-17.381242440368876,-49.14258437209847,-82.58620057480293,-111.89121960652214,-136.50190829851473,-160.11472763842465,-182.18085417919252,-204.67412412493047,-240.2401068766497,-274.9693547302,-241.17104186871146,-104.92487152661693,54.00782576562492,146.01943143705955,175.67709963060793,185.89894594814913,193.22106992897426,193.54462405570303,182.68813777695553,160.9478158330528,134.38459440835385,112.19492266011376,97.98347507521208,87.49066699961018,73.65130225371647,54.47562419170265,32.45849140587628,7.5867593179407145,-21.34309868529184,-52.73940219532541,-85.15468349733041,-117.09801798436513,-146.67843513336072,-172.50378342466985,-193.9736136933549,-218.7872807950291,-257.8334585719432,-283.11804380315914,-224.34256490341548,-71.11088282613834,78.69868997793579,148.3035632902383,163.48600825827873,174.5496992720206,187.80561389094032,186.40112346100733,166.5017152719492,138.01236815180377,110.60975841591363,88.91075878768413,74.86966718939702,66.08187354985793,54.76850961159886,35.638474029379715,11.018663326587799,-15.177462121516395,-42.39068073633255,-70.7380444139806,-100.5550951158271,-129.78652874558915,-153.32932087269168,-173.7852494876249,-204.35824629017443,-245.1310978108962,-250.0868804572561,-161.5917486659896,-7.310388197457565,116.18625520895816,167.60126833087875,178.41896084370404,182.19456165135512,185.17885815662973,178.41404307915425,154.2055214072387,121.14113764872044,95.63925539679418,81.25690244056062,70.12302354915757,58.140509049286806,43.49173317333129,22.42200522405693,-5.793950494992632,-38.61229928947839,-72.03835621611933,-102.24388103620576,-131.17767872303838,-160.86368184580465,-184.24604266748796,-203.37586650461552,-237.80597254810175,-276.3766333320124,-249.3116063249974,-118.59141130006213,41.44627251244894,139.89063224931485,172.0574566562993,177.02445232074416,176.93946979026856,175.85581147643111,170.45046341798795,154.09134048199394,127.4467845960552,100.45370927217144,81.25716863296348,70.29830798508365,59.40229053266075,40.72882979187509,16.75223824918236,-9.23067214006163,-38.57395986594854,-71.21634885456622,-104.06899060927968,-134.22719958671965,-158.5570089187547,-177.08648085162318,-202.8524946205803,-244.16410107473908,-261.64775367538414,-187.27594787119205,-32.766580819090954,99.22974776002336,155.34265602159795,170.94462026877818,181.37955976609047,186.97661842652926,181.1562827596213,161.6266462332804,132.2268348608316,105.30071650713549,88.32371361454511,76.3330716147381,64.59352381937111,53.21689953875113,36.66017499839983,9.084480694983515,-23.596750587774572,-52.741059214657284,-79.00441094054479,-110.09055233267797,-145.6185895615071,-172.08047379028864,-187.40396489085518,-213.2543650003259,-252.34288806564928,-249.25422295709896,-147.99171190679945,8.256370264079475,117.9883440345885,152.6965769708934,156.87374387395087,162.8951242229023,167.13847908083093,156.0305129094443,126.29941953996058,91.89137492385679,68.71868782557056,57.764713344529106,49.081540641348546,37.43530098450873,25.47454091067716,12.33768908773577,-7.767361026948742,-37.132014767046144,-73.09167880287443,-108.45293011551773,-133.8848917764648,-151.3635690014719,-179.59971780170252,-225.31899924377436,-243.3215316801945,-168.89193285605947,-21.866174841100246,98.99858429312499,148.66629755692458,161.0377565853712,169.60222268453597,177.95333136725668,176.29523900884263,157.22982235191316,127.74627744980715,100.55643718986454,79.9201831337265,63.8165692603169,50.70024056871876,38.78339623692584,21.977727732583197,-4.6437787919612825,-36.95483445899467,-67.89824389421203,-95.85853740796549,-125.00889501492611,-156.23538229514907,-182.64132896220903,-204.73729444032097,-239.22024078715276,-277.01247477105693,-248.00506727090507,-112.75411603380353,44.81353128585604,131.58681939009497,159.18728230439328,174.08526702398174,185.35894627038493,185.33053466215486,172.96790987005673,150.54030203027588,122.65406200390281,97.98940460162414,81.8514023852116,72.29304742837462,63.91651438272515,49.553946215630944,26.0910436911432,-2.1127216767596466,-29.895718429784672,-56.240620326633994,-83.66015368880353,-114.29079233578489,-144.36327604076425,-168.49339888496866,-190.59037271908295,-225.6857099525447,-267.9796805492298,-258.2312525432741,70.0,107.0,62.0
-269.3917467433328,-277.50310944742483,-186.89584173003257,-22.220129861182453,107.56948622619394,155.55074093085685,165.90588871049317,178.88529648929716,189.46863034429725,182.23689686315439,158.63289746696205,129.69766961554006,103.63473985480402,84.04460148355093,72.07835220160804,63.43619069763982,50.073484490512264,28.860351805204818,3.5392472959400907,-22.925954020813926,-50.45625670431362,-79.1980357782515,-109.29163874183095,-137.30964882208167,-159.0892952924175,-180.98066046200168,-216.12014082673235,-253.39647433348532,-235.16162797516355,-119.7234282954943,35.217543915708006,137.85363750131697,172.91467701508233,179.50471589303015,183.37425293285165,184.75757667468798,173.19178816146493,144.77739539902782,112.48367406869305,90.6258204372111,78.03015862166971,66.78030215727934,54.34844519559593,38.18436082353434,14.927292646241003,-14.953293637172877,-48.420507386221544,-81.15476094889416,-110.50305183257545,-139.8553135120725,-168.60941751394677,-189.4712419224669,-211.06480234286417,-250.79986774075223,-278.80878043975576,-220.896530978115,-70.21461171355078,78.14618368711079,154.32868983130632,174.7969620194513,177.14762685492462,176.75964172189393,175.03506708387368,167.05786287366308,147.09983840598073,119.205092003661,93.92091343913165,77.46052984835929,67.63972111231445,54.87854994474049,34.08791829199662,9.469447459125924,-17.2935215398519,-47.77026497822056,-80.83853073447068,-113.17123375415474,-142.01456068972223,-164.20426154009044,-182.95789062458078,-213.74085816250195,-254.8858325973381,-251.53456007142827,-147.05497239649844,12.144833429439158,122.7167464771571,161.70921097020238,174.0091830948904,183.87826259035074,186.62541079143907,176.93572417301573,153.7012981200437,123.6165995595701,99.41407414518629,84.7001722737458,72.91626265176271,61.34733478983195,49.378758285190486,29.78599455506754,-0.30546943214145095,-32.57767747451093,-60.31548652298573,-87.20751812427886,-120.35521778501783,-154.79754765260253,-176.98147059079804,-192.75037637414383,-224.55778872340667,-259.27692880741137,-230.50955006114998,-103.83958058484401,48.103059900812816,134.36036880350284,154.82083835130942,158.08577259044026,164.94687902489716,165.96484572569761,149.02681657647713,115.95419678595701,83.67162057636938,64.65611673243801,55.46545771368144,45.96597322939061,33.896632292251844,22.03546755132425,7.466392464438183,-15.350070764320826,-47.056796675327334,-83.8235000581404,-117.08562954090843,-139.15489465425236,-157.46583075645455,-191.85902563001426,-236.69725328300723,-232.81094429588524,-129.93386054070538,19.719689409196747,120.02215458727424,153.98558260757886,163.29732552169477,172.35790587321347,179.0182154645836,172.56377637310644,149.15418733401856,119.26524092895616,93.96771200051057,74.9069493327021,59.75226494217649,47.306772149786234,34.78454662179545,15.275510435837637,-13.741421807565326,-46.25625561637816,-76.15676323160093,-103.9568247662475,-134.02951201862797,-164.67990164620932,-188.91013940748255,-212.73799554387693,-251.9396607584159,-279.2010758263702,-218.31603345324484,-63.85874654751449,78.5684362050406,143.199828942996,163.62438821070296,178.10113262440973,186.69320033322995,182.93715401370758,167.40132683595348,142.70911440828036,114.81009692190496,92.43358167215384,78.60565258818437,70.05853929373373,60.66534093388308,43.6327786782276,18.136675349392817,-10.30720259685229,-37.60061899531174,-63.88666849626834,-92.22200115573561,-123.33361496537833,-152.04417035107454,-174.52263787699974,-198.80128516956427,-238.80895973277333,-273.9905089118866,-236.23809989497173,-100.08371908107165,52.87365444322638,139.34214367953933,166.71827943462281,176.50179552051543,183.15256046033014,183.86973963350013,173.47912998649275,148.88792494064936,118.0599347171688,94.47970554667222,80.6869594382113,70.21043724822488,59.46397514562127,46.39310135409879,26.457772939814834,-1.7744621876702558,-33.89376529033448,-64.5780151117438,-93.99907124945828,-124.88222732303166,-152.06574227958708,-169.40201397071897,-189.70776577815502,-230.2118704646955,-260.7907557278602,-208.72179276842783,-64.93585912026047,76.06429311697806,142.95542334020433,156.77275722145527,160.13767861286436,163.97438797689338,160.5111875915784,141.57843601931552,110.4536303123967,83.28714265330879,69.20799350212098,62.321108681248134,54.391715662259784,40.71342179228077,18.563823816146176,-9.452783709332751,-37.845836518694846,-66.81045994511216,-98.50499575018932,-128.47607446384353,-151.57192596664007,-173.87122987471412,-208.2392313607045,-241.42145449060203,-215.2431940683765,-97.34180847836163,45.40079739011505,129.57084518490186,154.05891892645414,161.52839908876967,171.53424873922413,177.75401630332024,169.6819318125916,144.5796521303354,112.42482098161018,70.0,107.0,62.0
173.70916386983515,162.5837248856609,139.39720617883097,111.21982571392178,88.1774988067993,74.28072231907716,64.70167975443248,49.59917613670552,27.164610365472466,2.032013729151043,-25.690740871404767,-57.20071015248931,-90.38718038128899,-121.99437277536339,-149.21303869613809,-169.4459841908078,-189.92260914955506,-225.92242221937147,-261.996733647186,-232.14132840803174,-101.77987920799633,52.28074693184257,139.7250928719985,166.09079358971093,177.08173039526997,185.74742480259772,185.22001056179545,171.5298862516521,145.14568562740598,115.57262720567302,94.40516481270224,81.27439406257095,69.49350856096444,58.138033850417884,44.87183722889408,21.937771884281087,-9.859796479769434,-41.097974766548255,-67.78718271737452,-96.02631235432828,-130.81848322741007,-162.79672155665315,-181.18071274259782,-199.69127648623183,-236.5610111539185,-260.7182011732538,-202.70699958542937,-57.43672688483243,81.6940063619443,144.9140969062308,155.7782129426953,159.80864869399707,166.51095663521346,163.19759392041001,140.55002149499728,105.7181546303766,76.679166930113,61.465346396255455,53.06770244879268,42.595256943416,30.430138726451226,18.390885966095937,1.8621129994462626,-23.696462318316033,-57.440268176666436,-94.26996468576978,-124.67302275801579,-143.9921649967824,-165.07204806125702,-205.42743711705154,-244.0139253815649,-213.19790665308298,-86.70727195994982,56.4888032427862,135.09140596706976,157.44941138236462,165.71452176651638,174.9635010396699,178.94377622073105,167.29628402374985,140.54200912647184,111.24493042510022,87.92262774224176,70.20338709642328,55.92289908169732,43.949331257740354,30.168032405717675,7.710748827578471,-23.12839248246419,-55.288179417467454,-84.20694104147897,-112.29259337574348,-143.15542365436366,-172.49014889742253,-195.01796882891995,-222.32717283540612,-264.14234522791133,-273.5072915753154,-179.84421030493613,-16.364465456895665,105.0179227844576,151.18300973632114,167.8888404851631,181.6260161507657,186.93871305916988,179.55821756084305,161.04725389702315,134.57903999954127,107.4767478752973,87.63392095148127,75.81382221518977,67.76751755341314,56.73041825331263,36.95291138947999,9.955430950983533,-18.37734479734557,-45.198249326148755,-71.71881827542454,-101.06699699450114,-132.1687777430583,-159.12003543531208,-180.62191616284522,-208.555645119131,-251.9610647047828,-273.6339877379631,-205.12688323537728,-52.55320537979654,86.02384268136805,151.28510315709087,170.10120217055666,178.7709341692351,184.17157878184187,182.2631162216277,167.7403584846979,139.96804827760508,110.09959227195098,89.72804558167105,77.5863422544606,67.17900176411942,56.10261750015395,41.5210298145244,19.04868268043478,-10.940415606648845,-43.0338761922807,-73.0409326886978,-102.79466622482241,-133.56583098919302,-157.97538896519976,-173.8839817309471,-199.35899918149062,-243.11545932296264,-256.92510153773725,-173.71207300450334,-18.993629785596568,103.50497437894427,150.12168398880237,157.70316211926905,161.40981927954994,164.17169498156315,156.80632169334635,133.24849652436214,101.47084121085095,77.93020236055983,66.91529516686494,60.38858536138981,51.200095878801505,35.20304968808079,10.795947887972362,-17.750836903150613,-45.99534648499403,-75.74132767719554,-107.67641770218478,-135.86487102529526,-157.47987521152334,-182.26676875920148,-219.86318586174193,-242.9105697636297,-189.4792624829534,-53.94215177807267,77.4868525696644,140.94275180946488,156.39289710275202,164.1686323338513,174.23600471387064,177.2409383711326,163.9513860182295,135.36910576267516,103.78250303514956,80.16396263612614,67.16159747827228,59.04099354901263,45.416752905383206,22.4777527466066,-4.493072013704449,-31.18850765008937,-58.98498155778694,-88.84589625407109,-118.82457685970539,-146.99196221388186,-173.41078355718753,-202.85715374609657,-242.97163325553046,-272.9434357815703,-232.18827560015507,-100.60734979154219,45.502148513748764,129.62137689048907,157.9213172523599,168.6663225280325,177.51880835189118,181.07418905213643,171.68847614873823,148.02799893739544,120.84915068849479,102.12683112250242,90.08722232440918,75.36053396891323,55.84128302106177,34.96714408286053,13.149746422536243,-11.69752116143334,-41.11260363302597,-73.76070958256564,-106.72354433688848,-136.96268615904646,-162.534415816194,-186.9698408203772,-221.9068683455885,-263.8694647907919,-263.0404124762775,-165.25043922362755,-10.638563038947154,102.13873956018398,145.99924958574837,160.681458725292,171.88287984476736,177.4917155871803,172.4976518935136,154.14070931153168,124.89269582761798,97.81525031882678,83.57916860373462,77.14840087746816,67.52198450538174,50.513670303332106,28.116536217699696,5.262371613269182,-18.61158766976943,-49.18952514634247,-83.94075417046992,70.0,107.0,62.0
-4.540867605515362,-32.745012940948065,-68.12210854211784,-104.15544372239704,-131.20063012147978,-148.90767376606027,-174.5580496995303,-219.258404149702,-245.2729018697779,-184.70797933728494,-42.09627831683625,87.11052792343372,145.2706238255127,159.99013453137312,168.3404380836387,177.15947216313265,177.4829945548415,160.66760619709817,131.76126724626036,103.791368156649,82.35071437398291,65.77300925395468,52.30665211985,40.47631910508451,24.764165986196602,-0.6033527969092171,-32.60535073022423,-63.994480068609434,-92.17415873014858,-120.92785569366625,-152.1772152889067,-179.5903260626336,-201.4789688528205,-233.57448888372647,-273.93038556693864,-258.372135472435,-134.8591391668285,26.888791140891477,124.59148170488203,156.95055189395532,172.14654273947133,184.39469288443271,186.08582109192915,175.25132158097452,153.99394407287173,126.38462019402883,100.81120047362074,83.5314368680269,73.35355757685893,65.22653273228923,52.008894161282974,29.6355471227596,1.6924995336392168,-26.296501010263814,-52.75069384574638,-79.82010632011567,-110.1006718951218,-140.62869973840796,-165.63682049799993,-187.23515919819383,-219.94648920570017,-263.6219874104078,-265.18485005296327,-166.21242113651527,-6.561748129805993,112.36419314538918,159.35901749654641,172.88565132353972,180.80843497850609,184.59047803407813,179.58037193315215,160.79667042686287,130.86652224317243,103.04118438510014,85.69748326352394,74.58441171222978,64.10156858051866,52.469060139267796,35.950514469976255,10.974688129578679,-20.27421306551578,-51.949299066154786,-81.48000028548843,-111.75768901671776,-141.691184573393,-162.99854146320973,-179.1909491448498,-210.98790443941186,-253.7436602319902,-244.23106476610522,-132.0670530614077,23.708666546005926,123.99347624665859,154.11937865008576,158.56330564070728,162.65970531544514,163.5089536565788,151.6444780840515,124.15466740228892,93.28224331388073,73.71139852108942,64.97435112701302,58.213849933137006,47.431894212412324,28.940603566369784,2.678624683441237,-25.96576215652492,-54.278067545486905,-84.91681336430102,-116.51503086369783,-142.6050623228979,-163.62217146168086,-191.99464410180747,-230.60705618099092,-237.6126479213613,-156.07196209422344,-11.115370960503359,103.22384757322136,148.2109647257499,158.35005445937315,167.11757802284635,176.33805737530565,175.29939648478984,156.8522152549765,125.92700218154977,95.8644933614931,75.4091983127561,64.76819203262934,56.054205777462684,39.62111521420058,14.7916789033407,-12.247439983535497,-38.99733631436001,-67.45153082553996,-97.60948613026756,-127.18707218884768,-154.73561287559812,-181.18778638592758,-213.34498373004715,-254.9357779195858,-271.0916830216856,-201.6578877489281,-55.23570555284399,77.41269283318265,141.7032249933125,161.591130311836,171.36734185060845,179.44170018917006,179.95798993320125,166.0588641288574,139.85423476652858,114.34164719971511,98.3925931731137,86.40415781224308,70.06598436786058,49.84746004314683,28.834580232777864,6.386372130984736,-19.72681276478676,-50.33442030438719,-83.39048247881742,-115.86267281041911,-144.84487407284024,-169.2895390297592,-195.49716158244996,-234.54467468492538,-271.2530658962339,-245.30762702562046,-121.87656809429512,29.471768996272733,120.60113071774587,151.37786875251615,164.08248595765534,174.38270456811605,177.2678312528832,168.65246920431463,146.39308597184498,116.15063192324439,92.29646383779219,81.46564071590724,75.03133533298771,63.37361279526562,44.382816578444,21.40107023945488,-1.2647013764607498,-26.63416227164657,-59.185120656970206,-93.49356534359165,-122.65934267763349,-147.61022933320044,-172.68716281394566,-206.50877546078823,-251.12355119718393,-264.1070576330663,-181.89701459340546,-28.12878293819045,93.99166395332534,141.72935765233893,152.886952620486,161.33855492050375,168.88361184969474,165.85969411257784,145.91328875774585,114.56040109741126,87.05434780131476,71.24372749666072,61.7949641613645,50.1985294958088,33.618547306084835,14.765681538974569,-4.651793947882228,-28.227210780709207,-59.02418206749606,-92.04476379073421,-118.85603799583535,-139.8070151311071,-166.76512839912016,-209.44348272814395,-244.38079044035177,-210.77395435731034,-90.3602958433736,42.276663763733815,116.80287417406704,141.81067580432145,153.50223281909817,161.99112443616227,159.35563727493306,141.8736678235752,114.97993782438448,89.37052766665326,73.04964188506139,63.513730414539324,52.7280727566612,37.77742253185354,20.313101617076693,-1.258398626906281,-28.53017868285156,-60.10598154134128,-92.9337404409857,-122.53005388173919,-146.59997904892546,-171.6916828462046,-211.00017411256366,-252.36640755535393,-235.19391928337134,-123.10526812451349,17.671782465319346,103.61730065108013,136.3416910768037,155.64969045232993,70.0,107.0,62.0
-247.55184879319017,-121.71387752226663,35.40178096569989,132.17956473332063,164.79960982850443,175.39878186735476,182.5106494305209,184.28899718277327,175.696296112432,152.8294758954871,121.98248428426886,96.96100388008945,82.18659674398134,71.59579203726615,60.95321927373446,48.43006955006729,29.62818250010624,2.3489947926114403,-29.618964003078364,-60.63673872234968,-90.0103779428676,-120.76773528084215,-149.01013859587246,-167.4299419664302,-185.95750406263545,-224.02194849542235,-259.98224715554795,-222.06497239801556,-86.45950344138383,61.04527029724924,138.2093692972489,156.18648704039055,159.59361558484085,163.6628353724377,161.74936402067044,145.05546566973968,114.75516196985706,86.1655826497702,70.45230418526262,63.163476030265265,55.695028543974125,42.999820496761274,21.979538843212723,-5.6133729937676495,-34.10394078783487,-62.79070886850869,-94.21942516396088,-124.84411547040544,-148.82081881374936,-170.41282710729809,-202.9237043914795,-238.90989268863532,-224.27596353433157,-116.78077792639378,28.650548123297956,122.61364840205695,152.64092588123324,160.44418182069958,170.1678617944027,177.5593288288591,171.81562448485147,148.64537761815984,116.60113085459557,88.80286188458591,71.53057579851338,62.55555523267703,52.349551091650106,33.07165540818817,6.957195266834617,-19.940797501370724,-46.971055473841524,-76.07623466794512,-106.31687108541094,-135.36844019131536,-162.34543575388997,-189.41765577224226,-224.90942185798798,-265.0483687865691,-261.5741041982831,-164.00195823412164,-11.354193895817463,102.99097916529054,150.07365890678153,164.6268324555113,174.0077295436062,180.7400795317375,177.57742987881343,159.31004786537116,131.76982495330944,108.75144511837094,95.00422173628111,82.2807862398645,64.43320618947467,43.82129935740393,22.590235122880514,-0.6908085610133309,-28.155952575021935,-59.76276824441963,-92.97194563535083,-124.70297669842962,-152.30023476897537,-176.12599434189548,-205.26295104810825,-247.37406690864515,-273.28717439999855,-218.55572419038592,-76.03467711155017,63.798013749281594,133.75435147615312,155.5094005104013,167.4181707972528,176.22697442117962,176.08758262228622,163.6130119313968,137.9016624989716,107.99940538515021,87.99143546444432,79.71283659414033,72.41990177244779,58.581401981691094,37.90183223834298,14.775988735902807,-7.997068726280271,-35.34809158469435,-69.33662536746957,-102.54529076473516,-130.13334450798067,-154.58631990879837,-181.05957980542675,-219.0367986000774,-261.37003155526816,-251.56550696337416,-140.60649520961303,14.416806620594388,114.55506493622852,146.54770153802488,155.05782573344587,164.00618532303122,169.51480700562743,161.8770003026859,137.41301646769304,105.58665814780528,81.33131298385291,68.2811866882653,58.93345140681063,45.862038304552385,28.24418267343213,9.2784331227061,-10.797946924585773,-36.43193197862821,-68.75232568724086,-100.66415642723473,-125.15609213747959,-146.2993545993961,-177.58364830353716,-222.6786311662695,-244.29144839465928,-183.00893954981953,-48.89721943660341,70.79052907066132,127.31669626726104,145.49859196149453,156.53523158651478,162.7311935087181,155.73176013171673,134.6593491387009,106.94176262605563,83.60059294224207,69.95062759680857,60.813543411942305,48.76585505371945,32.97627722046768,14.639017562100829,-8.576902200063115,-37.31210875031302,-69.64657071582566,-102.01260651916748,-129.98567436504098,-153.15331469022698,-181.22458090570908,-224.6725678062327,-256.5764887482133,-211.54850754035246,-80.60994564499293,49.78532712665101,116.63589003996356,142.10226410979772,161.09376076395932,175.95017948043508,177.37929120712468,161.8034900037193,134.44308944655336,107.49797313321777,89.36451486809241,75.92595797740277,61.04210882334816,44.42344150989656,25.03971064979122,2.606202589378946,-22.38397900847202,-51.342779184660735,-81.33631102110807,-109.61200728783768,-139.65882027880724,-168.90227450650656,-196.3146570221448,-234.61492675931322,-269.5708212501667,-237.20287704649908,-109.02259001535106,39.64250387203655,126.3988636358669,154.49889060942323,164.63254424389348,175.39500676439556,183.29925745975768,178.4617225015265,155.79940438428736,123.21581090418667,94.99809981878228,78.4974887214423,70.75858708994964,61.210938767546416,41.936822129365325,17.20856791329931,-5.6058835178719315,-30.179248070046206,-61.34416041596272,-93.64145198883999,-123.77115065099782,-153.31684266652417,-178.89514399948897,-204.36024201882316,-241.7031647735772,-265.69781019963443,-208.61957198497345,-62.62541248361195,77.34558611266799,142.16807412466943,156.76663031463949,164.11475457352083,171.79942262438982,170.28030626265905,154.5372345236237,127.49866407422377,98.50703740943858,77.477012715293,67.0202533618585,58.95960227034662,45.2837760331196,70.0,107.0,62.0
107.68732971705555,82.67077183447006,68.40197001926437,60.230392397782204,47.8055675797817,25.923676639362263,-0.8921426704387876,-27.62698726882023,-55.14607157201974,-84.80446699404514,-114.9117815346384,-143.36563510501088,-169.9042327064092,-198.3933729347831,-237.2268023853831,-271.61465055323674,-243.4790647557114,-121.29298840248495,28.755809652585558,122.48411397368503,155.85377197844338,167.4108923832972,176.4795303410815,181.20060333719698,173.8561452249394,151.71680153644883,124.13598724035349,104.04170886212177,91.67488123270913,77.65704769570105,58.58241327548046,37.77044615938758,16.17850682335817,-8.13313639257478,-36.950264916516005,-69.32607048882161,-102.42740356897767,-133.18576973291871,-159.3727771415097,-183.38094365442956,-216.37091149751674,-259.1920257160665,-268.18867372424285,-183.6322491714988,-30.653639766821783,91.56152753717905,142.83098445511078,159.095130935108,170.55600898052077,177.2894705090919,173.8818676365067,157.3868666330331,129.01387904722662,100.77072451157588,84.76724037106663,78.00086296858754,69.21461308353949,53.185276598456525,31.221790021272998,8.2526430466181,-15.134321091080258,-44.700890536780896,-79.39598631373327,-111.06657220787716,-137.3469344300861,-161.67913125810475,-190.46451793583367,-232.3417269684781,-267.29708858479114,-229.69973773528798,-95.28872935980245,51.62514558233933,129.02961320864316,149.6296430913212,157.4598645319815,166.40564692682608,169.01355731466896,156.38993802915658,128.24933283347156,97.34076166563355,76.62277198308297,65.62208490364864,55.7099569369033,41.115789578599646,22.78062548824415,3.741106933991104,-17.433192110778315,-45.26166042379469,-78.44944913890961,-108.57935064444003,-131.10431209163573,-153.67923599119166,-189.85686237425085,-234.19749623643693,-236.75234135237133,-148.50484144279096,-9.003943684232432,93.45381392810884,134.64246400044053,148.8290205927845,159.22301108115758,162.3024572978804,150.88095962512543,126.85896685740317,99.31047703028351,78.72045107664866,67.24430507472269,57.81247929494554,44.47533431904324,28.00296628055023,8.535361593831789,-16.37117439379295,-46.40465147348615,-79.19909499687098,-110.7023286238211,-136.96616317521756,-160.07165475437466,-192.3024774161562,-237.7527249500884,-253.95949718076034,-179.90895718694358,-38.40013377079705,75.89439372365472,126.17341881634854,147.60457652851184,166.2449189067564,178.05617049697813,174.57017696534797,154.64933326472968,126.03876490211144,101.31668082654531,85.38326298728546,71.85268863417366,56.41303980400446,39.183364808824344,18.80865316193384,-4.292002204199562,-30.341531749525924,-60.15987436974127,-89.57407898041498,-118.01642988533648,-148.50606645324484,-176.57905930281632,-205.8371974041108,-247.2644382399473,-270.17659992402486,-208.43413511897523,-63.294699971517986,72.54830623096973,138.6841911813238,157.8614019880135,167.57057813863926,178.39415032984277,183.61768290845075,173.66795283604512,146.74808698763707,114.09561660045459,88.96446243744879,75.74095246157454,68.70612009983525,56.69791811101275,34.909190643587934,10.347137555609562,-12.13957438405421,-38.59743667412793,-70.88454877502588,-102.47784736306727,-132.42090175993675,-161.273059060173,-185.63396859920454,-213.8668760638077,-252.74636405170287,-260.12977740964214,-172.65398205399813,-16.66720856339963,104.10441294507939,149.15549341659158,158.62893075063607,166.67865014611263,172.68391171605737,167.20977783072735,147.56272857769753,118.82852920223118,91.29011669757476,73.56118541114671,64.94844690513378,55.69464309484566,40.241505782926055,20.18728294180804,-4.569054230608411,-35.10936083136786,-68.53676889230232,-100.9778271749132,-129.55754202293488,-153.18256891115203,-177.61356897646607,-214.0624120275104,-247.72923362805264,-219.25865926842408,-98.0735837160444,47.359809447107,132.93663241148852,157.01436648057893,161.21450829679046,163.70452701462276,161.3093318218893,147.75899541221443,122.6566109470729,96.51046500261363,79.13977035945098,69.31689212081164,58.97973093974066,41.412492299768545,15.300649994917553,-14.792570504315815,-43.01085951977968,-71.40634175939134,-104.74742968896142,-137.58375291580825,-161.81174874337336,-183.70477231057188,-220.894516875891,-261.3384008087051,-240.42163926444363,-119.74435182027736,32.534028960892705,126.81200859687252,159.19398004286919,171.35827673281116,182.35993351307948,186.4529420642458,175.69571496783988,150.6081715939129,121.40781267238884,98.15190686430661,81.93920440398166,68.4631484397403,53.88854897079223,37.29727066643136,17.728706315238462,-8.630693478800062,-40.60167445598179,-71.22374191268158,-100.76777348019733,-133.21827707315825,-164.24954079246038,-187.94043165967878,-211.7260032596213,-249.81360829993457,-280.40931773106496,70.0,107.0,62.0
-89.14672626039253,-119.0985568152008,-144.39283087954624,-169.09067336586014,-201.1374182765432,-245.4904425327713,-266.907811618114,-198.82299076702301,-48.97910647115524,82.232170601526,138.59741797047926,151.91562814311212,160.0881175957382,168.2734372620031,167.187717298904,149.5026878217481,118.85123986536273,90.05543182306913,72.77995502623496,63.02815760106906,52.04509622884343,36.04130140473702,17.294029324830177,-1.9444644349737148,-24.669480334726437,-54.59825164699877,-87.86319445034208,-115.76800132152371,-137.0042764769516,-162.2995895360519,-203.16795174934896,-242.29741247828082,-220.9137664942911,-109.31672165193211,27.228670179018664,110.57287667476423,139.8579880669449,152.0459687567869,161.3071672802659,160.58955406869575,144.93576406995416,118.74489589555854,92.32486450737338,74.67178081774843,64.69681695117525,54.42602348209731,39.93553457354286,22.806444545602194,1.9479751605573215,-24.601554685077975,-55.741296932525046,-88.6466987573727,-118.91710433064688,-143.60032748079908,-167.7674361056965,-204.84298874283914,-248.62062270352772,-243.14560890350918,-142.01816859735635,1.0037248920095303,96.10292805959818,133.45057958242205,153.10668301476173,170.82876284239612,178.83264467596535,170.32917019630315,146.72784466047997,118.0156524818494,95.96506276825968,81.57279869769695,67.57999396199028,51.662396495112915,33.65585517435269,12.357576751752323,-11.419529295369408,-38.67032469957303,-68.90829508629933,-97.68584745558084,-126.68229824126294,-157.0873503224015,-184.2366808075764,-216.69508181600784,-258.7205541635376,-263.2092845086838,-171.92103399104076,-18.66106628900331,98.97232508044775,147.00988878467044,160.65550872744845,170.70648294516928,180.9402866685757,182.62042431639412,167.3516503532903,137.20992771225752,105.6699412443053,83.99161162999893,73.54480556902044,66.19501662795986,51.2674630512918,27.66911025261439,3.7610075389571054,-19.047036919555506,-47.581970880288694,-80.30365055207119,-111.16113135501048,-141.04245560449695,-168.74715025844978,-192.65276500563445,-224.65031257436385,-261.4145152720251,-245.9342835630065,-130.30058110612651,25.772066070688364,123.92335428330117,153.29655815330392,160.64529024562205,169.10595332502407,172.55434403387162,162.90670443114976,139.7903032427044,110.26942062396382,84.95540533659566,70.48369132200807,62.78146323134505,51.85254217622715,34.84027045623965,13.612945261937341,-12.850254868977359,-44.666347169982565,-78.14884806690083,-109.74198665288789,-136.8273231293772,-159.63554231722645,-186.664846097376,-226.08284796183628,-248.81478008565614,-192.53357603969468,-53.81492902305135,80.02471817099344,144.38364095226166,158.80132001992212,162.076322744409,163.8065770408107,158.75803177927673,141.39941698838058,114.61205448667961,90.425137127539,75.83651473361222,66.75589620765676,54.82325957959006,34.64400164082287,6.701072027589564,-23.251766611692325,-50.882641880202335,-80.54812877279359,-114.76018150920022,-145.56737865067726,-167.60665844612032,-192.36110504582948,-234.35171915829784,-264.90426266655294,-214.79887175893393,-74.01279164370763,67.69541349447162,140.7294357698797,163.25767634636364,174.66064912523672,184.7060840055674,185.04798289184325,169.61392789788658,142.02033517311605,113.85353390933275,92.8954906872136,77.97577610167127,64.46589911257826,49.284708252689214,32.09417930270745,10.945068325988304,-17.596769096934263,-49.79135866454824,-79.61974359153209,-109.84987546873114,-142.70841312278904,-171.86207862352353,-194.04589787996437,-221.0975349088382,-261.996028025059,-277.97311951995005,-199.73497135569602,-37.809143117224096,103.89060563224704,167.60574379209146,183.46309198008325,189.12719439983795,193.30188215169682,190.02655890165204,173.01396260675148,143.20548041510477,111.31761767033169,88.71832704037527,74.72682363253004,62.80730885389648,47.902303970574906,26.674747940059525,1.0183645657394116,-25.025571685177137,-53.035806888642675,-84.21723556104942,-116.1740986086178,-147.32287164781698,-173.56753011118218,-194.27519394237933,-224.5792916807765,-266.34513379708795,-263.07283030530544,-155.59714090669559,8.000067368514024,122.98460562460163,166.01891527325927,178.39010725574985,182.64730096520992,179.74647677439856,169.39898622391348,149.07315279425998,121.42031958452101,97.20394414240685,80.52941984489031,66.6230642199875,53.236257819202365,40.60460615650667,23.218165571316536,-4.26827320295213,-36.77605443875275,-66.70577455671767,-96.09506151454684,-129.24625670130263,-158.86566504856688,-178.735083893313,-203.7885806844342,-245.74532703993495,-263.6078047779346,-186.63168299776544,-26.58325496943993,110.20527134814958,164.90461794384197,174.0423063559642,181.9562948816686,189.89315793393266,182.72151513255224,157.35672741001397,70.0,107.0,62.0
158.60472191806076,174.57360265512347,178.17766964413207,164.7664052548551,138.35784322810522,110.63499365462032,91.32094026358904,77.73911139794895,63.13685330087213,46.754568719233404,27.825476876522952,5.723094494807652,-18.843459641664264,-47.29888884324358,-77.46806535726914,-105.81591103966198,-135.54706547819254,-165.2681494775207,-192.31476323378592,-228.77715877145366,-267.20539458292103,-247.50839189346664,-129.69506462280114,22.42135431010672,119.0739094819759,152.56768891629977,163.34934743054444,173.9294844269861,182.76978144762344,180.1366142606983,159.69921369824448,127.58216708745374,98.13534108215323,80.0226255150397,71.63039126419348,62.97986458811409,45.02991333870356,20.465099933638218,-2.653832991254878,-26.516867612491538,-56.95405288679966,-89.49187176783096,-119.79026359959181,-149.50993914514342,-175.766343803237,-200.41506740692174,-236.2898541462092,-265.7330528996876,-222.48143389490423,-84.25474586582725,62.61250551690973,137.59891640230032,155.84726724711774,162.96215054319265,171.1020701318634,171.27769541270467,157.42900087541238,131.4567278290532,102.08613019242244,79.6049260910903,68.02332802262916,60.276505491595145,47.46815381031592,29.1217851551,6.593260310492676,-21.61323716700383,-54.3533880417277,-87.60033564985436,-118.11577684618399,-143.68049393069714,-166.40151137318796,-197.0200821330545,-237.03709097532544,-242.87534639814967,-158.15568621242153,-10.188792605922957,106.20734749456612,151.57676836599012,159.91927869177445,162.88257575640318,163.34527075206213,155.12148866769013,134.17201235711076,106.83060118686893,85.22403182401702,73.01792138110082,63.93455579074958,49.938396397144125,27.189286282542,-2.0641804770339456,-31.435633475801453,-58.939693729076645,-90.16200759424581,-124.47236802399382,-152.68909904659412,-173.56350251010053,-202.77322330271542,-247.2336576927852,-261.3127547878064,-180.75398583447904,-28.419039354780036,96.40868804325957,150.3396019893371,166.64757539793627,177.9629140718846,186.21284014609662,182.261726276495,162.45055317028937,133.41903956741842,106.96942576321513,88.16258673122955,74.11797675914691,60.303360925265544,44.528309566716416,26.58400370933966,3.4812429768541175,-26.893999634041425,-58.697221302157644,-88.05693522097084,-119.22988296884903,-151.8692914383292,-178.7706680459463,-200.53504858796188,-231.98344557802156,-272.42129790046374,-267.0641637192462,-157.74007689491464,9.807617191187264,130.05664636860527,174.91914330953625,185.281985620879,190.62825551552234,193.48200330109847,186.65555015708804,165.41945041629114,133.55709709556072,103.61572627136967,84.083279918384,71.32301453085697,59.00270435294257,42.46717693016891,19.481376300123795,-6.5089600689679,-32.76043176880609,-61.8121332161158,-93.45183350466618,-125.35764459566626,-155.65572384771284,-179.7462995911,-201.1772780467102,-236.77149093449788,-273.7240433757661,-243.11595059322414,-109.0799139974819,49.40098512809204,141.28646557531985,171.0394144226088,180.28482843945275,182.55862622677546,177.58488049854367,164.65630837745482,141.40724103497683,113.6467412478523,91.74932040106806,76.45024465708875,62.65208230256631,49.61399591113266,36.44618471115704,16.291904768468427,-13.573001751372557,-45.819996036570004,-74.93156473256076,-105.36799420098616,-138.71320495292053,-165.37379818699137,-184.38619489538962,-214.70828240094198,-256.7551537195798,-253.11143654088258,-145.02100907905074,20.045469739305055,134.08540212540075,169.5685591187318,175.64518400372785,184.9626779235674,189.84925050664708,176.93902746602086,148.18269379261358,118.16365446211701,97.79196997813474,84.40011255409543,70.35387682486021,53.12935574442756,33.80776053422185,11.943992912738318,-14.775393125972556,-45.88034882130625,-77.18835424517114,-108.05889565367792,-139.39228292978126,-164.6749093119872,-178.7107919961862,-195.83745181223918,-236.54616388369894,-278.61157782139964,-249.06799098803387,-112.92801678806335,50.02427597386085,145.60138627836795,176.0455717342834,187.91395171364888,198.6255114040648,198.22454118156202,179.6157730779237,150.24551245232254,121.21205523359477,98.37091737854776,82.09524607362032,70.51793421287618,58.281306838441154,40.6768087544692,19.058250217226337,-4.1386411196809325,-29.880190085955377,-60.09691608092309,-94.21964753238458,-129.19239621031937,-157.53309258923477,-175.8040079486565,-198.0937160812922,-237.0269061466403,-255.93864395742838,-186.34757416803188,-35.720315004380566,97.85469904382889,155.40451048583375,164.1950475839052,165.4234926603542,166.5861349396432,158.6568554983961,137.9610117878021,108.91566866174973,81.24621197574429,62.93618827641072,54.20040285926303,47.86083825168078,34.94655268988022,11.414339170049136,-19.88680653694291,-52.399705977459924,70.0,107.0,62.0
42.61467038036967,23.08617337003931,-0.9259351306832379,-30.777817214406976,-64.07053883115711,-96.82238859409219,-126.05265765787568,-150.22241125518195,-173.8494498642817,-208.51707041851722,-245.31589005244464,-228.71361514131289,-117.92748958605443,30.3045560159403,125.89403954972803,155.76948267169698,160.81563766320653,163.51353083630406,162.15186688545114,150.34209982505877,126.36090453596479,99.59912200253946,80.88066800320435,70.46565786185751,60.673315276888395,44.2816231976156,19.157996284101174,-10.810819047932142,-39.38814375190132,-67.36362468639612,-100.10913208804351,-133.61751253914846,-159.05963281517097,-180.23504188294123,-214.8751796049366,-257.7983359415616,-249.13973264799188,-140.06288104784332,14.360305304019446,118.61656135729785,156.88522477244751,169.8631900508386,181.06639057503983,186.65645304807794,178.07941949307622,154.4731424509162,125.09132201473483,100.78012138932496,83.83371270141738,70.26344421080661,55.95485480952877,39.61952232207323,20.64593168130047,-4.665312203851622,-36.293546360394124,-67.3202999167972,-96.69029839431583,-128.79524781416586,-160.49552599886638,-185.12301104481196,-207.90679006986463,-244.05575821613078,-279.14141682845144,-246.63199222433985,-110.3782346987964,52.77936051009386,149.4301962862622,179.51715964353525,186.8720503501235,191.97457236565492,192.8322702315279,182.02723763548607,156.8639996541603,124.09888382990022,96.88494249070003,80.01809917202354,67.9425990563207,54.83837892618952,36.44259802324223,12.04257212450736,-14.00424013444443,-40.76311999438179,-70.8191258618335,-102.69306095749229,-134.44437549295748,-163.42201492807078,-185.55740379076096,-209.45102107492107,-249.57344907581188,-275.26999028237,-213.5551194991596,-60.448229039738926,84.42204659109198,154.1861844148904,174.62518963017897,181.66378968834903,181.84989397695762,174.79358075925438,158.979540500164,133.32228645882176,106.44764706237682,86.89005387256681,72.44922567566188,58.743370468019286,46.04038647416629,31.67288595487864,8.470122878957563,-23.062960527293647,-54.51110772435859,-83.29103900987418,-114.98899259127771,-147.563241682269,-171.05804138635312,-191.0885638021904,-227.07373551094736,-264.0464962804415,-233.0363579354648,-98.14380464100431,61.70652278759885,150.83546479963505,171.97597436158935,177.83220274157014,187.60739181196357,188.20448132408268,169.73859297956295,138.93250520618486,111.1601699413727,93.57656833915723,80.64704055003132,65.66812233771743,47.728413216261764,27.842339318251284,4.807150082178915,-23.479633655430472,-55.054384397632454,-86.04078005321625,-117.19116454562561,-147.75443552199212,-169.7141000915773,-182.17551741428798,-204.94950619844644,-251.20659665506935,-280.8414058693999,-219.2074066242292,-63.157967639387444,86.37113157496071,158.94901306296345,179.8252361654162,191.31613693208365,200.24523150903073,194.61117311960967,171.69880269533695,141.431203711321,113.89233157980901,93.04020420580815,78.42330963766435,67.35954382550021,53.78483951059553,34.692913706873036,12.490762572998927,-11.199686691230001,-38.12687490195624,-69.63267537576975,-104.47825855593275,-138.4533911379178,-163.57937480584812,-180.84941395018754,-207.9808415362635,-247.7504162982072,-246.9530982184011,-147.63631161235298,9.091707665917193,122.2833955131524,160.67393509308488,164.33896439851222,166.14030181591193,165.55625991146982,153.9375543524456,130.0506369900965,100.32255874217303,74.81346359422203,59.642660827933874,52.544863161464825,45.123813497606534,29.2290733981478,2.898205110499146,-29.421561955164737,-61.39781071177743,-91.90757426749526,-123.48658518698535,-152.09043521150514,-174.44885360538092,-204.033212172861,-245.13351411336257,-247.2759843545062,-150.28689156609065,4.239395542584743,115.83655448045943,157.66361466289743,167.89505629261052,173.87783917428567,176.80914604068852,170.98606003862355,152.69473096897286,124.89741779736978,97.13695055523344,76.62063736307095,64.53686385630749,56.30013209846937,40.91730018395877,15.11422447182501,-12.795554088461103,-39.17451301008393,-67.29914482262599,-98.71837529166774,-132.9163779661925,-164.55769508091652,-188.88976810557782,-215.12368455204918,-254.20378211808472,-274.5058754230964,-209.81150930562967,-60.69338557659514,77.89725866843762,144.51063090345568,165.68577399148285,179.2612356721772,189.53503457255255,187.9129422201851,171.75373201467315,145.67110510089566,120.14308967991553,102.7297163156449,90.42146248098477,77.2647070378741,60.22105571819099,37.32478461641343,9.170544691235149,-21.009535134564924,-49.339242370985325,-73.34193207027906,-97.17534380643299,-126.4437037674798,-155.68208746675353,-178.95227994827903,-208.33459608176472,-251.17995072161804,-263.05740276568054,-179.26891443747678,-24.643516388875977,70.0,107.0,62.0
-280.05610304180857,-216.58742188132933,-60.655330941597356,89.3984798283353,162.97854683593135,182.4478587306342,188.41735440908914,192.99577568743243,191.17225251674668,176.13855812994015,147.6133644949721,115.17518957490356,91.09832191377492,76.33925694487688,64.46986522348911,50.21344341571778,29.866946721330105,4.500209457956715,-21.524047747646218,-49.087868230699335,-79.97091255275888,-111.92484768170169,-143.3313941310171,-170.52210229522277,-191.41361467316432,-219.41450793601257,-261.5825981383833,-269.0076345336558,-175.47317191158575,-12.830112253097646,112.4141390224545,162.9865675252274,177.34312753886456,182.4770801278214,180.5444198623948,171.28670891202964,152.38842863142747,125.13812139684606,99.95184300111349,82.46798603556104,68.46134697853964,54.94423802849502,42.376820735744836,26.09519377668851,-0.11155947497402008,-32.49857104568279,-62.90159535433765,-91.96150221026744,-124.76471000331004,-155.5308316725377,-176.30937300771126,-199.36140862742778,-239.98560548569492,-265.4769036443433,-203.32578738351967,-49.063162353641694,96.63221870755804,161.57394552388186,173.42499038036956,180.57552990620587,189.43659739528528,184.84578033445186,161.44269195457562,130.00041692623552,105.10799535681095,89.74908021232355,76.67398421832621,60.72445186138224,42.18358125707343,21.62562916558439,-2.8023668194458575,-32.477958218336184,-64.13284330164655,-94.91499423261212,-126.34538469059453,-155.3565427192933,-173.78431525822808,-186.514549763274,-216.42318285660446,-264.8066390170485,-274.93820285801803,-180.5750385500316,-14.23468407946132,115.51899320020729,167.93033125094342,183.1166393480092,194.62863757897884,200.56187645660867,189.4590212699626,163.1771653569342,132.89036123007645,107.16036563867348,88.23560709047682,75.0838636513927,63.96451752250415,48.78451454770179,28.458923032878914,5.8278003724716,-18.53636551322291,-46.776168979638285,-79.45872492992288,-114.70824259921878,-146.91717196211872,-168.82281283610118,-186.78444042151148,-219.38221582129586,-255.19957814666162,-228.94354450046083,-103.63310815711401,49.64962155952908,139.94263184435985,163.15963459293945,164.59298512641067,166.6865488252803,163.5459805053925,148.143280712935,121.62491090949126,92.11057743314063,69.30325436139087,57.065098716152896,50.862733446546585,41.63080334413713,22.599095094079225,-6.1360399944029105,-38.885646305626814,-70.2352876539797,-100.9177816307424,-132.4167420411306,-158.92134602735447,-181.40631687265258,-215.74175344792923,-253.30425505190036,-230.08821758277244,-106.82887426554782,44.07569991187123,133.86294155672783,162.03162873880598,169.68396736802976,175.28631313776822,176.26294914686704,167.01767667612646,145.2868176431318,116.42562130188848,90.32600460115977,72.31731217034168,62.19096483461273,53.03561320686767,34.26359990898859,6.892218532207531,-20.46345561670018,-46.99412016664845,-76.02142093171469,-108.4307317728318,-142.67430815294964,-172.26283483978307,-195.4927560364886,-225.3246439115014,-264.9130478552995,-266.7664590960007,-172.22812389146446,-14.984058465123809,104.57135055134168,153.09106494953082,169.6112966794267,182.97611761222842,190.55256652730023,184.66845143378853,164.8511169795102,137.72962886576585,114.2295759584837,98.95645082403291,86.88496293508088,72.84011874015069,54.25472666769207,29.61019241502351,0.4971553846231894,-29.56378722861775,-56.692123483943654,-79.88718317734697,-105.0722701224206,-135.3714157325264,-162.86185108745255,-185.93333559588433,-220.07808309061016,-261.17162467909003,-250.0543429139961,-137.64129023381216,18.099022119090417,119.66928339105493,153.6774103926243,162.66930754804253,168.88611184954738,168.41526892382288,153.0276880334002,124.04000697850903,96.18483554911317,79.34169077157445,67.78269341344671,54.23635015191744,39.98938855582139,25.882419675417196,7.7167321079102695,-15.235850318891774,-41.373476977588076,-72.49342356803385,-107.04981363404107,-136.51470504351244,-159.44211399336157,-188.12187096698688,-229.4142364330939,-250.55164704561994,-191.02202422375558,-53.19645627915951,76.06221426587078,139.67115351832024,157.57662398204576,166.16030715310998,174.51578288378545,174.08732016842447,159.16944022187178,132.8247512718697,104.88685074132422,85.48881122262513,75.24879213039299,65.60764139837661,49.859911026859855,29.075548165808893,6.996742366526039,-17.555376013449187,-46.497809702944316,-77.4464944848214,-110.55932919665649,-144.39199825575415,-169.93897465920142,-189.0461038497414,-221.36849218467574,-265.4854990685058,-262.71771051842694,-158.30194204560124,-1.3979739114622127,108.2879858402698,148.99577113353695,162.46743050545868,172.79578592519258,176.1647805877349,168.50680568181187,151.8330176160993,128.33993515275284,102.44957418632515,82.64649746516494,70.0,107.0,62.0
152.44732836217807,121.70748149111888,99.92896534434173,86.08732839604012,72.41730782143708,55.56732595521902,36.489653492332906,15.087269556221038,-10.89294171050849,-41.638589669179964,-73.09149213536826,-103.88297623970139,-135.3523323324088,-161.98419164670767,-177.21053859224483,-192.4237492035713,-229.8893608861307,-275.36609806349503,-259.5392835952487,-135.2808195630547,31.014725940606723,137.59682031145616,173.9328287115856,186.37330902997033,197.53063771506893,199.33965681162542,182.9769525487481,154.3461412406478,124.77804164720477,101.01326581801491,83.9264163797658,71.94416999111425,60.18309605098017,43.32662270653046,22.05322478596485,-0.95627156828784,-26.213089638407986,-55.81066608459586,-89.52097179438434,-124.71655646012594,-154.41829802138983,-173.61459949250548,-194.13157762340737,-231.52453445233016,-257.30635065212016,-201.76198557919128,-57.15532915988778,84.21574672666569,151.67053124770007,164.05218408959553,165.11119322517544,166.77374259483454,160.45703359365137,141.37175917609642,112.93629509676336,84.50135308276192,64.7353761063515,55.021302141412136,48.91313305386433,37.2681051734476,15.120321604621973,-15.505498435812147,-48.18277445418195,-79.00208759603464,-110.07387391009857,-140.88609477117163,-165.2639028983508,-189.50240494451185,-228.2003782362605,-256.2853862574427,-203.5922712525798,-60.965067942462966,78.05861636818842,146.4881563636028,164.90832519775117,171.44103056916083,176.31167674572478,174.8458212627987,161.95029149404172,137.24550298526606,108.22780498278684,84.2222766817601,68.71414136265756,59.97270082765039,48.867067371978656,26.829936588692895,-1.2506118546318252,-28.036946324245015,-55.05032891413711,-85.02861145297925,-118.34670880217968,-152.0162794748003,-179.30948178836877,-202.67555603164152,-236.74695376720754,-272.6400384478656,-250.2452969044462,-128.83507934714262,26.968719185583023,124.77219560504207,159.15044345133512,173.51840781988366,186.21240709912206,190.39255427504216,180.21633801399975,157.30017639639493,130.13805132098832,109.08114676096072,95.44004897524654,83.16247933263888,68.03719023029282,47.75587651591816,21.51242584901625,-8.259339848624174,-37.859850618127794,-63.655241475365145,-86.6130722253824,-113.50038799077397,-144.02152591858274,-169.50808517764062,-193.952472102014,-232.86225630521892,-266.80672980388704,-227.70729123751485,-92.07391313572107,55.58079156720942,134.756358977621,157.147505651393,164.65091464654944,169.8536328452967,165.73386033152343,145.5674602174968,115.13950163239107,90.20311382185747,75.91913127609051,64.15551020889491,50.027093745027,36.05359421206129,21.204461908385632,1.4721128370184577,-22.4434085561478,-49.74967580092076,-82.4479459863979,-116.42727156155259,-143.47295390978016,-166.43354498760345,-199.2141200502784,-240.31133574358336,-243.60385078229572,-156.27023338539323,-10.84155096533171,101.41379460768401,147.62025913791157,160.02881242217137,168.8647555839226,175.70839413325834,171.2897151346745,152.39437178361646,124.38541575288804,98.13501779339171,81.87498075768865,72.83002610295318,61.77697601096465,44.1746311217194,22.760160340977972,0.3287333274764652,-25.534029008413466,-55.32055412147707,-86.70125411319401,-120.5877842245518,-152.96710555371237,-175.42983639254422,-196.17919961175488,-234.4401835196635,-273.08261390759196,-243.16383130498411,-113.53740016785689,38.14756442981219,125.65121167009939,153.86815239032492,165.67066793327285,174.83276226561412,175.04296202428964,164.50652247012377,145.64054604877936,120.76844346790857,95.76104308529453,78.73982911650967,69.00590545975447,58.953804965592006,44.650635285126086,25.898291619924017,1.0598628348641626,-30.428807162055467,-62.9956218202929,-91.11172213050301,-117.46155170508106,-142.80563247551433,-162.19770409451638,-185.26402473135985,-226.42591485855937,-250.52685536891147,-185.52945348075676,-38.16999512075996,90.79967022851261,144.47655960274906,153.83702587126845,158.81150088365987,163.97921631005647,156.30219728276532,131.56422326988314,101.14653755026175,78.09646768675887,63.86056672121526,52.84633708362609,41.859492683244675,29.54627628392993,12.853121527259933,-10.9636317743547,-40.014469633257015,-71.0703660154454,-103.95609627234337,-133.54874595626075,-154.35917564286643,-177.83037989822583,-219.1059765859602,-251.49296689394066,-207.29609046752054,-73.32277064281696,64.14754781912605,135.51883742761035,158.07407227567734,170.20982055358834,181.13765775663063,183.03852771903829,167.0903619647733,133.66440260152083,99.79378657300968,79.92270999299912,69.34437493797896,58.73782101641589,44.92320069982973,25.523320572530544,1.6779657142880522,-22.841806961391036,-48.34841246676482,-79.71345705762178,-116.87103269479289,-149.5865137156764,-170.4792383505895,70.0,107.0,62.0
-57.27323364707127,-87.80783552035612,-119.27623988137448,-148.7177117432471,-171.48579673866118,-199.08707440521533,-240.20703487847462,-252.07919262065383,-168.69897192878946,-15.685044956530014,105.4435856666931,154.88045463173887,167.0317537174363,173.14159885902637,176.80281440688486,172.4467725785023,155.8355857471049,128.82826766826025,100.50097818473044,78.84975529211006,65.73608557307386,57.56544512706563,43.66548766124292,18.87784408354423,-9.20168733447831,-35.633258036009195,-63.3711459149438,-94.33077700533227,-128.3356523491609,-160.76106306315125,-185.90694088720778,-210.89315072534419,-248.7607742338357,-275.4217809061199,-224.58284822038178,-82.34627652430218,63.32312001120512,139.35339342803852,163.789682310769,177.46346096658692,188.70221785011853,188.9870021982546,174.6533618726538,149.37155492698773,123.13152883582175,104.60648030134277,92.01173307356139,79.19261599007903,62.79824879724719,40.73093755809578,13.117152734252217,-17.006850817564764,-45.80883928231439,-70.32378879016242,-93.7246302897568,-122.31445007249286,-152.1510157566705,-175.93596087784283,-203.42474831462334,-245.67089565457616,-266.05213562107866,-196.3799721566195,-45.57465146708099,86.57581227350181,144.93998196736834,159.64229831703057,166.55792357773123,170.03629488218635,161.62318563767425,137.16030503707756,106.78927331781513,85.21682161538374,72.67036114323155,60.264663157673375,45.87004660351584,32.072659071259906,16.07030117049638,-5.119712323180883,-29.898620665234045,-58.62857682036784,-92.55272920212279,-125.13746580461003,-149.99562196888883,-174.3301515425875,-211.34742193923574,-248.184556709983,-228.40656780237094,-116.17436970611975,28.21662196994611,120.77231726149714,152.81492097453483,162.40954664411234,171.46376090305958,175.9064267517603,167.2273603113993,144.818684637463,116.10616775933872,92.30287706121933,78.91126874011283,70.20397384835971,57.343922539828185,38.170098407127355,16.411585258710094,-6.647187488121322,-33.87041046535348,-64.23372536302516,-96.20344913508525,-130.5504440746318,-160.57887928464336,-180.65926229562155,-205.02512558629212,-247.99899238704438,-274.718286156814,-214.3724139994339,-66.88726953219768,71.56363631493925,137.83311724144033,157.6453963451815,168.78676482447142,176.0607915614425,172.99865121295196,159.8213132473668,138.9212262841528,113.15287384020127,89.81529364419711,75.49479618688851,66.42720520158707,55.28652728866866,39.70963281611338,19.46303985675789,-7.486649269121806,-40.082949392255095,-71.6066097943817,-98.68253013123385,-125.13302537821086,-149.03450074295432,-167.53409053887646,-195.47682494361277,-238.44581791573498,-243.0896564840271,-147.76879150552983,5.48589135050699,113.80687638939884,149.4208634553169,154.86765541295065,160.80553078942663,163.5885165906901,150.63829391390388,122.64291400322772,93.41619166741617,73.30019457203746,60.57072526574824,49.71736797592503,38.534686887656015,25.344953001536066,6.723296900037055,-19.013981404542175,-48.814925315646185,-80.43896997595822,-113.25718196794253,-140.35230993580487,-159.92230830284964,-187.93601206405862,-232.1223411377988,-249.2443800493468,-175.34229750004323,-29.268240918498893,92.15958463473665,144.99529615304778,161.65949986571775,173.72456571666595,183.04564125991774,180.5507985242361,158.73993272551618,122.96926378566852,92.49429962827273,76.43045327563755,66.50160799036571,55.17508662020997,39.955951401339455,18.906822172303503,-5.440803722515144,-29.935813782330158,-56.60659907265228,-90.16338751750226,-127.32912736125509,-156.7841933474151,-175.23444903376097,-197.28335092457982,-238.36738056212394,-272.97584796703813,-232.62398342012028,-97.69805944526615,49.12453458732286,130.4071508581352,156.40414412618023,167.82970217133789,178.9178799358251,183.66026582947998,175.67576389472043,154.24292970627164,126.40870305625891,102.05870335059276,85.10993599657114,73.34364604526472,61.743922073985985,48.468293721725075,33.32578984383969,11.3139720847713,-20.23052849990913,-56.10790528661164,-89.40675973567119,-119.04993322757925,-146.91533598766688,-171.4351780013739,-196.9159790792788,-233.50770009371834,-264.2785620854878,-229.9657931042281,-103.69929773067072,43.50886755265715,130.14813907152387,154.89399153866,157.82984048829098,161.29080015520736,162.14008529282938,147.71757122246444,117.29849708367085,86.59253236124711,68.30749244171626,60.021784995863015,53.670849640031115,43.006268884145314,23.93435560466066,-2.9323423477868786,-31.849033074821683,-60.23324582476162,-90.91684859351356,-120.13079412997286,-141.10567129429202,-161.1514177959415,-194.68374139220901,-228.18704696191517,-206.56703250151833,-97.39269200579778,39.2344983461051,124.3748819819382,153.2507551238522,160.51053966426062,166.21425071966456,70.0,107.0,62.0
-1.0607251682078194,110.7386883015259,151.51366300036295,161.74345078058036,168.2422644323978,169.20156098660985,156.058875944022,128.21679180497586,99.29792806018118,81.0524283020882,69.36821954110887,56.16717349704263,41.820875913788186,27.905429666880487,10.45815897480978,-11.988931757288185,-37.664502983221915,-68.01449542399901,-102.55040316734235,-133.09450487350216,-156.4108620429955,-183.45427363594712,-223.83147668318327,-251.24436217617588,-204.68512247153592,-73.2197351415515,62.305806664604184,134.76582741017532,156.30060265659714,164.9376341834984,173.69130783630024,174.94740648167786,161.96647798443058,136.68590610728523,108.27563979959565,87.4277564868313,76.35898701330653,67.17712068412506,52.3390773786834,31.97027250840387,9.997589074310218,-14.015396303874589,-42.470858533051064,-73.24539723340715,-105.97586345045407,-140.162519242012,-167.1911626680167,-186.20630514970836,-215.7940380421479,-260.55225087480426,-268.55740919478035,-177.48633553237454,-21.311382895197713,98.23398618868217,146.12316053664514,160.97814189344095,171.63679754552663,176.35663236462773,170.10534174802564,154.49442966315587,131.75872518648765,105.73385308751075,84.71247771670446,72.71041842622095,63.63033329699451,51.23356532276575,34.403120613156894,12.445044631222105,-16.55350116151845,-49.62508605943512,-79.77276581619056,-106.26089429771872,-132.62251752644022,-154.64770256493844,-173.67363801536965,-207.43133961257513,-247.4152596562725,-226.46116408566,-104.66149940840796,44.717968012812996,130.23055731022262,152.00389242019557,156.19791262217146,162.58423022640432,161.77952310097095,143.6164101059689,113.65049849944177,86.54317610148085,69.14096708161597,57.404641060212526,46.56006065164428,35.058551486343866,20.68095352346394,-0.04214566260385664,-27.395600807811004,-57.73853866967326,-89.97650948383325,-122.05180309497965,-146.37333124534598,-166.21383639890527,-199.78898170195865,-243.11320391600267,-238.75460825130878,-136.69264356133962,12.233714739999243,113.85723453267443,151.53236740771706,165.0949191218463,177.05954415039193,183.9623919248935,176.363831963059,149.0988537996476,112.80392232199932,86.53984424187978,73.42332614783695,63.49926638711929,51.30271964106683,34.457171718426835,12.012064022786754,-12.532702589681785,-37.181952095200856,-65.50252033199614,-100.98489045818505,-137.08487219001765,-162.92613052136636,-180.25300069383738,-207.19001282949338,-251.71125991657505,-271.86412143371746,-201.23620175515018,-51.642587677655456,80.42382065741852,141.59472870344962,159.95107218333064,171.1675034156272,181.3167660951899,182.80832303869715,170.71693001555658,146.37022597865325,118.70019549896358,96.4051112240803,81.39046400219969,70.16341409041311,58.03526192235948,44.419127240195806,27.93902252519677,3.0740159855731712,-30.504711976223497,-66.18780476392831,-98.22473412038954,-127.30745403592336,-154.3871149715873,-178.19066270285776,-206.19981511587457,-245.0699304244757,-263.8703575104874,-201.48855349111076,-58.63448431328723,76.41738208423612,141.9647476275696,156.42131540732996,158.53569679372282,162.36727912493237,159.96096011073837,140.0735672697318,107.6377487022824,79.87693160132574,65.26177895875045,58.29175971633228,51.273387670788686,38.44572052658782,16.782902853978253,-11.351160911121564,-39.993631603893746,-68.81635169653526,-99.92006844625811,-127.06660982352275,-146.2511306140738,-169.18474594269443,-206.21870911015952,-230.39205879913084,-183.13538166598934,-56.34535571474958,70.86090463568185,137.040746438484,156.22127049402758,162.01184653298262,167.95330717526676,170.07535058206517,158.20656999390394,131.60758950403732,103.56269997022872,83.92485684018273,68.52953160789168,52.418520258495576,34.75864406473696,16.44768804786193,-3.337806596522173,-28.619614814362993,-58.808177289948155,-88.37112838717782,-116.58950252156114,-147.0851099614769,-175.8945163368042,-200.00452733287952,-231.03676688385437,-263.9236390375236,-244.37190529123743,-132.72186761884234,15.135837942059746,114.0812217107691,153.18414643928588,170.3030625728264,183.32500860963768,186.55332963565712,176.40160996679023,154.34531159296563,127.43717068322694,105.52543774665354,90.52086736536917,79.29370173994202,68.05649107180021,51.067780964482466,26.935665426682224,0.19501836468172623,-27.229743331889573,-55.90654800633682,-84.7422086778111,-114.74927495026614,-146.84823169214306,-175.28011776038548,-198.11145656123068,-229.4326716071171,-263.817800983887,-239.10723534064985,-114.31763005638857,40.33495885557091,131.86322685240202,157.15597403767438,163.16972067629567,171.26459973093245,174.8369650679054,165.5017273901174,140.5134376308741,107.51972119541067,80.80532434757055,67.21356776241042,61.61783519925233,53.99503931411508,37.07485426719366,70.0,107.0,62.0
80.44843759132422,70.1617743797311,60.51422425812654,46.81009752909314,28.688477372178742,4.7986013310886495,-25.99779143566338,-58.87056713755541,-87.5872471162771,-113.9136983306758,-139.71891496147322,-159.841792595627,-181.20059147956363,-220.42434944349594,-251.14684187293014,-200.46106857839064,-59.1282183500541,77.83945212472601,141.03631689961458,153.3695780390267,157.91852681401636,163.7529789246945,158.39931786672693,135.53958240254013,104.9627654688786,80.56467671356961,65.44999649453446,54.28351703129371,43.35810384513303,31.354979042808992,15.463847260695497,-7.397147094715995,-35.99740343126439,-66.81944692302199,-99.56785818157567,-130.11696249536413,-151.87982061763933,-173.7861283529768,-212.89655968549593,-250.13988548386365,-219.28177461538453,-93.77083221472058,49.099965475674765,129.81977556624315,156.25312079018573,168.58077003990903,179.98939909838097,183.65491199290182,170.41335665259498,138.62402861787135,103.61526817015435,81.7822655559006,70.62457533245244,60.2928878033314,47.04160323072778,28.447671957712267,4.9563678001647045,-19.590218599115143,-44.72603680894593,-75.07932420301275,-111.89821823612452,-145.89072906683018,-168.22509504834787,-186.11443440494824,-218.9414443730546,-263.28469084039114,-262.57508846050825,-162.53708157375254,-7.455105286118834,105.16287408783181,149.2249531135819,163.14077155569666,174.49562484495604,182.9603832867621,180.78939352772306,164.66943229117032,138.22658816251374,111.49274058108594,91.39310591124743,78.000660542633,66.86726688367929,54.20761874845865,40.17753470459088,21.805091007743766,-5.9454163743596515,-40.94848180671899,-75.90740567390083,-106.79673257096364,-135.43454568193187,-161.50658092183627,-185.26675073788098,-216.66390753231096,-255.26206453484676,-256.22999004952806,-165.54606817198624,-14.486468485640552,102.88720771890519,149.4252399518954,157.12361805940392,159.53008820182475,162.9519566439117,156.1925697225696,131.2844818447926,98.44247227909425,74.36819575014286,62.85219901185269,56.54757841134351,48.373447091000656,33.11210065758847,9.054261103846223,-19.759747091530787,-48.125568094153046,-77.6720860193543,-108.58199076427724,-133.20566363790314,-151.69404324012905,-178.66788816995438,-216.97268743568495,-226.28762800348707,-152.3099512872071,-15.457464815540327,96.78069334066205,145.70197097105057,158.24433385750785,163.63451477790503,169.42188604844551,168.4188776272306,151.63546119671304,122.94430713677407,97.01380094976204,79.36847545755141,64.0244329915216,47.46670001498008,29.47845147050725,11.054517513980244,-9.953929066730536,-37.05894153708833,-67.61844402410104,-96.47307198964538,-125.14403314063776,-155.94602346807844,-183.0542756366135,-207.6732393414406,-241.8998082561727,-266.7275057391863,-221.01829511591342,-89.26500996872248,50.946990104365646,130.02988292703083,158.89501740766664,174.56506416370445,185.57913264558374,184.97957894848057,171.0949367302021,146.5711440348774,120.32216777535164,100.60221852637268,87.02680631980523,76.28221633450491,63.95899968432662,44.67640778365267,19.281346216264836,-7.615024168940039,-35.41552889623281,-64.2558346591731,-93.16291492798938,-123.93912829732889,-155.78426009467856,-182.0832447903951,-205.57899341223882,-240.8477645134453,-266.1974307864478,-212.33530951347853,-67.5423919712942,75.31244462923888,143.977421822173,159.13050485748337,165.3375050481927,173.22271288500994,173.71784985447593,159.7895036989679,131.17884406425566,98.60856689394222,75.56863579469109,65.2024901393002,60.053220732410615,50.20321545956772,30.333742340434718,3.094464608355375,-26.61825826916508,-58.19841790545362,-91.51380381468374,-121.74801956060786,-145.40044054190415,-167.48516444235727,-199.8609357700925,-237.47542878056575,-228.30124215113008,-126.75660434189159,17.54858871073352,114.31516255755255,147.10788530794616,154.65425023729668,161.7023300452233,164.6918296438326,152.3679929452283,125.59301733528335,96.78244916804375,75.63061038444005,62.14994576444903,51.230155723770416,37.54022769597983,19.42485416951737,-2.4120264168822683,-30.118869607026895,-64.87670397436055,-101.13987117300256,-131.9552762082976,-155.247300440979,-175.88031729794992,-207.49271327583423,-246.85903709570633,-238.91440415909807,-135.4019427193473,10.138885196782153,107.60014847105268,145.51906736159683,160.9289748043656,172.63778036602042,178.31018471590613,171.3724767740303,149.496751335622,118.23546732858468,90.41675623310083,74.08255125976942,65.35091630852686,54.41901285217317,36.43004265714453,14.869765921497036,-8.271384424511517,-35.89799813920283,-68.648029976127,-103.8470551792155,-136.79494890337298,-160.9191310340852,-178.49433216351395,-209.08754988953388,-254.70858412077487,-257.5588463207698,-159.44864860916297,70.0,107.0,62.0
-173.04351193190388,-193.35959328805166,-232.08235167401298,-271.15516813052847,-244.19689415772507,-118.79975322374119,32.55339283855574,123.70928154964366,154.48742794581315,166.32406037926845,177.61432991026422,183.67795258996227,177.56735663691347,157.70165031882928,130.08950374538756,104.88677870439984,86.9716988681543,74.79743086388429,63.401482416723205,50.29725599796736,35.598680836058996,14.826145673726536,-15.607566792907985,-51.36407565863405,-85.23347363398076,-115.2090459144628,-143.3567896278986,-168.3382239775196,-193.02065847576995,-228.08006820340836,-262.4638692334232,-240.2589746576844,-124.034919157642,26.336053340230528,122.92809652546627,153.69324819742826,157.58841927648825,160.7265690127832,162.66606131333785,150.76154719080773,121.78379033824262,90.08723852423182,69.98967116215974,60.856898286209635,54.64299727352006,44.85872048321817,27.00244068982466,0.9107835734292208,-28.06331564625873,-56.36572071997142,-86.72316742649525,-116.65741881825117,-138.70596842603356,-157.90864297975642,-189.42830632746032,-225.4806036786947,-214.65413425950453,-115.65483248206925,22.916625297816815,116.9197343830147,151.37466547338207,159.82949937155166,165.3863905904477,170.339857280474,165.34780771000268,143.97681178887416,114.5923405811692,91.25130175287019,74.9640917370179,59.403307815478804,42.37904347695625,24.190742833337772,5.46194856000903,-17.131846654719066,-45.810738248042064,-76.22492694080343,-104.54656986281735,-133.96232610953635,-164.44675264726806,-189.87665096895535,-216.36269763168255,-252.37348314700426,-263.31997265908814,-189.6947124346214,-45.20302219684939,80.9913044702277,141.63862394154606,163.76626754014308,178.53387178503235,186.79865656791085,182.28704543507632,164.8428105995858,138.65599021514558,113.82699430862684,96.2019338396085,83.77158172947685,73.16024120421027,59.22603627916493,37.742908344332115,11.545492651137197,-15.500381481855527,-43.70471142752766,-72.57863858934364,-101.75728566577506,-133.27815605699692,-164.19443505135405,-188.5077505328467,-214.28578645289306,-251.8895094692093,-261.54702156967124,-177.07633345640846,-21.14881764506104,103.34312790337395,151.50778841176253,160.65538867623633,167.76554107323923,174.52852672681215,171.36205032192186,152.7632841082083,121.49091227833529,90.57476347416703,71.4652314849819,63.638565708256266,58.06721661274268,45.512797603223746,22.961493040568758,-5.354431052002282,-35.490630391797026,-67.77555098985546,-100.83875072819598,-129.21913068203654,-151.478390856091,-175.31199881284766,-211.58683848510108,-242.75730973351966,-208.35532160876141,-84.945452195371,52.939447891996075,128.954843612333,150.16809492134254,156.48564146993942,163.56199439553285,162.98121417762505,145.67993236029375,116.87358781269437,89.72010361780374,71.12787746051637,58.998313420878056,47.72719268562018,32.71816119624221,13.52316475346648,-9.661727327121246,-39.55857709693731,-75.56230821878793,-110.80371803384892,-139.4067974349713,-161.00679223365353,-183.27015028791513,-219.5048697167477,-252.7763745220413,-218.64391736301576,-92.9749406318649,45.54366158475241,123.15470058173867,150.86722768188463,164.56721815035195,175.21619720285076,177.8179509300466,166.5221759882614,140.93369025774362,109.27217399063979,84.48065220025688,71.18913496396438,62.81588564640705,49.89636352267432,30.353802098648128,8.435599254764382,-15.671114884980463,-44.91826324522608,-78.72571256128138,-113.88246989975649,-144.8979954494416,-166.05515398235835,-185.030722715372,-222.1174648293276,-263.60717331586415,-239.94816340983277,-116.06910141668932,33.38894769569589,122.54116801190801,153.18368788783474,165.6694492187297,176.62604606035995,181.448392123211,171.24319857892576,144.49341828270872,114.01935288535998,93.85976505832122,82.80607596418315,70.66202823417886,55.29548073016968,40.40682027251171,21.50379690063644,-5.294724518205204,-35.212512025518365,-65.95862571252817,-98.30754214318893,-128.4610365042947,-151.2089784515231,-170.02198947988836,-201.90202934673306,-246.8652759361353,-251.73630031985172,-159.19172173423587,-7.57705183326836,103.05102139756694,143.01307126325497,152.69712075862094,160.26822164420702,161.4438190160473,147.27662048271176,119.77390541243761,90.01475460672292,69.67920368695805,59.59511056077995,51.04021435327042,38.14841081483567,23.149209844461335,8.026900596774954,-12.630452547648282,-43.834315864976695,-80.25165576058106,-112.80179315075,-137.57954816837398,-160.273000757426,-196.88557656993734,-236.48298598266675,-213.94773093120446,-95.13244460752003,45.47511770638283,124.28834864244129,146.90524362714982,155.22323181826926,163.70930796680986,167.29414091163332,157.5103080220005,129.4297886680923,95.38534253687173,73.02159916066248,60.736004751759694,70.0,107.0,62.0
167.1698691049315,170.4083770040711,160.79366625797607,135.59674833700504,106.86286735630532,86.1274225458083,70.57358257454105,54.65399682628025,37.1807737360317,18.899241378000646,-0.4610520642843332,-24.87459407119279,-54.70608358359618,-84.58851101692451,-112.73842727651814,-142.9412597221994,-172.41705577672704,-196.7202053679899,-226.18448578661074,-261.025977482413,-252.27791010266085,-151.81791298818857,-3.0558400928410605,104.97918446125415,150.06153604961753,168.28052443416672,181.98067782277957,186.8951339561501,178.5040421283614,157.79892451721506,130.89353128777117,107.99568655858845,92.23112070877514,80.68418375789793,69.7629088252599,53.80072850617356,30.409474529609593,3.7816204043056696,-23.49850197487867,-52.05219291035386,-80.89502279527204,-110.59004679182664,-142.60710719139766,-171.94118620646626,-194.972937964547,-224.37759773033906,-260.8992765102471,-248.3272231543043,-135.17085167162566,22.088770445373058,124.36883685564247,155.85547523896622,162.29666195445634,170.21075439524577,174.97187395648493,167.66999745193004,144.59388073960164,111.84543696252798,83.6187740777723,68.3609857547358,62.261449906374445,55.455496673864786,39.930874012542894,15.113624970393548,-13.915588602798483,-44.556970598542215,-77.45822427657392,-109.73995224665377,-136.11713432077843,-157.6382023133118,-184.35457511937565,-223.2807136095299,-242.32797953452106,-180.15033007238787,-41.938806227488875,82.4647522609607,138.83139633931373,152.20027710460178,158.5494475508724,164.77811853374817,159.7612456982068,137.972815589627,108.34686555380215,83.43702300892849,67.18364237834078,55.91357325052708,43.8772022395691,27.5408971226702,7.320757134603876,-17.497002129147948,-49.5615029400812,-86.17180509925163,-119.874892312124,-146.22911402918314,-166.74309509955236,-192.01829870446036,-231.7041070128561,-252.80675914411916,-189.84547382134002,-49.56118079635303,75.15347673037057,134.42518323888737,155.2690308135706,168.04578148739907,177.11947980560802,176.1295740980927,160.4199805525417,131.8182017913955,100.95109143662391,79.5840121461227,68.72822301547612,59.843279684132526,44.7665354046434,24.121022776365553,1.8456681473224703,-23.535901749901655,-54.33085332060068,-88.92913954243421,-123.59072134270727,-152.08522985905157,-170.87089057879024,-193.30570946428736,-236.0073197115988,-266.8522644819766,-213.04806027758738,-70.49482497495278,66.95431527843859,135.53836958279464,157.30606690177527,168.9827027325845,179.0591356479312,180.35752756071054,164.89809437451788,135.27062024505443,106.854903929225,90.17356919222813,79.75484751141333,66.34425226927489,50.95200234789849,35.71498042299914,14.453544694470406,-13.856939691613414,-43.94501803659863,-75.20482190505629,-107.51807634190604,-135.91489308228273,-156.47501945858906,-177.1042036729147,-214.85755312444303,-255.7984194417787,-235.67180555731176,-116.93043546872984,31.968378738585525,120.61790309390291,146.9346907337709,154.8722633020798,161.81622204083425,159.05805024013657,140.33717340118505,110.79290844413768,82.86438290328473,66.01466456467085,57.38419247368777,47.78292355035619,33.832899999500846,18.896454772291484,2.9862411803345643,-20.59184235467407,-54.268194982797866,-90.35082794608583,-120.7527873144958,-143.72619734075096,-168.86085454675708,-210.11888622945978,-239.65251942237614,-188.10067885261896,-51.77027421639912,76.03858522425675,134.57925169004687,149.48318728994713,157.74925682035277,165.5837671030685,166.25275047906862,151.1174673012118,119.2468272651216,87.35078206822853,68.9987387063765,57.242538056055785,42.697668973434446,27.329022677903726,11.926266560354206,-9.890542455782734,-40.15533157477988,-73.85254599896939,-105.99077866368671,-133.10789955835443,-155.38672096975304,-179.8200738936549,-219.08366068100977,-262.15865754100537,-248.3328655790109,-133.7578444910659,19.32104914187356,117.85453087116856,154.65011161322082,170.2111838558455,182.1536893804387,186.4382385241062,177.52069727276648,154.7485496157308,125.79234567805787,101.3283445173644,84.50658226973393,71.34266616953008,57.86368363461069,40.62740887183358,16.877920945924078,-11.5661922037311,-42.171830340137255,-73.33534849803601,-103.26482755085154,-133.64238982899687,-162.31623657455856,-185.4990093767255,-214.9020617941214,-257.1444836567471,-264.2567388665791,-172.31474023059246,-14.800111036898858,103.40865834697209,146.53051529977378,156.5794130140712,167.39156237488055,175.05714964072777,166.50351016762656,141.34968005294758,110.12990300472282,83.5573955007838,64.89626826447301,52.78228112297992,43.52608925328186,30.701065518917435,9.517087560741915,-17.398974124245857,-46.010382559997254,-77.07259881224326,-108.63615278091297,-133.8124569488345,-154.90628915037118,-187.40497352821114,70.0,107.0,62.0
33.5290975676331,6.938850119042102,-22.58122021980582,-53.84368509141828,-87.11481358176182,-118.09747816568377,-142.54778688156227,-164.21338407343842,-194.70043491288942,-233.62046464370155,-234.6159946104116,-144.87073726628586,-0.42943935361542507,105.6827726168467,145.10449027217717,153.87733990247483,160.72703329605685,165.00394502276546,155.02915064143187,129.58654230528845,100.28602823784162,77.9263782668567,63.66672720002529,52.7511303346579,39.63291315280349,22.05168497650513,0.7583853100370235,-25.982137094869675,-59.98256004245341,-96.5106480281709,-128.29711453685633,-152.5024528869195,-172.8332711476569,-202.2847865656824,-242.68996127808828,-245.2655684466684,-153.84491171251076,-7.86720986838314,98.69621315056493,142.54166856532333,159.19972696472504,171.2743142255268,178.16377604536,173.17276932947289,153.17441001492142,122.49893856820317,93.50937624704524,75.63130958539132,66.43032062097917,56.28179091435434,39.146254737072795,17.804535766014958,-4.999999389087108,-31.887585450928015,-64.0689683415729,-99.15651607153174,-132.78377100827268,-158.3301576672573,-175.9147984431441,-203.63758784756027,-249.29915986785767,-262.5150149473432,-177.90347005328513,-25.65157902710936,94.08034644351382,144.59249665062336,160.82270519525304,172.24951412950094,180.76538685495333,177.79613307728096,157.26159746159692,126.1891419338705,100.79725660172153,87.0384117440787,76.35960073486083,61.85081284275807,46.71067803828683,30.46509665428159,6.760370727709132,-22.51562470924851,-52.77292745773417,-84.58278384199686,-116.39815625140797,-142.63507460163748,-161.64043001754095,-185.82324090568986,-228.50907859316686,-259.4935774519269,-210.4924992565951,-71.98193767266717,65.72275683312928,132.6809330291231,149.57776417400564,157.15134941155375,162.5101671416808,155.26037796016388,132.44233007359452,101.96280404015404,76.73678543492294,63.08150159119855,55.04306621182438,44.10741906285913,29.463214856200246,14.622619393575157,-2.7266289875355767,-29.48216364130423,-64.89545266447392,-99.935483687594,-128.01288162672572,-149.96587819095618,-179.09747618229568,-222.7805067756676,-235.56212416137797,-154.3387228944957,-9.446967448502342,100.12539565128844,141.21613874057948,151.7684689229051,160.29571582302913,166.8743614119964,163.85414362710145,143.17216588127224,109.08586187639393,80.62350990538262,65.53360838639715,53.4097779406718,38.137252073645854,23.098876064376263,6.558348748103619,-17.92744536410884,-49.78818587336198,-83.49000983480262,-114.42346893389693,-139.901621438245,-161.6711433539759,-189.26410142694724,-232.9831289377775,-267.3541749272754,-225.0000996442285,-88.48422442609785,55.59127346221624,133.07263632249067,159.88363103606133,174.0376637500492,184.48261161712296,185.3735801780569,172.19191398085027,146.496684020142,117.92466290622819,95.79350855409459,80.54216302882173,67.6150078969473,53.4446628145355,34.44820149002982,8.978131416655945,-20.230232189326145,-51.24096140805979,-82.08456537964771,-111.9310313023917,-142.39311160643544,-169.4352148255311,-192.47835893372098,-226.64315489049187,-266.34519969037177,-248.92863927498294,-128.9587083979951,27.11724369667506,122.44822073956027,150.56830165246373,159.23998447583887,170.63473787768802,174.5600903819306,160.5988615852549,132.38363171936408,101.67663526196998,77.37734042517,60.829791754000816,50.05756707878959,40.50006144756892,25.470100395899795,2.069312394845736,-25.520757938377745,-54.68314653899255,-86.42091225253999,-116.79870586874293,-139.74995499827017,-162.50364611600176,-199.6976655822138,-234.92284966669544,-207.80706112122033,-92.40189289845124,42.47501987741579,123.79493605550957,152.88866016564242,162.91664904212413,169.57868537609113,170.25261153007057,157.33562398692456,130.18097972865976,99.01033820374657,74.04642016239279,58.15713164469798,46.58145197220004,31.830773590129393,11.772549688976202,-12.159952440938838,-38.85576087899998,-67.53997206615041,-98.36798395121103,-128.5893674964099,-152.81510009306203,-174.41197970213435,-209.15988373867776,-254.99326127382267,-257.6239553175221,-161.22921752350305,-8.13029803622561,102.32432725246615,143.54950943103563,156.5744950634835,169.5812521616996,179.57722075940586,176.34007246895865,155.66714276054913,122.86797091899602,92.02395965167446,74.19867032611177,65.68812541279631,55.532148611037606,40.157276096032135,19.26485790954184,-8.471026435867284,-40.81853607244648,-73.07808070675487,-102.08386020177149,-126.5793135969518,-146.95610791252273,-170.65350473922376,-212.4132143755402,-262.324336504049,-258.1058741656571,-149.5506173202417,5.820671320098737,109.0001482505345,146.77482893119222,164.4744571425227,182.32029870859026,188.97460992482277,175.6571462335902,149.25715988679684,70.0,107.0,62.0
