-4.372911224013082,-472.92445945461077,-616.9137154005707,-523.4037425508475,-428.9061611234214,-393.142757158656,-363.25118039987854,-318.8203711958543,-276.1370122720678,-241.58118914381657,-210.6910552132953,-182.87140834118503,-156.18105081097292,-127.03036576238935,-97.55934744241966,-72.87598021013741,-53.924089084944384,-38.95557922354845,-26.976080768155658,-16.653247074236653,-6.408726610186333,4.232044372009017,14.500445365830618,21.103991486858256,21.28960081867414,16.452790020644002,10.983769103536147,8.123886214988659,11.194176554968935,25.057789531121802,50.108733948363664,77.14943541463258,95.97675677967315,105.66208090949559,111.03462440410937,116.17185731995839,120.34018319203814,120.58902604086028,116.47128721100353,109.21821822690937,98.80170587698098,87.9660745524181,79.99966030998517,72.59910826203073,62.38647467173384,50.452329765332166,38.562185322876175,26.309844073169984,13.678545930151799,2.511787265336997,-7.499431651408561,-19.93710369790218,-34.303595531267064,-45.03681657394817,-52.63113382810283,-63.05435746240967,-78.2780342208866,-91.95029518603857,-92.58180068814545,-75.34613467857935,-51.03335278379053,-31.92062036534808,-17.489418802333425,-4.8827975203203735,3.577415883163327,7.427886270544046,10.283046598035249,12.422818984738516,12.61405720700342,12.461220294973744,11.840702593503838,9.551945982786226,7.67021627483837,8.355903955712876,8.32590982571091,4.444824114891624,0.7779488659316078,0.1782464414048592,-2.073197980312595,-9.925121905846773,-21.000877715807086,-29.756427654194802,-33.503311186551414,-35.65078223714775,-41.97754714058258,-52.09744817379106,-60.439213453569764,-63.23692340713859,-56.276350461759634,-36.46916734299618,-9.404667478424036,14.294297488178614,28.442725614456613,35.405584977538766,40.886777984348335,46.29733793959548,50.990282265111574,54.25161138252601,53.595315121103624,49.44652872382355,46.34206409919716,44.0678778123588,39.37776542352051,32.822845312781986,27.01474956066211,22.24264285722938,16.02479720525344,6.536951175051377,-4.0761778705587925,-13.041571336278114,-21.085259790612447,-28.248055166838515,-34.352771626796425,-41.60850107389181,-51.13583452360758,-60.30219921316225,-62.526869554642865,-51.1341933306909,-27.333307027690296,-1.6843289147858682,14.65259352617737,22.061418300708457,27.776447263049256,34.16370156993573,38.57461990835064,37.755015835786445,30.903690469061928,22.78733986133858,20.017370056498947,22.145610822509276,22.821774461067342,19.379331137629396,14.459746184096492,9.633098633407629,3.223902211395289,-4.570384264996624,-11.84785625704501,-19.175523877293884,-29.094894580243295,-38.875769195563954,-42.03267361579646,-43.80437332542234,-54.94522573702962,-69.26624316004127,-67.8920925408376,-46.49243816332832,-18.933724358974363,2.6704751633242214,17.091487183691587,27.14399405572151,34.870444627095075,40.710248251310865,45.468345556923076,49.0012089699443,48.15567005571424,43.02024917953874,37.793763431994826,34.13739367751712,30.693312201596566,26.28307594353419,21.84475528854926,18.290470618397578,13.692841736469507,6.205064272990947,-3.160843554436125,-13.369377946599428,-23.3169750999051,-31.065956137003077,-38.111085282831034,-46.550406093840145,-56.85700311442013,-69.24605634467062,-78.9381941417671,-76.20427227435196,-57.553027642861764,-30.57047264796346,-5.3385116001014365,12.252581171228599,23.954574017057535,33.1677554437212,41.10407353830598,48.01980357909917,50.85961473408488,48.14861981269419,43.265754114611205,40.08154720601346,39.808721388428445,39.59055210514431,36.67805370341308,31.246576355470772,24.9343455991709,20.288795172999798,16.177973074467257,10.49864162363512,3.2853332556164228,-6.4318318392228395,-17.518791707588463,-26.673115842431617,-34.766336082910065,-45.21785023393439,-59.31993941842131,-73.48774057901072,-81.61418044984187,-77.53700197691002,-57.799506656000496,-28.79418345343851,-3.9889633036561527,9.574850523898306,16.467026340419064,25.533624745810805,37.90266668161585,46.06581536182751,44.16117108405628,37.46665424805537,34.58762679057557,34.71970732050061,33.29934083771197,30.25813757206389,26.154358354696036,20.656795520936708,14.04379924544811,6.584822968779414,0.0392706027705394,-4.639352906307363,-12.587221179980817,-24.81929267897459,-34.005301040297795,-39.53433486826245,-50.04205297767384,-65.13710601883251,-69.70188586699012,-53.373085245859734,-24.54915948561421,1.0842307709238703,15.978190653402876,24.174794598005285,30.788770188393755,35.29263896905949,37.75194323910432,38.593514033259204,37.26324719639272,34.782993780049445,31.980263479186856,30.101601586315013,29.59501019741519,27.56475554678529,21.9253436872632,14.426809152377942,7.223886110062439,-0.8841897609570812,59.0,94.0,61.0
-13.624114584938,-1.8773782437517954,5.0217471963283655,8.234280013666607,11.077647741893834,12.638763955139481,12.53876435451648,12.4149445705661,11.331795201666901,8.803600542724512,7.6390830405455965,8.668178228168612,7.542827872269972,3.0933278821445924,0.39106958107965456,-0.020757109414151244,-3.7577482407455527,-13.028672265360479,-23.990145217881835,-31.32020962063175,-34.003695240162784,-36.89236816599315,-44.74375168358906,-54.90387409062452,-61.95603194225574,-62.46273796225323,-51.81925314296292,-28.929677217551788,-1.7898838522754446,19.416202489161197,30.91375528860913,36.97758195710832,42.49739238146033,47.73509431592322,52.16262057121817,54.569903267870544,52.56177402010927,48.30741531595331,45.77132316505423,43.023873860216554,37.55648076939948,30.982606004655008,25.611866232338755,20.721800912013443,13.6122232457382,3.4040542825908213,-6.850379313878404,-15.409448572925598,-23.293252104983267,-30.057437357743897,-36.217429661213366,-44.171409671032926,-54.03874006715563,-62.02529604414388,-60.778793515510195,-45.21165945761879,-19.50128376119667,4.24197263055303,17.388831951408243,23.64146661570217,29.61886553408005,35.802021533091676,38.986114255467896,36.301729869847605,28.349364140288284,21.270411189167252,20.38016721367647,22.746097585247934,22.185406603138553,17.96509406021814,13.09912287929165,8.013663188859343,1.013603134780012,-6.762979786164531,-13.852979922488577,-21.71186194317873,-32.291197898681915,-40.54079090667356,-42.10886798475331,-45.87885121670683,-59.58724321893285,-71.13281683514617,-63.350996035646936,-38.42416453220984,-11.851941345613636,7.455698235209208,20.32759058606766,29.56909739650925,36.74586735604195,42.136960602982285,46.728018881460265,49.32672283060856,46.9464822883927,41.35817151876457,36.60903500571189,33.2007586301482,29.51927629309583,24.922715001789236,20.76099149510618,17.1967077525139,11.830023949029574,3.6108039533803535,-6.031553579794904,-16.382445667502534,-25.791053159926598,-33.04020210922086,-40.37820157896134,-49.30444941681589,-60.28627401241268,-72.72870079070995,-79.80829526730648,-72.27530300592137,-50.13401338252869,-22.717605554131453,0.5902070108285092,16.033183960396943,26.807605943571033,35.53494220648133,43.288330690092025,49.42150082311733,50.56580527829767,46.755695961224376,42.05396250530676,39.75350755916465,39.92840090143785,39.050179237865706,35.330470811227634,29.38525121710241,23.37455601337603,19.19018180834884,14.707074779241028,8.589875567450626,0.7766551719509001,-9.664896295153738,-20.42374902991159,-28.97531674331116,-37.40540428397481,-48.988101009830515,-63.66108348500416,-76.73384755692562,-81.94784651174109,-73.39847357699104,-49.7952119996953,-20.66559995341503,1.0857692289778151,11.823582491519112,18.599840157557935,28.9953959072055,41.10325219823446,46.5448012955252,42.24313293219127,36.074245743761374,34.56663328378121,34.5550646791204,32.52469184552701,29.204033218080983,24.703050404547113,18.848624179157913,11.94998676515007,4.462908464926824,-1.365668312291894,-6.346688195486714,-15.935834901343737,-28.08520123064369,-35.63984194743549,-41.749304734426374,-54.413005287161695,-68.3131256025458,-67.0908674083909,-45.606962230017096,-16.24249701942141,6.48819243553973,18.698580477732534,26.204576089057053,32.35852062778044,36.158936156169446,38.1964126217821,38.41577667644626,36.60869785684848,33.97805734692816,31.26467064573164,29.89224330223589,29.324236071152836,26.293376396941834,19.8116315668919,12.303608650670883,5.080055311958685,-3.6283419639800734,-13.709255568254829,-22.934234370768216,-31.507753478440474,-40.57412984459081,-49.87240688792723,-58.7734486114761,-66.86095498882857,-71.09446771254892,-63.95930383601677,-42.35427183441875,-16.195766881975082,2.90290935315312,15.178923698917599,26.094202120828058,36.8575876649663,44.92247974965548,49.2291874413155,49.734390286690065,47.102583786060876,45.08079224075969,45.10249495457737,41.77943724562205,33.217963675719226,26.17650999511798,23.75788952515011,20.73879562871561,13.272311258477437,3.8514413297333263,-3.9995445076880083,-11.123968816683304,-19.83358303045344,-29.78706202884815,-40.092865099882005,-49.03497489995933,-56.698605649957855,-66.62083156495338,-76.75787689198366,-75.90456660934497,-56.777976032299534,-27.507490244114027,-2.5106621216195815,13.199779083457425,22.308148813017386,27.23299398462749,30.26187281201437,34.718269108786316,40.610215735976375,43.32246081173418,40.92184804374821,37.41359879077768,36.28354223233082,34.50302764915402,29.82226767172928,24.726751101494877,20.637845192923276,15.452007915605481,8.792922066413361,2.4129586108702648,-4.652067010621933,-13.517669836030763,-23.097007726517287,-32.45494484097647,59.0,94.0,61.0
38.88889182319609,34.3620129381313,25.870175294259923,20.33892363135629,21.03887358987922,23.05404501430994,21.21687194933169,16.519852624752318,11.741406028747749,6.203835142995971,-1.2613995774829845,-8.876948648148616,-15.90763897952269,-24.54028426780607,-35.29780480126547,-41.52967316634328,-42.36875087984806,-48.95081033708035,-64.09157344284301,-71.2253135742623,-57.28061821943343,-30.281736024915805,-5.449646374708941,11.700307333829114,23.26782641531568,31.83643146926825,38.45762473646988,43.514636214291734,47.8434639343808,49.1929161907051,45.451381625500126,39.7996767218703,35.548374235862305,32.234764380292916,28.250265915327848,23.6079101335456,19.75086949219712,15.940225335521927,9.705813782051223,0.9123843865749328,-8.973242029296529,-19.318013552793058,-28.05068735718106,-35.03394929384293,-42.78579155664905,-52.227083301522626,-63.888663440817375,-75.78987394162354,-79.38504381389326,-67.05600147883649,-42.284224593882946,-15.240439556261075,5.801106809795484,19.441381468840383,29.4985198951433,37.82794975626747,45.36653266126496,50.37680958834854,49.82679343265859,45.29900983917531,41.05963389612837,39.66783316446408,39.93813692641473,38.2583391584439,33.78778447601336,27.51242267155962,22.009038186524233,18.052241817277604,13.088005414712804,6.556804212659382,-1.9833564613456671,-12.928506505776564,-23.103058735439436,-31.26182517351862,-40.33061034972096,-53.051190717980205,-67.87644408572386,-79.32284805398173,-81.11013876661866,-67.91655699921266,-41.3028244365374,-13.224971269362896,5.162586635634098,13.736888174349914,21.11042922896877,32.648670268483315,43.709889029139944,46.11835119975697,40.18305333689241,35.154790844363305,34.664869928043956,34.18180884022667,31.657049497275455,28.051047175638885,23.134483616354714,16.956486221474268,9.787414091526283,2.4979551947568077,-2.6472803338592743,-8.505776260762806,-19.549253795308903,-30.874530653305765,-37.10942755724456,-44.61740059735037,-58.98339128143359,-70.13355614844583,-62.654127879248,-37.17598017117958,-8.567847511552031,10.936201453150945,21.05647594949794,28.159512674755693,33.70681162130989,36.888910791932965,38.492180543645176,38.051760737602244,35.89717618210669,33.15371734483983,30.67606372106292,29.77557205111787,28.827911573199128,24.70603888895286,17.621091726303312,10.234445076874831,2.793232773075404,-6.507655936230632,-16.51328459528898,-25.410565037126606,-34.060796357380276,-43.27453294767286,-52.49603780569393,-61.239142459778364,-68.75257263933631,-70.54918989946529,-58.99922548113344,-34.60275310358576,-9.722549248046374,6.8893118913609905,18.304698360778495,29.309077020858986,39.56823293234391,46.54346917005321,49.78070161097544,49.18360306313639,46.26279706438164,45.01977217443662,44.76954947955437,39.63382739117972,30.704963033238055,25.13152740849102,23.239062705748925,19.02754291554923,10.546154437820809,1.3638274203058665,-5.994479876131654,-13.450219554281082,-22.626119386889712,-32.77868352661154,-42.90129327610618,-51.24456047921777,-59.218068144398146,-69.91179790851677,-78.19167478174012,-72.20115264787044,-48.669429221920744,-19.38475623003055,2.918593480167166,16.366165343999413,24.088588577326092,28.155857967077253,31.28940706239592,36.4323394685556,41.92603328358533,43.06926394970002,39.76364028602046,36.87273835049353,36.04023043272083,33.39473655331792,28.251656286019173,23.496077917237482,19.35236748483046,13.589985820967373,6.898204385523619,0.5405473526856991,-7.054092703007083,-16.270038936630076,-25.84499131068399,-35.08143085895541,-44.394179277734004,-55.26687582640393,-66.14723190365714,-67.40165373949426,-50.980557204895376,-25.792909670138204,-4.663022502744808,9.802760223449894,19.92411692127172,27.06763933293073,32.218524969367024,35.933566544520204,36.907726965154225,34.53325503584041,30.05911103820488,27.329675738328994,28.10637405570342,28.188618591837763,24.990459498693873,20.087732001502363,14.013610294059454,6.605234803832125,-0.42629541476004007,-6.602468564637344,-13.057988956881262,-20.527853355555337,-29.574078261244676,-39.23605860047729,-48.150738359790594,-57.11782439569998,-64.7819391765459,-63.86097051741277,-48.118225996976754,-22.67074545577954,0.9924988242094855,16.121979521301018,24.935220472420003,31.937940687128123,37.843461690372706,40.77974561251078,41.11845364537613,39.52208080201228,35.83552204709264,32.812053965922026,32.47809730937846,32.31166678889101,28.892926377909184,23.238960788936904,18.160422422214307,12.089083502707366,4.030737646713139,-2.63785704101132,-7.164303608914869,-13.548855038531988,-22.201721094038515,-30.323472447092954,-38.76241900881242,-48.38243727229427,-57.71969856148891,-65.85394562343893,-68.7776058135727,-58.50290228288003,59.0,94.0,61.0
39.754546792395644,37.2283994677252,32.078497188955886,25.715426989870515,20.80685026265843,16.8032225308737,11.341653478882066,4.363392307250426,-4.9827617947520055,-16.10792898537227,-25.58185209720844,-33.6252581708582,-43.593935987985596,-57.31710147792085,-71.81124966571193,-81.10549994715701,-78.97873366177629,-61.22790210486731,-32.69762155375143,-6.6747268739376695,8.3529997725226,15.577242545114508,24.045470266207467,36.29131572055677,45.528966700157696,44.91731821029216,38.25241117236373,34.68182131399699,34.73208166916972,33.61493431371885,30.71620710449287,26.78159841695027,21.46069179473794,14.981986163848973,7.591561629037661,0.7585274384158626,-3.96651919685854,-11.183273950126994,-23.195482674002875,-33.13036147951163,-38.69113148067701,-48.183883026794476,-63.33538152010734,-70.26567770878012,-56.610911033819036,-28.51086711678432,-1.7411463247807832,14.546926511877407,23.215758538192325,29.996869381651635,34.83746984827295,37.50516805582622,38.6074392081196,37.53811913756394,35.14323094586408,32.3398789255099,30.24544994275711,29.668366978713866,28.038520428318982,22.851326242743074,15.425822903756389,8.181617363269782,0.32122361120768333,-9.451006508030824,-19.198820094984868,-27.869958743240314,-36.67281756167449,-45.97296104809016,-55.07831705122635,-63.627381568605,-70.20158890695657,-68.83103316391383,-52.86629712536051,-26.842951784016574,-4.039125444951991,10.439845207210807,21.43765438510032,32.47871394792484,41.979971307365226,47.85730645000921,50.002815525056285,48.410511288227795,45.59981128992299,45.09318444918286,43.96629903872836,37.11949167430225,28.53204590636855,24.44616348278075,22.48799057825187,16.917597095425037,7.771471145546533,-0.9329143208768794,-8.003869155759912,-15.941500800800657,-25.493422234346923,-35.78298097522337,-45.53426202811721,-53.400562712638475,-62.03056244835625,-73.05986310792672,-78.37094101654327,-66.91266694527893,-40.078006190201236,-11.936134614601935,7.579788514357281,19.071254929390534,25.555641131081213,28.993273528084234,32.52139936843439,38.20455690927822,42.838623404003705,42.40431727079801,38.66520058500878,36.55586651525479,35.61152940190799,32.04883599912181,26.737576858770886,22.34028969765955,17.9013921836849,11.645452615357742,5.061586135143736,-1.4504839603565851,-9.603953670889783,-19.045602624890932,-28.55947673179797,-37.70157620729756,-47.33235132207242,-58.666963043217365,-68.08236650403617,-64.40863755457187,-43.8943267611263,-18.965701423138576,0.1142452752916612,13.079585829440706,22.264637519100965,28.70135883873899,33.475571049532704,36.55720007252364,36.55076009014791,33.33341508679348,28.895047158744575,27.301422012697266,28.426923433194325,27.562500058228046,23.679456107882167,18.480392231059145,11.96595219979722,4.45363440180801,-2.2485625535717566,-8.401387622436365,-15.079690816437358,-22.97753843738979,-32.396762341883104,-41.8796319928799,-50.702112696965536,-59.675213490071506,-65.82065763071458,-60.84408521440325,-41.2719621408797,-15.181583211481302,6.2850952507564655,19.083892898325857,27.019225200166602,33.83997658004314,39.042302040736246,41.0723416684157,40.88770915831522,38.610637463953786,34.728766079237744,32.468541517573705,32.60828112185496,31.715084036985353,27.32796471765636,21.688171975705366,16.650361193782295,9.85970574009863,1.806326967219917,-4.024674188037271,-8.663219463967621,-15.963262194797393,-24.643694935576566,-32.62904871516274,-41.47293159027293,-51.16180691486878,-60.25153102543359,-67.58235471568109,-67.42922055586426,-52.727189861561975,-27.51975763141903,-4.331945332396527,9.866818513513895,17.853867827144928,24.895647702146757,32.6568453169202,37.98541094387905,39.09982573786488,38.96989965984543,38.616236827672886,36.562610334048536,34.82727775748019,34.840447456656285,31.4926792800958,23.608614745879695,17.6068349677547,14.579714081790645,9.986652187971163,3.764609664924941,-0.9971707142604965,-5.037967823325313,-11.400494270456917,-20.52927794066151,-30.046473194383054,-37.804228834445375,-45.20746105962918,-55.16074920059572,-65.20628587070141,-66.77400488916359,-53.89936339436481,-31.25200251935226,-9.652951202855915,5.182519742277043,14.748711465052105,22.08236881242515,29.017791320374858,35.61459011979714,39.27902114726405,37.0017694922166,31.682398268131493,29.705205335174487,30.256173129901107,28.345216096258127,25.64246799684063,25.820934041568176,23.780006609989744,15.174776884030432,5.422717161381733,-0.6599233542596626,-5.155367666512316,-11.181822856948827,-18.312736152144954,-25.473445443016082,-35.06319021597899,-47.204669867539494,-58.11105139511859,-62.06318118797256,-52.058305552835925,-28.810276128780544,-2.699656863537527,15.793999464892714,24.10957370692835,59.0,94.0,61.0
-2.342811292603303,-12.381231809694413,-21.775110443651897,-30.34979089810005,-39.33487023265629,-48.64958153564091,-57.61798720027429,-65.88654273400654,-71.00425208114774,-65.80700469386642,-45.81856660187786,-19.423911428393755,0.8720669690441134,13.71856355131718,24.615176866036172,35.521203946037616,44.06872806405103,48.86743311237796,49.89270407096962,47.51916207457653,45.18427721748798,45.141489548559605,42.60045015993694,34.443565125728284,26.809124122223515,23.96328956347784,21.385078026108186,14.47923057071683,5.057936368810167,-3.0603076541615835,-10.106899842626612,-18.57783283502208,-28.42046704138759,-38.75236884548475,-47.971908877673975,-55.620207677207645,-65.12471577772526,-75.75852918826592,-77.05584056391405,-60.23818047438745,-31.418583393729456,-5.291050927392193,11.563931107618334,21.372022040479344,26.754320809714937,29.84108863284768,33.977834026746834,39.89753591547068,43.28193847310475,41.43396626566078,37.75126461685637,36.36500048815127,34.91972167858917,30.54395575749472,25.332343009190748,21.18923585525663,16.26483698731531,9.685862325378473,3.2526480756535503,-3.6015649094013784,-12.264742628776977,-21.82170522945112,-31.234549239617778,-40.355302798287326,-50.441738355411744,-61.97906340935331,-68.87370540738097,-59.867302575091784,-36.47442574048854,-12.704192469409966,4.3699723970640125,16.055875631305593,24.369957594108715,30.204439281710908,34.60515604007697,36.90993197527026,35.91572801054481,32.00714402003573,28.00267792792777,27.542056934143318,28.543623973138548,26.664359559927384,22.27746914343059,16.762324644722078,9.814893377671106,2.393281794142199,-4.022222336094923,-10.247852677956033,-17.20280140147026,-25.57100074860059,-35.21905712378954,-44.4499948578854,-53.293145808349365,-62.045900574058386,-65.89643765137005,-56.51648279972405,-33.86322104624399,-8.130874366573444,10.792221803902864,21.64645943814709,29.044530635384763,35.61514333747875,39.948299362856375,41.1941941189124,40.482196153642164,37.53518651887895,33.779929024985464,32.35899223827377,32.64487700749792,30.787310675388003,25.658958695146033,20.232723925605544,14.9639108399909,7.497753229415031,-0.19361520976855812,-5.283318442467872,-10.435833670438889,-18.496655942206733,-26.99037409280236,-35.02625305016544,-44.26511275605243,-53.878810076415924,-62.673754157816795,-68.70975757287177,-64.7749058309006,-46.009398120504216,-20.09654322471497,0.7118344399138572,12.55444283631538,19.812888778929903,27.134350521108807,34.62944475791664,38.66089409461558,39.04659784700352,38.970626636640816,38.195881406889924,35.85910876957792,34.77971887429726,34.48065161200853,29.439605769599872,21.44184696740677,16.617017014553525,13.553645866760505,8.20225331194117,2.171075790290989,-2.0935852459824194,-6.5464004827465265,-13.826010832243625,-23.371554724436002,-32.490522282010176,-39.820518258312546,-47.779692765404114,-58.36436047905336,-66.94126565604105,-64.55621404216627,-47.889829262447904,-24.48603413126501,-4.642231046537116,8.335756212382247,16.993008160213495,24.079739638638394,31.022725576382832,37.14666024057723,39.26309006560717,35.45791942549903,30.613631872218896,29.859148131426785,30.05796858690271,27.380999373043828,25.452737065821605,25.825639095179667,21.87342843809921,12.131416525020722,3.2760840921626104,-1.938034033337454,-6.684798377464691,-13.224077352594513,-20.32757128643264,-27.874231162781467,-38.44756480760043,-50.678171330031795,-60.306592307997796,-60.80292806778825,-46.36486634540799,-21.00413684621382,3.727278965312687,19.097379121014097,25.366115849723712,29.348066426932313,33.84329520211022,35.65550503088558,33.762679977566506,30.832228566625403,28.644542699779464,27.50276961415014,25.856887768161876,21.44531691019675,14.871759156799307,9.230298768891148,4.890378071429495,0.04153228149718043,-5.534873746112874,-11.196296756005486,-17.189707571287833,-23.747570542823276,-30.562372794543492,-37.65121703447553,-45.270002552672025,-53.49871162027785,-61.83526792882638,-64.3723261419861,-52.3568507758836,-26.148496057227966,2.459760917096358,21.0966215556338,29.1347944350999,34.47585888652183,39.7660865030212,42.775983902505466,43.77371298041703,43.79782032341462,42.37886347022813,39.34888512061933,35.95123624863821,32.06156230392089,26.799421642688795,21.05965020116459,15.616639862627107,10.462893390908961,5.792241426944285,0.46460738703855037,-6.548182887995158,-14.898619374494961,-23.755345577995573,-32.02466632179847,-40.65669597756392,-50.29103329510393,-58.22948448823679,-65.33324946713518,-70.61723576009813,-63.53417006711744,-40.76128366801987,-13.913838401747022,6.873831122082264,20.050221573834133,27.89073799424063,34.223444862241806,40.23979783983028,43.196835957536514,41.48663151698356,59.0,94.0,61.0
-33.873174161861016,-43.09151503069413,-53.715056040825615,-64.96493317782615,-68.2322793975146,-54.01932995987111,-29.096699740201416,-7.059403824852131,8.178029367877421,18.762289417214507,26.260317825049036,31.604569226679867,35.563104792238526,36.97548203406712,35.022789643085076,30.65640399980258,27.457343839615817,27.92402019951119,28.373515294510646,25.55536478140321,20.797370293200082,14.913204497708486,7.61642838625544,0.44028182575743235,-5.784729113683537,-12.15470621704284,-19.447277594224815,-28.289310485416785,-37.98744929717371,-46.98342236736948,-55.91269853022017,-64.04665680620057,-64.80075232061783,-51.00330888276799,-26.202567654255507,-1.7149641741603823,14.583765681413844,23.938597105593466,31.034998222054686,37.196571072323906,40.57472223112275,41.17402931014779,39.87421200540002,36.3730698025429,33.05804947592603,32.41891345257666,32.4797261858773,29.55079577202419,23.98766524030679,18.820583738581142,13.049911393782232,5.109054077481394,-1.9267667995724698,-6.544327222478637,-12.504532381402674,-21.044931817871202,-29.27483372802914,-37.55228818970229,-47.086130836260516,-56.52468506027085,-64.91492049547118,-68.99514108299287,-60.77869395452002,-38.662030793638124,-13.168837597335923,4.94746271828698,14.863398371568614,21.808205163730864,29.42244538488353,36.28102681054724,39.000811125069795,38.99058505262285,38.9189812882462,37.60632390825856,35.28512615610288,34.853218346422274,33.65517647947762,27.10163311188955,19.610131674047633,15.794702959826367,12.28242963368244,6.357220051812562,0.7647337974197572,-3.2033659263446945,-8.316446595596702,-16.45542305363749,-26.170719252212244,-34.753170426367795,-41.889488319029944,-50.62204626216156,-61.43661851549,-67.72110702250397,-61.06128383168611,-41.29955858814221,-18.073815633595768,-0.2467450609542566,11.133850467704486,19.11326212630051,26.078661051118985,32.97847580645604,38.3423075481251,38.69304013391944,33.8223005150456,29.960156378369234,30.097533650031757,29.549991352021507,26.495505807367834,25.534243876149162,25.421367290603317,19.412807387712345,9.202085512986997,1.48006999725108,-3.188795289282209,-8.393747697937105,-15.305172913933838,-22.34612031040979,-30.570502617544953,-41.98183525066405,-53.95056273276683,-61.74699835496029,-58.21739551064014,-39.70382460865343,-13.27509712579358,9.310513309674764,21.58608026508877,26.468862050569015,30.682691830188325,34.79482379961675,35.39341960075332,32.908997513535404,30.083896065662437,28.23715374933051,27.191454190954925,24.92417238277778,19.633048639147418,13.046464755158322,7.924239147042791,3.595791911341832,-1.5338092302320026,-7.166183683852495,-12.871756815963186,-19.034698540046865,-25.702987609330176,-32.566259093405655,-39.79720667676774,-47.57002057424169,-56.01243183118866,-63.596624971807,-62.638653959685655,-45.87961825238282,-17.46418902321832,9.180252547546388,24.187814347459497,30.66277775211152,36.10324321053561,40.923329058181295,43.200751727569944,43.875400604100996,43.577567217840944,41.62317895771618,38.36231469394285,34.93786486515941,30.675463475653498,25.125303602221262,19.463330884513596,14.080259861274246,9.083857236925567,4.39621625794681,-1.389039536301819,-8.849721996397067,-17.462403144386773,-26.218103119607783,-34.38503510867491,-43.432045410887014,-52.83682703973778,-60.23084193995473,-67.3928526480061,-70.32662962039203,-58.229337334438554,-32.800664688435106,-7.090365531292095,11.402555665165892,22.706001558786866,29.72693239310664,36.07064335999743,41.55651841928177,43.129549458734154,40.45904095341143,36.837111391217384,33.89486287387373,32.016481248807615,32.02340166329197,31.2096750795873,25.518521627538018,17.135657624905917,10.30343220533245,4.7424828594751975,-2.267557576742768,-10.347992152090217,-18.26638818679451,-25.89537809903182,-32.671934869813406,-40.279203638723395,-50.13955201738397,-59.54274776676837,-61.22249824942941,-48.285283692984834,-24.86767274172694,-2.4974548803088585,14.583430159805399,27.226685513576573,33.22579201085031,32.77630630999103,31.002200045171335,31.42535095374384,31.4470447096348,27.55021001467653,21.942447935025665,20.347233901228755,21.752002435082048,20.83827655880894,16.212724257186768,9.573526340563397,2.036924116254243,-5.8151874696746715,-13.134520906364724,-19.558821633893462,-26.553575696779415,-35.13101367420837,-44.01851964399902,-52.436268627362,-61.331827437644144,-65.98393230285276,-54.97652458649186,-27.68542222675642,0.06008553332355411,16.84934169352351,26.833899220586748,35.87995025275703,43.59011647079123,49.17931693796327,50.353949758479246,44.94340944002939,37.39132063165166,34.82036091651991,36.508149755830146,36.24081775704988,30.798091695880075,23.23865223058582,18.360312675210526,59.0,94.0,61.0
-55.52364761205023,-31.034083314172598,-6.937073807381636,8.458176661742192,16.93913234561931,23.89595913587347,31.667901424718796,37.54226524768542,39.10265474902289,38.96915616353435,38.74901862736943,36.90186002079303,34.91820676140135,34.88925062051236,32.29459920809133,24.68852880203616,18.157171221522482,14.987063968924197,10.76036502215539,4.555713914894656,-0.4706190409922098,-4.4189954446938415,-10.364802548711035,-19.225095470709455,-28.859088623785734,-36.86466622268962,-44.109874514838225,-53.693653261013715,-64.14723425419909,-67.36029507594856,-56.394655364596495,-34.4311801775227,-12.173599077400532,3.584685210492365,13.657844776491016,21.15569944890136,28.088869477598937,34.82325021574171,39.10055505563043,37.62706097613723,32.29804080060813,29.708721582068566,30.252634771760214,28.768776002205804,25.840023065709037,25.74050359149108,24.44561040770584,16.56290000536022,6.536658985621851,-0.03186779921062988,-4.505736776349446,-10.270567744463973,-17.372472657995957,-24.448443569723675,-33.57947681872834,-45.564436901585836,-56.90038947975889,-62.22271467240055,-54.295929902312935,-32.34933599699842,-5.907078241467091,13.965827927699713,23.42507662834803,27.570948983695803,32.04012319095649,35.41530715676979,34.85871384397089,32.041449199243694,29.423945040895923,27.911570036271897,26.779578751418217,23.709129650716953,17.703033637570137,11.375402922190842,6.688976385311571,2.216507078202237,-3.149647130898584,-8.796193902306143,-14.58895521023926,-20.92568241606906,-27.66931613045145,-34.60158198138615,-41.98980895379766,-49.927395482145585,-58.50917796952666,-64.64783468857857,-59.49704130942087,-38.36108107968622,-8.951463292226489,14.825129726350795,26.535246199944552,32.17094590839751,37.69217529905399,41.83831204769622,43.498969429786314,43.907859474720055,43.20914315754452,40.749420147764816,37.381065088993815,33.851323879345834,29.166286584273806,23.45239651902819,17.890357851664607,12.57499267268342,7.7445438703999505,2.8992781216592545,-3.3897199094825847,-11.249083637247027,-20.04120833115937,-28.608233942720798,-36.83408294548386,-46.26424109189218,-55.16091786767612,-62.25995797127626,-69.17385148751855,-68.6714670654638,-51.722374916216715,-24.873603950211145,-0.9217652805006538,15.319419754369337,24.991657796710673,31.539766209345792,37.86865138178264,42.52503943788765,42.67562401291886,39.37245118336819,35.91584944558074,33.193826765785445,31.841458279308423,32.11079610526941,30.107897483716762,23.13804567971766,14.912960814650805,8.69737381083246,2.928133654516864,-4.582758228495547,-12.651790032774667,-20.53455925683769,-27.920891855791428,-34.66537467144365,-42.92714568946572,-53.14339943876212,-61.2280053983975,-59.074883006450236,-42.085330981486926,-17.89429918346795,2.9217823810627674,18.738748863189954,29.749758619252248,33.59094265566779,32.137765461539374,30.912328016075577,31.681998063350264,30.769659311863148,25.82950165303129,20.92903482642545,20.697429968434474,21.890088725184533,19.823080492018722,14.429583597933844,7.46186213831133,-0.2278332835998775,-8.030320270836569,-15.046274511114145,-21.438230861728947,-28.887062228394147,-37.752394594862096,-46.45359692364614,-54.976194211900676,-63.58576154264174,-64.82537044549052,-48.25257489304638,-18.91804876422743,6.094417363436458,20.040581769606966,29.495989083320858,38.291217595378924,45.472314531242525,50.12889632289985,49.43250823300165,42.602544840151054,35.980982965054295,35.119204545085815,36.89222287317602,35.17144487123951,28.579680202674563,21.45151277403027,17.445463535691058,13.011097374258696,3.5015799913754786,-8.0972611318381,-17.863388989812584,-27.549403295022245,-37.60627896194704,-45.189644905510576,-51.283335577025355,-61.03942921845403,-75.69428332174193,-88.12203624123431,-84.82209030501632,-60.30299771709701,-25.707258134109082,3.08091839874135,19.922222353337084,28.586406936537625,35.29095155716829,44.28298948818038,53.21534667155356,55.673522687372085,51.322181671361506,45.88824254431321,44.016320065902775,43.81636246708361,40.257429592546686,33.77299587517249,27.329074477741795,20.340063949566062,12.578613036591715,6.651860561298254,3.0789054434315055,-1.829179668280577,-11.593880116698216,-24.67446245454926,-35.97045068066427,-43.30098252856483,-50.354994767229506,-61.779649015083315,-75.85584076643843,-81.89560555160367,-66.8743172766218,-34.11645243307983,-2.258001407815889,17.041182125754254,26.634557109492967,33.962915696664226,42.13578910846778,48.46949140028315,49.25793365817407,45.68459868126155,40.218613930364995,33.00833716902744,25.62482864933944,20.80738171486322,17.770860192933753,13.858016164994934,9.093647314295653,3.9650836963504648,-2.889450069932139,-11.503581663122844,-19.60788616892279,59.0,94.0,61.0
24.81709656665558,28.761667783457874,33.315221395263016,35.66454784758465,34.13603340883398,31.201635163687122,28.866033223299993,27.630893929669085,26.198931889846094,22.21653490560052,15.752451194393256,9.87199808304913,5.465304777712134,0.7466623812985942,-4.781656619285493,-10.434434268713591,-16.35665161471633,-22.85143446611058,-29.646061494200445,-36.67812937520243,-44.22527744085558,-52.35537992663598,-60.85593826984267,-64.72793120642389,-54.925965656607694,-30.10559273089907,-0.9628423193820237,19.360370406755468,28.384190968690305,33.73417371203007,39.1552221356423,42.52576409768337,43.70427527118854,43.85647360932639,42.67810098105984,39.80005058285361,36.405012491889785,32.65584873634125,27.561192020068777,21.806518950518274,16.331289860620217,11.116677199867661,6.414183033757277,1.2675441651147838,-5.523709589352494,-13.731541360569143,-22.595693996143872,-30.9492540405305,-39.4171147913234,-49.05085960827143,-57.29119479282058,-64.35586082314305,-70.36394476556677,-65.50521593946318,-44.348417786679505,-17.26047207228527,4.568397340716258,18.675088094711978,27.015106719064416,33.371330725147956,39.53844662768817,43.08460960363704,41.91383690076378,38.30046674131461,35.05278014486095,32.60288462021047,31.84138601812793,32.00213232675706,28.532720761482263,20.662086645715156,12.896595182205479,7.134815759329476,0.9330736463079068,-6.9332885683195284,-14.936891328647093,-22.766622814567114,-29.86719801473201,-36.801135381750115,-45.76832732844399,-56.0010781254342,-62.04247194537408,-55.58773623361223,-35.260854488275726,-11.286823155288095,7.918815068511008,22.524967612191883,31.634606046606006,33.48483993528757,31.548542318065433,31.033130884516822,31.78771297676426,29.704399527982815,24.100950707099475,20.378990898387748,21.170364467733854,21.717329574241216,18.519931456808987,12.524759846128813,5.29071610410444,-2.5057919646314435,-10.172944336830962,-16.891413529922463,-23.41653219174488,-31.35713191146003,-40.34547883912401,-48.86165957393362,-57.58508013926231,-65.26544073150154,-62.05297466185994,-40.36446314570995,-10.60099431912749,11.096253335564576,22.896504398535445,32.13998763883772,40.554911937462414,47.16503636661488,50.62233517837824,47.936168266667366,40.284416990955336,35.12440938205445,35.65669008064456,36.94673179631148,33.65369761699835,26.317023068578205,19.986999194274627,16.506136105449094,10.80784050561218,0.08807302417835103,-11.103432015005527,-20.556183248659128,-30.52791427745695,-40.14136231421058,-46.88846821876473,-53.53720596102254,-64.9087460673507,-80.06519718555677,-89.33717126575382,-79.70026102546977,-50.570740367733684,-16.26845607558715,9.12381479278743,22.990192936068475,30.463946827243717,37.59945888745595,47.16715261199675,54.78151714969681,54.915165262753625,49.57735296761067,44.92081645442016,44.03573251758021,43.258056234198044,38.50991240158458,31.870226428054092,25.438855923850397,18.08860382897319,10.567014922377329,5.478282283843274,2.016050164439879,-4.108584596305074,-15.235998706811246,-28.33509944701125,-38.42221515147467,-45.11443583584368,-53.11393077930781,-65.88011418528002,-79.09800255885574,-80.02303792311625,-58.513816073519855,-24.006007144945382,4.7035639466178925,20.459885680204895,28.727754041869375,36.26241924937757,44.37041835181722,49.31958158573411,48.51769132836372,44.27263837522753,38.301742738714985,30.7540207283353,23.909908234712347,19.88610838055947,16.788549047654215,12.513395412310556,7.685117406065272,2.229812006115407,-5.293724088045861,-13.954719848522425,-21.87534306581718,-30.851391390649876,-40.88859286089254,-48.551436940155384,-56.19751844150361,-67.90958788574852,-74.68909176763455,-62.73404556265499,-34.29654510089079,-4.547171019381879,15.60102582986023,26.665399508334342,35.59884134297562,45.86274999656733,53.92284091068338,55.8132072624347,52.16322295043412,46.34988396346761,41.13186222720298,38.16389734118929,36.79080567864857,34.32987132884762,28.92584534553952,21.34402552992294,12.712338144799608,4.315423731451925,-3.3619954476537326,-12.773953598768282,-24.19029996895734,-36.368881470289054,-48.57817982740557,-58.378439640756056,-66.34355452324353,-76.15462404039961,-83.80618293427331,-77.01788557120963,-53.141914300721496,-24.806127891517253,-3.70181954319115,9.461133477564589,21.323087630474465,34.49239901901566,45.06252601020676,50.4177784121199,51.568810350226514,50.42186781113669,48.70833593278687,47.271565887384014,45.05641947965971,41.04472447316392,36.85098309281438,33.08120400214641,26.811614170045033,17.11250579616213,6.756419860298146,-1.3886627225736976,-7.847142170852503,-17.081022949464778,-29.80392750167824,-41.2678922717719,-50.7981068852496,-64.02376030729327,-80.8777824632115,59.0,94.0,61.0
40.94567870461247,37.28352839967904,34.2456654919982,32.160826150132635,31.957992390488236,31.557843688373907,26.544438788691934,18.220645713901845,11.082478983077547,5.52409591636253,-1.2277058180489004,-9.276454193207504,-17.216308517810024,-24.929099507087034,-31.781533674560542,-39.13154589630392,-48.74513457151788,-58.53788208511531,-61.766287988008074,-50.844624634243154,-28.151655785826488,-5.155632452179561,12.55613278271173,25.86375897270121,32.867794313138646,33.04672084013631,31.123463790303674,31.290140515710224,31.63162452512831,28.292136328814056,22.550490543049335,20.271998994071378,21.60453132308084,21.19626468037042,16.98415042222944,10.523579324832548,3.0722470171833045,-4.777086881137155,-12.222752596370237,-18.71287995660999,-25.528926130843853,-33.926738754306925,-42.87600917657752,-51.29364945937467,-60.181661584172026,-66.03256492069958,-57.58675396038202,-31.75824964288544,-3.078246160257151,15.201000061067106,25.603095642682497,34.72336826693569,42.66747246889892,48.61401392550216,50.574762850279825,45.96618266878487,38.21204689772155,34.806971962371335,36.25818900185514,36.57259364404799,31.764012090388622,24.16060631973706,18.821008830212985,15.363121985980674,8.117777852090505,-3.337765628684156,-13.924335391682702,-23.323908204542217,-33.49454008948523,-42.3896250531886,-48.56202439489399,-56.228868708009884,-69.15267479131505,-83.98411412719484,-88.87744821420048,-72.83751198891132,-40.41295131957033,-7.664583735639125,14.155054799668122,25.523063803566245,32.329983391166685,40.16899361471701,49.90049875566079,55.6574603721598,53.67488908954936,47.908532259245916,44.32384512875817,44.068865129119,42.309800404160676,36.61171192450485,30.014991470112566,23.453435395909754,15.803998269829723,8.787584493153922,4.467698167515179,0.7160067609803195,-6.846503335277668,-19.059072139527295,-31.70725406589089,-40.55382919419187,-47.04206139563061,-56.32827163966707,-70.07829283218145,-81.3148448315695,-76.11528774788843,-48.99872228338705,-14.478494254321683,10.492191198366394,23.25235779662407,30.80035452419414,38.6475438312588,46.333181685483396,49.64494486830869,47.50196771966468,42.73182985901113,36.23211933984954,28.555682280460623,22.468142388815323,19.04132720971622,15.681457425625505,11.131888298833186,6.23823878372398,0.30144798039240994,-7.806178631468018,-16.304916041030854,-24.246871394805495,-33.80059918655739,-43.41294666039382,-50.46744389347168,-59.24698957380449,-71.11728957746361,-73.4536984668042,-55.63344812636165,-25.148982476076082,2.4437595906440275,19.46372337425891,29.167414569447168,38.484231804964146,48.65768893523445,55.16693222982634,55.193450601871945,50.559167082906484,44.685467651128484,40.01426298503793,37.70409435629743,36.317662922258975,33.07944240367432,26.893636097341655,18.920009856937,10.185011093906736,2.10173270710182,-5.806306587153399,-15.946371968107005,-27.642436071768692,-39.97928620160588,-51.7493810584777,-60.68847508629874,-68.92677088606433,-79.08431124407691,-83.80040076177801,-71.49874412953852,-44.730016905279484,-17.712254738329634,0.6752214945888787,12.738358184469014,25.10612961652774,38.010122349440074,47.14811583685933,51.09581855409583,51.39277562732123,49.91907186552547,48.27320005253049,46.796420961098356,44.05417470486411,39.750791983291315,35.80852889298347,31.660568748683218,24.278620537984974,14.035137105312026,4.100699754759681,-3.2618397298351067,-10.05348017056546,-20.564771393279024,-33.44402060234523,-44.014337547717034,-54.02687497989898,-68.81494912366216,-85.21172965438791,-93.01795369725443,-84.43906621809414,-59.51393342556654,-27.206593516968688,-0.23986911584358872,17.326168586770905,30.98129012831683,44.66423390313726,56.57817742870379,63.197352396532686,62.33573608489543,54.75531628687262,43.53528425435174,33.495591815815715,29.388783002224713,30.115969208932853,29.769640831180887,26.638065350644005,22.31161151520854,15.182590347498952,4.813476156302527,-5.67594589511678,-14.208724814933776,-22.758211336303066,-34.27050628986327,-47.319749591700536,-57.54499628138814,-65.32508326442574,-74.10003827472875,-78.85280799104504,-67.11881511059723,-38.7370171732259,-7.285509852443807,16.60818389108581,30.103179940082185,35.944776939196416,39.03426480493462,41.69277177074315,44.219808620731754,44.75901637788792,42.50477368314922,39.09254458226879,35.64652930375409,33.13681297335457,30.722825156264825,26.24866561665358,19.58393370533819,10.396421079163321,-1.6639379378265111,-13.099084887582494,-22.876225147074905,-34.42479244939872,-47.06844223099529,-57.62287561618883,-67.90537068109761,-78.29789869972105,-79.77971972701754,-62.836358758690466,-31.746277515330604,-2.688110076212951,14.227945893246467,23.64338635806306,59.0,94.0,61.0
17.859552660217958,13.858417545538371,5.024827638279777,-6.639881646899917,-16.630311882454862,-26.194342056286594,-36.35231272477605,-44.358945481451585,-50.365848229743065,-59.40832038145014,-73.619005356703,-87.07893929207907,-86.54736020448554,-64.52241516305915,-30.26855311672145,-0.06389023013791775,18.28418853681995,27.67768622934721,34.31092364892114,42.9546049883703,52.28468566266825,55.82358946301592,52.10845775753863,46.45535909436838,44.05530177667387,43.95650293549801,40.980719709130966,34.665589155305824,28.18053994904249,21.34912483258822,13.568497789809948,7.267304906228992,3.523829048871499,-0.9306134282167733,-10.010751231890934,-22.921226322873515,-34.71475068822414,-42.462350493721615,-49.22704217607199,-59.97497420290834,-74.12556940604459,-82.10802627417863,-70.2114958409389,-38.855223845178266,-5.863023871009139,15.195703790688501,25.627224405085304,32.94045286126854,41.049965232190225,47.903739485275025,49.47965335558215,46.292340176399584,41.047788094597884,34.04282706841043,26.501463513895317,21.282376906753008,18.187431870213228,14.45567509288543,9.738115390098299,4.710504246461522,-1.8364628399485705,-10.345412440202189,-18.573587597704776,-26.790410748003595,-36.77074569097613,-45.65635550686661,-52.540957268686796,-62.679735485126734,-73.51500719641032,-70.38897784081917,-47.42082025883125,-16.308361308427273,8.475384706993143,22.68826594767183,31.683583460487576,41.48655055880833,51.1296936959104,55.834615123625184,54.17453743450545,48.86241032866263,43.125393326908586,39.11503249270651,37.33077462119055,35.67824935393686,31.562102095117723,24.72032139652614,16.424951567184255,7.724271757256626,-0.0742492564294893,-8.471930683390237,-19.242032749108056,-31.148574647253838,-43.56076642840051,-54.643230464239956,-62.927980347756844,-71.75145293565797,-81.60512370259751,-82.25598865411393,-64.68322633368695,-36.34693154175054,-11.419420191936915,4.489128491756802,16.098827502783834,28.96739880660443,41.18613721018458,48.779343851910674,51.47024444534654,51.069224976132475,49.41005703122382,47.86788614548642,46.20660753009058,42.900111412261914,38.508051240463416,34.77337613639959,29.937483936099902,21.488403518660764,10.98908815276625,1.6899549184558056,-5.0619129195194725,-12.619529862650229,-24.276978512022655,-36.83582535613905,-46.677861221769426,-57.7285513365376,-73.79083975114246,-88.8087215724859,-92.38793811940971,-78.68700272283347,-50.34420558528301,-18.434474788868023,5.651985356768218,21.381709328408498,34.9274001311941,48.44908814443333,59.173462707375684,63.74490348934357,60.728589287884,51.713073615591014,40.255713766554756,31.595356421883853,29.345603671864037,30.342856467975274,29.057590881991416,25.52155788995478,20.64267974315883,12.421578835036527,1.6359211265171472,-8.327843048059865,-16.51484304718964,-25.726871979000286,-38.09017392345205,-50.68119647131384,-59.86590176174505,-67.72159950240871,-76.44558502999631,-77.54592893202015,-60.14305094918671,-29.32949228043364,0.6408176649762407,21.550050848152964,32.34508574217732,36.95878379664336,39.803827957534445,42.478256285975256,44.68471069113551,44.33426546077055,41.57407526882799,38.054915105918795,34.80679590503771,32.53311459359195,29.698168796623357,24.514116985081497,17.261892042588883,7.10978259392396,-5.206072537736924,-15.960818639428568,-25.9250253127842,-38.15203504884272,-50.355079643233246,-60.46049580080977,-71.12578879075829,-80.1971644829799,-76.9272709533679,-54.688148104585316,-22.417170014208065,3.4807067185473732,17.276860104245014,26.30598559412384,36.96929825602378,46.89571339560361,52.287065900838925,52.982465352796744,49.90163398898883,44.62081158963335,41.31853362087082,41.80355233457227,42.39663997032834,40.382528471973316,34.107552795191765,22.06440093535957,8.662737495272166,-0.8505385430971735,-7.995030037509785,-16.557368397813388,-28.345007777411052,-41.44183617757182,-53.106632525742526,-64.52181022341756,-78.44095195506945,-93.54213048925978,-100.96195114093864,-87.67832590661791,-53.35843944478735,-16.506326143344076,7.017091934797663,20.0533432448483,32.100132095376914,45.216874905265996,55.38621243734317,58.2711507074671,55.86877211392043,54.15703347608532,52.89628136794302,49.91039210745992,46.557652415562195,42.7013346036925,37.90863365110817,32.39287608855548,24.54613115587697,14.81177516225427,7.178711314387043,1.5958206325226152,-6.254842761959169,-16.03704493695024,-23.5805900791721,-29.92847256245745,-40.30043885315146,-55.91287850078926,-74.00026338920298,-89.97859790915005,-93.96159952527293,-75.79563326158056,-42.30358852000312,-12.02006854736072,7.177790453530116,18.40960178235747,26.97766066803026,35.61818352354759,43.16772993045686,47.07679058771482,59.0,94.0,61.0
-20.822170075910975,-29.52969971282022,-39.635468074423684,-47.66895371483131,-54.94469086103595,-66.28241831120125,-74.6727276266076,-65.53053617788034,-38.515493448040615,-8.07599896840369,13.557237726622262,25.473028629048358,34.32432626236576,44.50333629029874,53.16030087334747,55.940965380518286,52.850366372037364,47.138284127356634,41.71790340732182,38.42255498835254,36.97215340946645,34.81469928008715,29.805236014250887,22.432375291010597,13.886602055903682,5.365742172392748,-2.2967451478819356,-11.368172029094394,-22.615818725147406,-34.710788887323815,-47.03566297076174,-57.256062455952915,-65.22890867042332,-74.75356334956118,-83.3580302098886,-79.05054019917254,-56.92542552603002,-28.317566990380936,-5.954966046336579,7.937201815921056,19.630928580616146,32.78434142801175,43.94414770412628,49.98935878140405,51.5882550496096,50.64188870559144,48.92180174678899,47.46653591250644,45.459873717256464,41.64226292842012,37.352917096143436,33.65380443702438,27.8757560843677,18.518542849978914,8.053280680249634,-0.4692933784945113,-6.926275109836231,-15.584467877823984,-28.070688073796518,-39.93318474803889,-49.439617138722745,-61.931915468052225,-78.70676891923245,-91.41702976425306,-90.25933333372738,-71.65136786799508,-40.8673600904235,-10.404559663401177,10.797591632209098,25.293173111692173,38.906935592721,52.00015907679822,61.243611721842804,63.63579878355795,58.611067796002786,48.45273937814028,37.21610731474243,30.284499673912862,29.595119359766166,30.325769682303008,28.153716898475235,24.325852573349277,18.66659833281497,9.425787959954507,-1.453438850315449,-10.801642035628326,-18.91008048984055,-29.0005545909809,-41.93688965996819,-53.70819917904644,-62.06659067940665,-70.28019429868715,-78.1865980955287,-74.55794768764142,-51.982645521225855,-20.050949650655024,7.767611029384933,25.611597478446043,34.06836618767387,37.850525597822056,40.564615072512055,43.246037086462685,44.912972580092195,43.69856670368037,40.588876219479765,37.035222743398464,34.06964202714718,31.88597701922769,28.453053973673534,22.625268959565165,14.68656781238291,3.609084284703031,-8.575445109770294,-18.734034340160733,-29.215576264495883,-41.87474226651519,-53.41774243883511,-63.381913232131595,-74.28721062221125,-81.03948937517526,-72.36981579056211,-45.643688828929854,-13.706605515777994,8.539060193180536,19.940482180809923,29.179749500195094,40.14646793110999,48.980104713837825,52.92809978019234,52.443248624004816,48.46440334655928,43.26061084428889,41.17182559703036,42.149470481156655,42.1312386741838,39.12309046528844,31.16565259143451,18.000192862439796,5.462644289866079,-2.978077866382775,-10.184988649408877,-19.64540596309342,-32.152242280586606,-44.99901869702504,-56.2782497482678,-68.23571728659404,-82.90646801712516,-97.07693608583851,-99.67503613828745,-79.35452342971499,-41.977893656705334,-8.119323325321481,11.377405890940217,23.37545143242512,35.888017928547534,48.70272784378429,57.04297056857432,57.83171528699297,55.15304287221406,53.91552980473477,52.18200141718695,48.92809682652116,45.55072239517563,41.38226657759859,36.43147968099125,30.440685741828876,21.770154261325132,12.25066202126692,5.53949823244908,-0.30642581274476766,-9.078385273907411,-18.551755031213727,-25.307585145876516,-32.33852717272592,-44.361794058942124,-61.03654091248229,-79.13793068456182,-92.94839358657694,-91.11989926346497,-66.86996459839192,-32.566888664276284,-5.359378695823593,10.9975919614793,20.958759094482485,29.45839053319835,38.0247319903953,44.76993084297429,47.28040494599201,45.27432280514113,42.56675858080515,42.81439393103657,43.887596575152145,41.198247634871784,35.93639936954546,31.25905011177246,23.75080592303636,10.448519181423897,-2.0546068804957596,-9.003424815066971,-16.323060782095418,-27.707928875487298,-39.75837238245853,-50.399622172723944,-61.21959257774261,-74.62374354354952,-86.61761510817331,-83.06112113764,-55.93964319000024,-19.208233229577722,9.375271130558037,25.959432003660663,35.03321181482055,41.65429212977198,47.98889762827596,51.489546743072445,49.34562834854695,45.51201151044521,45.73442366178901,47.47851023499448,45.12650171379823,39.34449417179475,34.5853778922567,29.788618395145512,20.444540868516103,6.954371870373716,-5.4389281775284255,-13.623095843570562,-19.539281664713585,-26.84438981104146,-38.712022191004344,-52.7796521566191,-64.33908603331295,-76.23048740125544,-90.01028617435337,-93.02702173250928,-72.33132752228146,-37.54431959242713,-7.363695196170889,12.060124096453732,24.552680637986832,34.95175081385738,42.57419626484547,45.6231676245641,47.11312238178948,49.407174751886345,49.8350215119864,47.841634252958336,46.47362838660516,45.29829649435079,41.173676139211175,59.0,94.0,61.0
-83.28892466500785,-92.82246275442469,-86.61734579132678,-63.5411597422133,-31.441522765575794,-3.2416417681391003,15.364027529594917,29.17893151871713,42.86656686967239,55.22522751569842,62.72553728744434,62.88646948728233,56.05736949906251,45.086937800125646,34.558467827604694,29.55120183167813,29.958823108296745,30.0127063244186,27.133025342609223,22.993181241605114,16.35721614846228,6.283877338553435,-4.387086122067665,-13.148651148212304,-21.487171268709872,-32.55558283885998,-45.67103006007875,-56.4016891592265,-64.2738443971644,-72.91314903010802,-78.93958930433924,-69.84503744635562,-43.024066441410994,-11.179342052264742,14.025641727074733,28.855834826684863,35.41505876304266,38.670971999777,41.3333454347963,43.94219822760746,44.87051110712388,42.907426775714534,39.569462723289405,36.06666265661559,33.41851501567605,31.127399656793273,26.990076431897258,20.58354300903837,11.8193066124114,0.0010800522383753175,-11.722129391805073,-21.539364849715543,-32.73905327178977,-45.474867915040555,-56.31582902754552,-66.44564068007858,-77.15486999217751,-80.53295649221316,-66.1830738851526,-36.147675472069544,-5.916376493871583,12.619261433295339,22.46722004429288,32.26193002563197,43.126433331835955,50.6330853153028,53.199602940585336,51.60740166004562,46.897881016460715,42.198630312488476,41.3154504505632,42.384715420053645,41.62203153348898,37.44732934755829,27.7289823397398,14.012405122289028,2.6565392551126883,-5.0057090970530735,-12.57911490840935,-23.01725729038675,-35.9826729447783,-48.38844900210102,-59.5102935954191,-72.2087591548057,-87.3898159735477,-99.66269690796604,-96.34348327361059,-69.48620449490191,-30.972240248177823,-1.0744279827822314,15.118568926994152,26.805434745422968,39.729527927668556,51.80728001583699,58.00969921028735,57.092188947880786,54.6270041662719,53.61299627872796,51.31786716076405,47.962616242730284,44.465047667393804,39.99931375336105,34.88551683241056,28.23485108792833,18.902281069598178,9.974857924189855,3.9898014604369743,-2.507964430037954,-11.971092448768642,-20.783255019935122,-27.044224750525885,-35.21116625530844,-48.82566525232815,-66.28786409851544,-83.96817131245002,-94.59650236743936,-86.2448326891575,-57.07148035689966,-23.54008946922158,0.3484970585581599,14.2826587468785,23.411424395230206,31.969191204493296,40.28178143496589,46.00661825042352,47.07206991280766,44.32990372321986,42.30223756303858,43.27977113664184,43.589702077778895,39.73224651438294,34.54086497251029,29.651775693363646,20.380473288020895,6.334418061260923,-4.511164609796323,-10.741929003793258,-19.275351100473948,-31.299612079468314,-42.958230634409816,-53.3775751897917,-64.79990998731735,-78.71240483903371,-87.89621259672163,-77.41350799286842,-45.34341502624162,-9.664445034448025,15.259081134785047,29.108835847763135,37.01864387466534,43.543487625642626,49.4865670625251,51.4288829540903,48.072590141094544,45.09116719874783,46.38060805605161,47.347523486586944,43.590569232061725,37.762506352912894,33.42119643414221,27.675976998609517,16.781941603934836,3.018991909400251,-8.22072285381628,-15.414742028815326,-21.329580813488423,-29.7584473629964,-42.83089367888705,-56.410214540162,-67.48087528165382,-80.2910712398731,-92.82412003814957,-89.54238352583502,-62.78877672656041,-27.798601120774407,-0.7032902595754432,16.10609753780402,27.684457525624197,37.585615270011836,43.87901941386288,46.010153865482025,47.74955519292359,49.86085366465085,49.3807718459105,47.29136517537029,46.265769194532375,44.48243562202939,39.41875999349797,33.118603919294834,27.81470441267655,20.96352684948681,10.611229076500857,0.592135981183628,-5.713900903275865,-12.633436514690537,-24.440372828801916,-36.02516380528546,-43.21296201408075,-51.25432752324545,-63.938016961193746,-78.67498307746123,-89.6209882233662,-85.8633796023811,-61.6225206379339,-28.401654832904217,-1.911091358407419,14.573356501686828,25.614440370706916,33.264181981204445,39.80814836780023,45.99203904750888,48.94230442938321,48.632475288778345,45.532507812728866,40.57918508706011,38.429289369814754,41.53783572817982,44.68367441348832,40.24507504810936,29.428154652637193,19.28059168421013,11.258311310528844,3.0454049228290954,-6.955111092214993,-19.533865977202186,-31.5274602322122,-39.76980388973289,-47.3300903355071,-57.37265528288071,-69.20428485990534,-79.11880355368956,-76.27088762740708,-53.68140357971991,-22.194481362415903,2.166184949300831,14.092099039656667,20.242868299261207,29.159359142564476,41.09078199863212,49.11419695862395,48.09768954627898,42.188157533311646,37.0323839719134,33.97289605246001,32.56561043489764,31.65156559050914,28.830149232981523,22.452935324842766,15.67732303054961,10.416356134191831,59.0,94.0,61.0
25.05517242446568,35.47630524961303,45.79388840299434,51.8598869094438,53.12629021293267,50.4967898927276,45.31725857769809,41.50698343809306,41.63370615070458,42.44162581164244,40.84369117386224,35.28345752311005,23.909044971142244,10.271120900896394,0.19338723855521517,-7.034110545631941,-15.23475743177238,-26.62367232066466,-39.74780628725042,-51.63826594122491,-62.89231463387993,-76.42689354292997,-91.69181519375725,-100.9251713554647,-90.88791315031506,-58.578274904407785,-20.81047675320854,4.715161668285387,18.526849309300115,30.39353049573169,43.52045996350351,54.396871938541395,58.32138484069535,56.24628808095794,54.27824901862414,53.16448121617194,50.3634234814089,47.00501888225823,43.280743508642374,38.5757893651665,33.218929770845236,25.765290599068642,16.069973728006953,7.9994512228408245,2.3886718618901535,-5.012639429215623,-14.793944350464798,-22.746320245661256,-28.950546236152093,-38.58141289286895,-53.61629817036763,-71.57770523019329,-88.25971804051402,-94.59396499126942,-79.47371313723218,-46.94275732455565,-15.426795449827427,5.19792062121247,17.1728299010007,25.84690895372069,34.47691228292133,42.32014100158176,46.837558610336075,46.51138631897836,43.46330836241555,42.33671621070602,43.690473139456465,42.88545025231374,38.16485588044014,33.23098958499539,27.64573354958485,16.53053399435329,2.5477082403053144,-6.508399143715231,-12.731890227872036,-22.557726678698643,-34.828801377403046,-46.03659478276123,-56.43622172704991,-68.65035469613363,-82.48115127912939,-87.438190108585,-69.79458280290703,-34.492435873815374,-1.12798519328289,20.193325254773296,31.765743047935434,38.91401443739653,45.4187187333801,50.63766089210982,50.863855714019444,46.843493796022685,45.101970066956284,46.99356944529968,46.76364330031229,41.87347964755273,36.36248589333568,32.14543283526605,25.083479267854877,12.856519370675285,-0.6729586473101484,-10.633860482520623,-17.09750657235264,-23.331962387767028,-33.11727282851612,-46.98578122711169,-59.75830754439547,-70.81372146148767,-84.44976801662638,-94.26380026894704,-83.90118834621617,-52.57154915929001,-18.82013890703753,5.051879765275202,19.726889887912716,30.72666397120447,39.903152738063426,44.795927371535235,46.39211170719402,48.4529721621634,50.05848942851776,48.77707737525755,46.871315150543154,46.00161438850791,43.35095016082291,37.557816187710095,31.511746785082938,26.17350683705672,18.26259816296482,7.42696665406352,-1.5706284738497882,-7.319750297673105,-15.60666847043877,-28.16570152873594,-38.45601252185154,-45.13664633669755,-54.47564921005574,-68.1759837585197,-82.6134559512999,-90.57797348609876,-80.76570533277892,-52.1317318173363,-19.62146834250534,3.688806143381799,18.173363965399094,28.114982527297386,35.13812621514336,41.74473022607546,47.260722085111446,49.12082874629384,48.05073987080333,44.1357936044757,39.44159350629539,38.871080351707064,42.835135584288594,44.36180166035829,37.446214208064625,26.215328153163668,16.845186324024464,8.985334392989815,0.40816563419080815,-10.368283080525627,-23.292943063925424,-34.26473951710759,-41.80400745753933,-49.959491029960965,-60.680117639726284,-72.60495269332367,-80.18884017232713,-71.61812200450699,-44.69689394044267,-13.922171143844484,6.769917396948452,15.997709476964086,22.334947983207375,32.51846026234835,44.181164846394566,49.72648169800721,46.569464431135415,40.4931559732481,35.94063319533966,33.43199107464385,32.327096210805145,31.170663357052426,27.299484402953947,20.334030083146946,14.105554924779337,8.627689589620445,-0.5240334581049059,-12.350155966858498,-22.7772141839301,-32.017498394641954,-39.62126687482504,-46.64049584066336,-57.45162690745254,-72.29907429394105,-83.12755049872963,-77.98307062610294,-53.56358711774884,-20.923780349246318,6.448736446161467,24.49900699745137,34.86014445452627,41.04549226687094,46.845059852139485,51.59895489332366,51.18781683663085,46.422419299285906,43.82451731929673,45.72066205103246,46.76851204178142,43.309113993760995,37.79687678350906,32.90361017002476,25.874995375548753,13.488153504019948,-0.28441914563900067,-9.13495410913639,-13.740382966957217,-19.95553764417709,-30.341774095589027,-42.11858136903364,-51.55073678254665,-59.04121048176005,-69.44351251770931,-84.68605793022647,-96.25818028645851,-90.78933505961184,-65.31413701284384,-31.006246949479692,-2.3958872230559622,14.42160433743058,25.521139919236074,37.822426351931874,49.81182731807159,56.83321549189984,58.07714758148619,56.17597350414973,53.670028559899734,51.55735935980057,50.22214090692547,50.20337358557902,50.40434253317446,47.20635655618697,38.68228247711768,27.919716627828603,20.121501285070124,13.91091508692403,2.158279038415179,-11.904351749224935,59.0,94.0,61.0
47.23973945690924,45.69867881732424,42.78933167758051,42.62312684873867,43.89676194894157,41.802496486421994,36.618548512883336,31.91076293826315,25.113661269751272,12.388533193850371,-0.7345922829978658,-8.235478366312774,-15.094751894040774,-26.056885906533925,-38.2357835397537,-49.031967813170255,-59.658351786038686,-72.71446203668229,-85.5537534148202,-84.94186141071984,-60.58359384793293,-23.893972482809588,6.313029792739892,24.304398066741044,34.0617483860743,40.787451377747274,47.21413521388806,51.33841821949688,49.89013528295586,45.849685948362584,45.47584385810456,47.400542678373675,45.73370804386742,40.124885153213434,35.12328098448441,30.615171048315542,22.01005000139958,8.814298762891381,-4.0239277082747105,-12.73687790879115,-18.757216280624682,-25.647163217996322,-36.8748211161944,-51.00687075289086,-62.91137362982364,-74.44642556707069,-88.38676248057831,-93.89456963687792,-76.34561714367074,-42.22629720348898,-10.756612088272169,10.006975557872854,23.070830657851463,33.65668657570931,41.829453848277474,45.41010086861087,46.85791870095901,49.132069427005554,49.96874540160339,48.128431420704636,46.5782475638537,45.57546285184002,41.91962537696754,35.69142492296503,30.003838980011842,24.29264644971913,15.272388014774497,4.4214412809732195,-3.3965926526428154,-9.171298656486053,-19.012289609102734,-31.65519504687539,-40.51547720264972,-47.33185748972488,-58.095813633019496,-72.48775032007028,-86.062390400584,-89.97567281340254,-73.96560281948358,-42.33799402019262,-11.721073250869765,8.533658636219155,21.426222558571126,30.349904646353036,37.00695350887568,43.61008766385879,48.18442726068107,49.07458400723844,47.21326616513189,42.64718297321255,38.68205855382531,39.74913726743989,43.92839696761075,43.24535669226597,34.27629678020289,23.216708193640763,14.541339176584167,6.645865146716417,-2.415804016085698,-14.0017880193325,-26.86705893337604,-36.66549286862074,-43.91442923407857,-52.82507518610993,-64.10471938897953,-75.7106233294183,-79.83941311380507,-65.29564115522494,-35.40610712697893,-6.583881423314806,10.343547687029941,17.67864987279826,24.81794810100223,36.03933853756791,46.725454059377554,49.5392092019828,44.8190738696979,38.95487050065012,35.02300658960657,33.01274813787319,32.09558344748361,30.450560494085142,25.46842996418509,18.309800009511093,12.63991776134749,6.481184452283138,-3.896984475090424,-15.563139728963684,-25.53578639613762,-34.43421248117046,-41.52433654350216,-49.22456424362001,-61.51897890603879,-76.39129068506041,-83.69881004448234,-72.65893416076881,-44.256637612506786,-12.112255505692646,12.600019704988753,28.157614825847393,36.88164927590788,42.6671285426681,48.5097198267441,52.13014519546205,50.01714657764144,45.169025654908786,44.05954775997931,46.39140247596367,46.21752322506773,41.736433078728844,36.33296432498456,31.319660424007527,22.823371131663652,9.315333672194527,-3.490491680025668,-10.663466077614316,-15.139471585900598,-22.576032256244076,-33.79674308755014,-45.17908157183989,-53.74669927838678,-61.51719482570508,-73.50768316451408,-89.03299234788841,-96.87222627559028,-85.18914507280498,-55.62005441584667,-21.638514878133627,3.590434053853417,17.785207021205622,28.863279417686364,41.54522285550579,52.48939159776742,57.69827394612476,57.71445743495774,55.44300080304423,53.00275343699819,51.06793652293505,50.07267308296166,50.369652656291585,49.99798469861473,45.2474591012519,35.558142172020965,25.211883057406617,18.50446954361518,11.231721431567474,-2.127693903815488,-14.985862341386031,-20.95974824060645,-25.040740426448313,-35.09074814666847,-50.783646424351915,-66.36093993671513,-79.61296406228522,-92.1523020033888,-99.77922959923681,-89.1638025162338,-55.73237978263158,-15.807117427456225,11.423285714792215,22.915374743844406,29.627672117798586,38.73463088647752,46.55438341105591,49.884779003115035,49.264990176522815,45.48624083978982,41.37999282553729,39.77483118469771,39.20688773445962,36.5738036738114,32.47779260473486,28.21549052316097,20.26217129754117,7.4135057443191155,-3.477608071194158,-8.630438235333903,-13.589729228899026,-23.00225261088758,-34.11351599785559,-43.63870245221746,-53.22951070958874,-64.31385179007066,-75.27349184674902,-80.08232954236085,-67.76737784068844,-36.75178227536358,-4.299067272273402,13.834206243618576,21.201066425112607,28.38184096470791,38.12394681291108,46.68025083336365,51.157991894161846,50.64838301536738,46.7872770852926,44.21895873799846,44.254638806144676,43.66808125209738,39.79210288175895,34.51128389406206,30.097760945654457,24.145385644047096,14.249412339329607,3.0216037061829963,-6.694272399231879,-16.976098353859506,-28.51365029830626,-38.59949027635533,-46.79545499438186,59.0,94.0,61.0
40.24719954692644,33.90269922952005,28.51953591723508,22.094390879809232,12.098280143128289,1.7165946943423374,-5.001478784792765,-11.429159620810552,-22.700608474587074,-34.752165553296635,-42.370218959401555,-49.91607501215385,-62.038172730600515,-76.758127920597,-88.73764216380121,-87.59214370860722,-65.76450603107922,-32.691379097544846,-4.787026020318325,12.779190214395777,24.36309609515599,32.37719958401158,38.9151849104285,45.29988276764552,48.77272733738169,48.82135411739779,46.11680306866862,41.195903005342394,38.39242651359204,40.93571018117143,44.58519873088269,41.35115104654524,30.95537846388227,20.468108223522503,12.293655507359716,4.209788724070786,-5.465535208637529,-17.77750674323116,-30.139950637739407,-38.822580752662304,-46.20015260917506,-55.89711497789055,-67.59588966753118,-78.23971393908279,-77.8112009590525,-57.59099488777183,-26.255858314792558,-0.33258672947908,13.06258921304295,19.38745951052101,27.70537805465844,39.540696853788,48.5482967937344,48.67573373895323,43.00833691318336,37.59659097201969,34.269047408642685,32.69005986067259,31.815795904184576,29.42071005404444,23.429444529978653,16.46162811193787,11.151684638702804,3.917893660486666,-7.372871941976808,-18.595496980696378,-28.23363911593135,-36.667860133507034,-43.46287557142923,-52.23652125630709,-65.86185512700197,-79.86247885452774,-82.653098605741,-65.78402798284458,-34.66558846723957,-3.99427891163815,17.967428127078936,31.235915723331868,38.658219192940464,44.33779196495038,50.00217760750688,52.12868683273007,48.58614157469589,44.28547033848691,44.62821216580683,46.814997779379624,45.26511277084706,40.10426723099822,34.94749400703499,29.427639614848765,19.291057301540917,5.207796523674841,-6.161464975428565,-11.947850194069845,-16.82581943657839,-25.5439724281925,-37.26154396570072,-47.96623865302157,-55.84994290773723,-64.3839814049569,-77.95090994127443,-92.74798009469464,-95.75111867337924,-78.01271864180674,-45.56066139550768,-13.080180579850646,8.573742742191747,20.92094941543303,32.403947702424716,45.123783641085005,54.64944159324339,58.116791392240614,57.16698093428673,54.707324148813264,52.378855169782085,50.65325274535118,50.04925652494042,50.4967463055309,49.20118927566736,42.840852647367235,32.37069779894909,22.879990984848337,16.86330100548467,7.927237289824017,-6.362720294381113,-17.398576650609574,-21.911946182792448,-27.15096984974062,-39.28693716663822,-55.51065812069542,-70.37550022658846,-83.27898253034796,-95.35827632298621,-99.16961178072347,-81.46454172919584,-43.83656487863698,-6.125081836816148,16.015269651115823,24.796907529352996,32.03543961555788,41.38220397663761,47.97134191380867,50.08849921627489,48.42417107565712,44.158569768476575,40.629454334837945,39.672888221854,38.71613000791465,35.42610283907901,31.328340176909283,26.509049175616674,16.85862984107884,3.706823893996927,-5.436667358712281,-9.748711037787668,-15.851148191824723,-26.268975177354896,-37.027437070480154,-46.282334725115085,-56.297035916330906,-67.64004061369631,-77.74090878932364,-78.71533508585142,-60.25040094578202,-26.53231598125804,2.6119842208864408,16.54283268986162,22.98342060718954,31.04334501849648,40.90763030313285,48.44839296272167,51.53497689834911,49.68338792008676,45.743360926806346,44.04937082873603,44.33329350548514,42.890087520485444,38.24323644101015,33.17055345126354,28.712356702460784,21.672903444461095,10.936171309860976,0.07699400893476407,-9.475472133612186,-20.286711646081745,-31.670287976462742,-41.09672925530153,-49.061035868262834,-57.7512430603596,-69.30697027127864,-83.0263674122112,-91.89457919646632,-83.51912800241185,-54.78414737594212,-20.059119921718704,6.498005805104728,22.845489712751743,32.90816253700395,39.3632292918468,44.54442526441949,50.445258460399856,55.59373868711464,56.851051023081666,55.106189245941266,52.28409604894743,47.54791681745717,39.57116585484656,29.25595244045927,19.93360133311498,14.40356072717156,10.86907047217099,5.050599471253324,-2.444846077822504,-8.365892146498938,-15.493851915891018,-26.92259680593781,-38.46055593270647,-46.234522325461285,-51.97334770122524,-58.36315847699752,-67.64476966357701,-78.8631328534952,-82.78074952282287,-67.24730003184531,-35.02888256074063,-4.432832697056711,12.70642386861654,21.13009347971543,29.389494300259877,38.673862706650084,46.75929820299419,52.5516075946444,55.62383331434186,55.88717146408052,53.54443913574904,50.174942736820434,46.51236078262203,40.86225608065366,32.77085000313624,26.078648675587644,21.907149335702766,15.356147478739636,3.683046665185681,-7.908661813742679,-15.137386829812133,-21.99513188175285,-33.32022957579892,-46.966952095166825,-57.087027279313276,-65.09170041939383,59.0,94.0,61.0
9.490720827040164,0.9545268273178324,-10.809305156812181,-21.481652836882777,-30.85044699446109,-38.72174099281651,-45.57329696564894,-55.704601205401154,-70.29352355805122,-82.37784976742071,-79.86405851215393,-57.64276804572554,-25.175837973824702,3.340495695090983,22.59720892360888,33.814279611288775,40.3031789276529,46.05316708420579,51.18931451609841,51.59606936267212,47.083668902154905,43.860758306899505,45.37035749708243,46.87863026978761,43.983122187827334,38.50561519713447,33.56812976464028,27.10940839150431,15.378122962250952,1.3582004629911544,-8.305093328601819,-13.15940241350665,-18.877312013541207,-28.78350058313091,-40.62706338778634,-50.476460356577824,-57.99607972048704,-67.73012620771705,-82.57214277341242,-95.45143311736535,-92.7809638920911,-69.55173671611612,-35.52430122036687,-5.519018606945207,12.72480735134419,24.042988650429585,36.09583131560787,48.42086479435977,56.26683766090767,58.16126763125015,56.50408188513867,53.9904054276608,51.80404472122699,50.33263278008773,50.136425241086556,50.4857793229369,47.94745644290128,40.06095479491013,29.27474923362908,20.922184316020594,14.948502497757099,4.0711439034226435,-10.272738669948863,-19.183306004008994,-22.935181733454158,-29.911744377861865,-43.841088127217326,-60.0824269114898,-74.20547615339865,-86.94403311106106,-97.93415522149066,-96.65097178253379,-71.95328530324035,-31.97562436444318,2.1236803529188175,19.417698483949984,26.623391297059264,34.688875163804106,43.75747926859937,49.00392103530204,49.97821016088721,47.34402629132658,42.903220561155564,40.13109630508209,39.5685356502751,37.995711287468076,34.21966735058011,30.16541036052967,24.352319538313388,13.104909919302274,0.394202483886931,-6.931435831880283,-11.054189405945726,-18.527027083255472,-29.541709465324676,-39.77951796484996,-49.00908154216302,-59.49265880351793,-70.897231698465,-79.48364699792273,-75.6161039512654,-51.32717534683974,-16.77346508859753,8.105006612209806,18.630346947571216,24.971739480928683,33.88557190854311,43.47269829527633,49.84162638686731,51.473619510335055,48.527848329405174,44.926366601688734,44.070401853012754,44.250680564276074,41.80744492950649,36.673826718945904,31.91919497009307,27.094238821809896,18.849578036402523,7.631944091827157,-2.7189248999157827,-12.396722247256836,-23.659989335177887,-34.63406824728366,-43.46530813960628,-51.384376578449675,-60.7433272027077,-73.21018390970816,-86.59976050309848,-91.73553193447583,-76.92327148917973,-44.540288145474626,-11.238090533000424,12.116892333769414,26.240817825623118,35.05683910860162,40.871982298624516,46.151312850904276,52.181205951492935,56.40799284157469,56.52936343405673,54.38989747400466,51.19359186662187,45.59073815391124,36.71900461361832,26.284057667201647,17.918136382006693,13.387199938085523,9.53004724281297,2.871388899657559,-4.3352084168310006,-10.048893882233006,-18.418899894633483,-30.525900089844157,-41.09158412187432,-47.96968828353718,-53.643825286630076,-60.68061038576862,-70.91188799344181,-81.36716846616653,-80.58712420656316,-58.9825623419777,-25.180343833566507,1.9557925466444677,15.569277955927593,23.334026191830294,32.06700404347133,41.207496613486676,48.69222620807688,53.72785542905193,55.99118168801573,55.43704552845296,52.593477748418096,49.18500215737443,45.185882270009024,38.659822771940426,30.509950637321058,24.758559053097922,20.513454910475744,12.415190497461461,-0.012229074401338247,-10.39775716321424,-16.866822144811998,-24.7412759079503,-37.31046689105037,-50.39676521400308,-59.30503345098902,-68.03562628246912,-80.33403191011253,-84.07895790212052,-65.04774478705987,-32.412198895871164,-5.673361745974164,9.91562271776784,20.824227970783987,31.470455877286017,40.62390209014516,45.89037370757336,47.247151342905035,45.15509080753712,40.96723037500618,36.65606429251061,33.99398326832704,33.67503608687368,32.51573498608849,27.08387731439036,18.761544394786878,11.430290903534749,4.429942760985963,-5.380536845172158,-16.493606622004624,-27.03426412538073,-37.61094479064896,-49.36506489656864,-64.31834701944209,-81.40025546637293,-89.42800373117825,-75.9843505802359,-45.44257420408416,-15.837431802319088,2.4085286169972915,14.073535462003312,26.25287712799686,38.57788454047,48.2809521655831,54.89001150454541,58.06833704128556,55.01218562545889,48.123996454641194,43.836582931710545,42.31313723225442,40.38176335159025,35.81310974079799,29.58519943977884,23.520340026541085,15.152016065458527,3.4009710051583117,-8.886204672836556,-20.497931062694512,-31.262037769198198,-41.05510712187257,-50.11944837482837,-59.210386358306664,-69.70704716367004,-82.92518591014161,-95.50123841377295,-94.59427268092799,-70.56173870545031,-33.259146702254625,-0.8193253857425488,59.0,94.0,61.0
-13.646781781910024,-20.475272189081508,-24.267079199898795,-33.32049595995959,-48.58146790943603,-64.43454449538845,-77.91942586401203,-90.54964356340363,-99.50470979022943,-92.02242704499238,-61.0659934969982,-20.689605278055843,8.837412245801458,21.946508133958368,28.61699238972824,37.461690356071,45.76489566644432,49.68330408353751,49.55906005512839,46.09446449824874,41.81026142485387,39.8501393588071,39.36061233548441,37.06269231238055,33.01890541421308,28.8841758007896,21.673951342457418,9.200248848038312,-2.388595670795943,-8.125889095815428,-12.694679790921004,-21.53611811615757,-32.70870243569367,-42.42948853523245,-51.86409236713226,-62.78048068659398,-73.9668597814325,-80.19272010823823,-70.66633777029517,-41.46297903070603,-7.952728073370704,12.286661090094428,20.409375734293462,27.239466619823407,36.794891482768655,45.744781238465585,50.8384337962384,50.99441739713109,47.322044653069725,44.37940915321328,44.192961728405756,43.92024861667818,40.471080474663616,35.16878306824381,30.6864830583681,25.159267113575172,15.745826712708201,4.438661272228853,-5.439200190116853,-15.492496800746903,-27.00516125382318,-37.39264637811161,-45.75345108897199,-53.830062796445425,-64.01891837937129,-77.23915176751213,-89.51980843612125,-89.80307162940754,-68.74202548582315,-34.279735386516975,-3.332972464021796,16.94912557491752,29.212469831119513,36.94769385784684,42.34169921895708,47.8540746710648,53.76586043499152,56.839974983730976,56.029301616391585,53.60682813352164,49.89710171753194,43.341809273344325,33.720718128459346,23.49738028185562,16.26205579708076,12.432477909404039,7.906403917011374,0.6444312936393535,-6.038366337405431,-11.982984591282626,-21.712344677510664,-33.96853621083284,-43.37860031677292,-49.61212932258932,-55.42678874998175,-63.29353671204698,-74.26667591291103,-82.93309869781147,-76.50900436360767,-49.618096984655786,-15.98932117676263,7.104083177478768,17.96165596881408,25.679721255567276,34.78189282908296,43.59131552481631,50.420147221641805,54.66918162798627,56.12361733825503,54.77939331171132,51.61281359840154,48.162683199231424,43.626972111940205,36.28930508456883,28.492233819409925,23.602252059126403,18.760637061126808,9.049555721605499,-3.494206880736658,-12.502445912542113,-18.730246899266945,-27.94047952785328,-41.35236623157936,-53.40122620358157,-61.49825919917107,-71.4121137433932,-83.18439995463945,-81.02056539674797,-56.06551465364247,-23.485407275497117,-0.22748130754349494,13.235094885640644,23.89712284169211,34.40473385950201,42.58725028623426,46.65578267459931,46.971965341737864,44.06335930855979,39.66246046385589,35.6324608346008,33.72880162704498,33.63401664506805,31.431336539375256,24.79023675590508,16.438417147600727,9.559754525907556,1.9046083916584466,-8.593770125666838,-19.59979969266459,-30.040177494956403,-40.8177844342415,-53.2641281320589,-69.32409052588928,-85.35362622236464,-87.97025429957128,-68.20727433788207,-36.02080538075496,-9.383030923023327,6.035763296303321,17.41926051290211,29.94642880536423,41.72227600867765,50.474016702645365,56.270468555524836,57.89800324382269,53.09025618919734,46.46776093531014,43.249057627435306,41.93097844063864,39.36585109422985,34.05547693052314,27.842025641610373,21.502081821661204,11.994274249724215,-0.19879429700604528,-12.313273204051425,-23.708275044244584,-34.187773853511416,-43.72529667898519,-52.69675178248533,-62.02081777810193,-73.23969064117614,-87.0252804693255,-97.32164891827341,-89.98144283343288,-60.28865957976633,-22.775261649499203,6.237065185106491,23.12613513984319,32.16420180952644,39.03432244258654,48.79057510702646,59.77889085167199,63.86833242272437,60.270368838401694,56.43699270622296,56.56351182810168,57.06788589672779,52.555436852334374,42.24643847501706,30.208029035893304,20.796537942825648,15.267257845142874,11.179976893060767,3.3382843705745904,-9.405116160738423,-22.475546382525458,-32.050090905042396,-38.739517219270056,-48.57334675176703,-66.98584054594309,-89.69042337132,-103.16004836291705,-94.41390824096561,-64.9856177252888,-32.076708336907394,-8.020670740886663,8.959324578552234,22.875275967260478,33.60482121710886,41.95747344543609,49.737840238629744,54.18481981764368,52.89694250944086,48.82592319063184,45.69259149422199,44.07181524788239,40.64090288112547,32.22304659864038,21.552388167904972,12.780320809647439,5.3594170548334645,-2.670753239665624,-13.168183116343716,-26.13180663316107,-36.98888138725828,-45.15662207677815,-57.15549540200509,-73.37336708753944,-82.71966819378669,-72.3999583271522,-43.49699919725647,-14.998804581382455,0.3217072168371185,10.750767211528112,25.16387296099084,41.020660006328036,51.9330901003062,53.166040713233684,48.216924687608746,59.0,94.0,61.0
-48.01313761750082,-56.46082002763472,-67.5781663789803,-81.24395395348913,-91.44246011342018,-85.9476510145821,-59.37324552822433,-24.399909733031812,3.612333354608624,21.1160490658591,31.817945376780994,38.63573884661135,43.83440224266072,49.624149680681434,55.09281752082032,56.917865004956624,55.41543944853891,52.73074772622545,48.35253326677575,40.81777395645386,30.660719304957986,20.982980542038625,14.9296917683075,11.402769025098953,6.004976153523821,-1.5063689416584893,-7.632169505106484,-14.288044194047865,-25.251980115783418,-37.12382427461611,-45.38343801005368,-51.22444512530368,-57.38475591199966,-66.20823491188071,-77.49506060369389,-83.19242363195868,-70.56655284180229,-39.665529377551,-7.804974707436357,11.150773305092198,20.140017275090912,28.18669438618824,37.46473161662955,45.802360144490834,51.93108875586235,55.37620128360905,56.01698711458844,53.96039294341658,50.62840693257167,47.06246504024157,41.797499189116294,33.86775958959487,26.77175691627748,22.467662771216897,16.54636162227345,5.404428891555847,-6.614541688228347,-14.33883028039293,-20.87719822673696,-31.54797102392506,-45.258594424796755,-55.99934110142165,-63.879611715599395,-75.08667170219748,-84.82313954680913,-75.85502181063926,-46.44570865857842,-15.47385131428649,4.355166080907008,16.360461307292805,26.99285426544381,37.139456848180735,44.18613247411757,47.11505956281695,46.41317616704765,42.8502715917906,38.38638170951953,34.79851378364437,33.64685186662201,33.40462929932616,29.93566330828724,22.347782691156315,14.287912021476938,7.621477851496694,-0.8997335286736858,-11.832798305301647,-22.64435748540889,-33.076269797140576,-44.15120003815389,-57.49957279548615,-74.41181688341459,-88.1614453812557,-84.49393749047634,-59.33161631955376,-27.16355366567356,-3.9641836680901754,9.351604998110231,20.919768588199908,33.5711769668636,44.59458614329377,52.429643842872004,57.32496728926153,57.124813551091435,51.012493508942576,45.15726254989363,42.822260277096845,41.43688399907472,38.0909651678803,32.22908618074516,26.130430368172316,19.179978345417926,8.597440473301011,-3.76981275016126,-15.682746828011114,-26.838902586776612,-37.03367394808675,-46.344856299767976,-55.29823309464021,-64.99078717675431,-77.02861976439023,-90.91215560628113,-97.6015746193002,-83.34605358758638,-49.35831377430128,-13.10437189180915,12.23271372795565,26.30568975910262,34.1044266941984,41.43718612486929,52.17396667216181,61.948200162230386,63.34780282306239,58.85329513469802,56.09848252294101,56.95260678201059,56.426243333518286,50.05919200631189,38.70706722131253,27.104722195201482,18.823384573016977,14.159686715914045,9.490576398249411,0.017902128907596376,-13.381271848034356,-25.67524639546488,-34.10382010702698,-40.910450279071945,-52.973458377258964,-73.58499401133832,-95.23135749269525,-103.23288023514725,-87.44486350044124,-54.99977530394807,-24.09533698748833,-2.641625201460911,13.245802858236354,26.335440714678242,36.140703356242874,44.28918911278459,51.56723378002296,54.35325757407019,51.806774330210956,47.72165804688226,45.15270464789348,43.47353775639849,38.72878898976296,29.121394260402436,18.76429949626042,10.597922151363713,3.1718402340844274,-5.363569454602276,-16.804003770506785,-29.695024855504297,-39.388074348805524,-47.97472812915987,-61.72392831831793,-77.4408705916811,-82.10415173584623,-65.35082125841163,-34.25208068422203,-9.277522282458296,3.230413239729558,14.446613690031525,29.870851724728645,44.96694966348905,53.33493425916322,51.97373174051793,46.94163046734019,45.406209121847326,45.75003525346748,42.63522133722915,36.517010181508,32.04044193545079,29.42257830498231,23.49141585537543,12.052339684269581,0.1604390014119717,-7.364162943770152,-13.976882866572966,-24.65932365819601,-37.96182289455342,-49.79783445733268,-58.62065298062847,-70.17534279239841,-86.79392994642022,-91.48484852127021,-69.92196658221623,-36.445300945517424,-12.370898676229256,0.7673146142342728,11.791702713992652,24.597158110774096,38.16271018429061,49.96703713778771,56.421386610535855,54.7724467442699,49.102613423165096,46.400127659669586,48.15624999112867,49.8425988137303,46.55780932763548,39.46194984786161,32.247706254899235,23.810338647385535,12.506935788068233,1.1281738805426484,-7.5488352598031065,-15.628482260594394,-26.650295363294557,-39.651461121108134,-49.908266156143604,-58.12496876931353,-70.4004045318396,-84.24062328350085,-87.37750369848459,-70.46064858959856,-39.29231661016676,-11.337016906230565,3.5828545950589006,11.210105717251636,20.786159220417655,33.424782036998145,44.625444332412656,51.06406737396208,51.84279772664045,46.849122599142405,39.28854404739834,36.1924532383942,38.483975735220156,38.35086728700642,59.0,94.0,61.0
-66.6225432854626,-78.7594446495544,-84.77125012373295,-68.81389247309433,-36.759225447928245,-8.51949101002506,8.274161151827496,19.416422717193566,30.07314248740191,39.59915454142998,45.430239430091454,47.27439449635729,45.60159653792833,41.56868590367169,37.17781674337707,34.192461778992325,33.66384650381164,32.87991623645388,28.058827221391493,19.878238653881656,12.30452699179266,5.496616285736097,-3.9295119446491995,-15.037503998529298,-25.65192676003164,-36.16391366373533,-47.66559636732339,-62.091114524370575,-79.30572428440637,-89.44040898357768,-79.07511705155241,-49.86377064679847,-19.175637235895984,0.5629507854537044,12.57360396958193,24.552017513889126,37.04532956100847,47.18208151244903,54.16562624268122,57.952009179625826,55.78763630723693,48.98907662104385,44.185312197039195,42.47152030064524,40.76572612651939,36.5773752125278,30.408517488993795,24.374484394476454,16.504013622243757,5.0568761910275555,-7.285916524898733,-18.99335213483499,-29.885602363681816,-39.80273579849692,-48.93203194736479,-57.955816994395576,-68.16456438980428,-81.03323714361126,-94.25336308675854,-96.01418966236443,-74.9340409189233,-38.2835196715235,-4.4441972238947605,17.262380799554553,28.957700717667024,36.010386965119466,44.18831586926418,55.51191135084827,63.328213788309796,62.299255517734146,57.62856300292938,56.11464370006005,57.218109795019025,55.258026708090355,47.11770955476208,35.15912584670221,24.298942430443784,17.18026587198319,13.065824354800991,7.353524174378445,-3.662228419719128,-17.243994347917468,-28.521445363445398,-35.9819599754281,-43.54365476871486,-58.168398193946956,-80.32165889927128,-99.60874370698212,-101.19072445615777,-78.99330047572872,-45.23535086357703,-16.992245072473224,2.294368386851628,17.328152030502025,29.49631834823654,38.540825490345945,46.59361708885149,52.9942514100869,54.03912446493089,50.59794696393224,46.76863350525884,44.71370975331431,42.606674734797174,36.35669032100258,25.97221884979726,16.195577365729374,8.47150093511246,0.8983536357683922,-8.32178530087364,-20.597477761913012,-32.932044480319654,-41.65393757677942,-51.30282783362495,-66.52894388070392,-80.5725566978376,-79.57471848310772,-56.98410442784083,-25.639348288920118,-4.741703343667527,6.096782063483147,18.56823823732547,34.552938888452445,48.339165453538605,53.84658232032437,50.466299793217615,46.032259569292584,45.5780035502762,45.34105537554707,40.96917313665794,34.90771490885529,31.26885878871059,28.287251858113923,20.641035973623506,8.341451073584938,-2.476068697884231,-9.053752614561121,-16.596993375074824,-28.408442581511558,-41.702457450533835,-52.54717854758371,-61.30286550516138,-74.84377640557243,-90.43330250708162,-87.84959864018904,-60.31522189778993,-28.030629850610687,-7.844009467462163,3.8618841253075913,15.298959648171042,28.538350863275205,41.88310206368825,52.57400966491217,56.75319261421945,53.198524042684895,47.81064061472307,46.566880491801165,48.927814946708025,49.49639305188439,44.68781728024953,37.34173143301436,30.0715151517256,20.796968547938057,9.034286540160847,-1.6597343990466387,-9.749419224454646,-18.441258704755445,-30.393891560565546,-43.05826947496652,-52.21029103238713,-61.105794369268494,-74.68127614429008,-86.84477852446526,-84.64185729282696,-62.22494452058774,-30.14140701625088,-5.69901568266963,6.046121138316615,13.542197100245293,24.288995043110702,37.01345831425324,47.04254746243711,51.88938575174125,50.95653124610571,44.63723297784475,37.67543570452292,36.56298773915135,39.05981424662744,36.999129373556904,28.65476708695256,18.69510946121106,11.42611566049788,8.163079593583143,3.3599902104863526,-8.3064066421221,-23.057669709160116,-34.220549190685944,-41.882939818823296,-52.125163924257215,-65.75473730999857,-74.72213845001696,-69.90730495024448,-51.3499641808283,-27.49264185806498,-5.872193227887214,9.443130318472733,18.972185581484332,28.02469058964186,39.76475655626033,48.74492435357036,48.54419013251347,41.53769232028388,35.43928331016135,34.41324203605305,35.9059348106843,34.41874704264957,28.23627595414486,20.483788831237472,13.98126536680702,7.458166984558009,-1.4173081857919323,-11.390837658885092,-20.458059912504307,-28.14802684807262,-35.979507286597894,-46.76969204012678,-60.95219212399609,-73.81922658691995,-77.69544030960151,-64.73782272967075,-35.10190726115812,-3.705494629929929,14.490502388885384,21.382989772593017,28.01462126817474,37.165200246708764,43.83735023572556,44.277298747246874,40.75493924315687,38.350761649192556,38.185059001900356,38.18056481052301,36.51786411727291,34.71331834257709,34.052384801947476,29.53090365540195,19.281217223768373,8.075181308760268,-2.1010789034854493,-12.179349412118981,-21.731191368727433,59.0,94.0,61.0
3.1196960245637375,21.44650838473612,31.216508352426658,38.02909650175776,47.27663060797831,58.54957567072079,63.87919800719436,60.939605967038,56.72510863493021,56.38845359659679,57.20474455939285,53.53450997964328,43.83757003834618,31.72517717419707,21.822540878842517,15.820558742988593,11.834962090913514,4.719111817470026,-7.568464986505585,-20.889798082242706,-31.01239958762845,-37.83901785176415,-46.814445189631414,-64.07134755712285,-86.85285935045319,-102.45349670787326,-97.0192061300833,-69.53820432525626,-36.05011455230201,-10.691598319265148,6.912771589984161,21.184017506199165,32.36756519476205,40.882370796783654,48.791708230489384,53.93071519780662,53.32826780746808,49.37250367811668,45.99185783016547,44.29072784659366,41.363188405984886,33.594989576439694,22.908742853910468,13.822164737344721,6.348482845763128,-1.5043842328718833,-11.573021082014007,-24.410642307846537,-35.79112239902189,-43.993600416568526,-55.18830260250431,-71.28774677264593,-82.40366075919694,-75.09378485859523,-47.82324536611644,-18.070020264840736,-1.1294360051421108,9.194983458268933,23.02928309733972,39.05184096708972,50.98878941710582,53.54078915699049,48.89737518244903,45.52618527106938,45.771107853948834,44.52833419247105,39.15015787396299,33.547581976009255,30.584152908277016,26.71808844533659,17.352310657892417,4.7791727938947,-4.6875618474059415,-10.846519769341848,-19.621588350498364,-32.286033369145734,-45.21383425719645,-55.056827897884354,-64.44768812513902,-79.84888644983793,-92.44725454635575,-81.9062552357495,-50.351736225556905,-20.798000470782835,-4.039452695868753,6.98569517484166,18.97892531622265,32.49149038953848,45.39271034844679,54.62547712866558,56.37616239310785,51.47489364779018,46.91384981483753,47.069850338511166,49.53862456201059,48.644879401357684,42.61078827939494,35.27130293542473,27.71271348811812,17.538771170187477,5.6695814843871215,-4.191576080828147,-12.005765797289662,-21.5646990547463,-34.21989301928525,-46.104198625601214,-54.47078837392426,-64.57005216980406,-78.89434923000844,-88.20255620928998,-80.09378018108264,-53.126662827583374,-21.728358635856704,-1.2231001450549357,8.168855738534045,16.21714559026535,27.976031039778242,40.35735887953118,49.01344314214851,52.23311805833857,49.587064608454796,42.347087191851536,36.6235976558352,37.2842337224523,39.19807112470932,35.07404167054513,25.72088688347283,16.166610979750494,10.182618930065145,7.2974277840090265,0.7027661041369204,-12.598327795846991,-26.82395412314451,-36.560096609744335,-44.34693324993228,-55.94296019822548,-69.30647048832505,-74.97701081070925,-65.6605019787261,-44.59312099935027,-20.778035503534,-0.7115186792303833,12.616427065233113,21.366244345679114,31.22132072682591,43.033761997079715,49.71406421416122,46.89528533010447,39.3725206844588,34.615841743741676,34.83463426786676,35.97445625001533,33.03459362712611,25.975810591072985,18.450227297371534,12.24256030176197,5.1496082959917615,-4.301250151422762,-14.153899373854397,-22.798242232544123,-30.273424621565507,-38.69052587053482,-50.62964682665876,-65.11872068359158,-76.23403370939255,-75.93940114998107,-57.47500564918375,-25.335564126730706,3.1811179981923536,17.148448611916734,22.963315084564325,30.562634093909875,39.599064775008024,44.62971841665574,43.42237751954638,39.794152661155756,38.14149323499979,38.27529203458551,37.88982820136335,35.85554719108951,34.53100283637069,33.40298025803266,26.995815348048676,15.939806137215719,5.074063744289056,-5.012430548886063,-15.036497569013902,-24.28178095421528,-32.55561921127187,-41.48620902742727,-51.866425931295474,-60.69131215668483,-67.64969320839386,-75.83625404154164,-80.6655232939881,-68.60006920654175,-37.76247798784284,-6.0970768814414065,12.142514625263736,21.570750484414432,30.747637742193785,40.186929477588436,46.01537577158463,46.99406983880036,45.246179760582216,42.882995485979386,40.17017253959066,36.53700079459442,33.59181798209768,33.09387190940991,32.74757545949089,29.796277156304082,24.980802548919506,19.445201049158257,13.028031158042735,5.827772764471527,-3.1240636012300183,-14.549475576067826,-25.89514508280807,-34.47016264044993,-40.51882067403986,-47.208352775089246,-57.17836385711929,-69.08461975558933,-75.28960288258529,-64.8543220959742,-37.56046569820528,-8.415487211353664,10.403679024947778,20.04359649600345,27.63492635864011,36.32147743224821,42.71718496592344,43.663353425085646,39.53246409652465,33.28396352170302,29.22420988392087,29.28152313246352,29.377284254334125,24.87662700012193,17.58180959353027,12.512344879820937,8.678162431564301,2.6504163216678003,-5.052749712611625,-13.46783526908137,-22.40732979417109,-30.295351431047493,-36.21164550239694,-42.1533090991953,59.0,94.0,61.0
47.489583738628,45.38029659653759,45.81831525871766,43.31396364416906,37.323910958024136,32.458699648495475,29.83519925095974,24.633470053833605,13.761744008781207,1.5252696582939946,-6.567241206566405,-12.905835610489783,-23.002501026421495,-36.185990463009546,-48.426313201545376,-57.477332500695056,-68.2154689556221,-84.73888690686768,-92.3373382180977,-74.04102865225914,-40.66876656875912,-14.773614879828983,-0.6904632516063258,10.23610095220392,22.80028122389157,36.39606030668789,48.60939833375443,56.01991692375455,55.389566428351436,49.80491707373423,46.460071578669854,47.79045486727589,49.84106176928097,47.31244326307094,40.45504037382321,33.21232618799294,25.105920744873593,14.113347851791504,2.5038966361761377,-6.520028421618494,-14.429578776188723,-24.98630992746084,-37.98117761097922,-48.78017104167794,-56.89748313153227,-68.4820361692334,-82.71153629516881,-88.03090640223928,-73.84716204525759,-43.65067077833886,-14.345600021991306,2.252372963400105,10.222658236042287,19.264782569399067,31.71780995227878,43.368033998066124,50.52443203219494,52.08204433876133,47.79240414515455,40.184552929525644,36.19102742745287,38.12494112822915,38.763091586352914,32.68612001827919,22.783786668022547,13.956812805368426,9.258162288240303,6.090065597926078,-2.5870757846439894,-16.960715643459995,-30.154301231745812,-38.70539726384815,-47.1959908027813,-59.96092192762432,-72.20425630993475,-73.89777508806077,-60.391719721010425,-37.63546270021595,-14.392299303767128,3.8496068147600244,15.37710957092209,23.886569253182714,34.65095844579583,45.84975778769906,49.81778892477311,44.836384608730384,37.47976108260596,34.25280339982845,35.340387956347286,35.66259417297565,31.27943162730991,23.691204974878467,16.559897198415307,10.423974687117424,2.611988416609603,-7.209288008977638,-16.80751590491847,-25.02529996355702,-32.47143501360499,-41.71990379131773,-54.74147282954127,-69.01132666344819,-77.70065334694037,-72.5884137915788,-48.96124706058252,-15.923313933745584,8.715837672641387,19.102138050348103,24.784207497592938,33.25938331931449,41.675104454314805,44.853431541900754,42.3614695131825,39.03788060375795,38.09205082280366,38.31814921996604,37.42587098611372,35.27403161078957,34.41870957521718,32.25244566966532,24.039045456305438,12.65912325817341,2.142077427387435,-7.932514528197207,-17.82359088537899,-26.73746375850831,-34.96219705796495,-44.42508266505167,-54.708950038436214,-62.74936101233572,-69.84054618443162,-78.12433164052726,-79.42890591381203,-61.085224383438934,-27.733158631866605,0.6544601317751957,15.284812249949612,24.06678655054251,33.60469905869167,42.38884152297776,46.733492345454174,46.65336902693775,44.57382751929945,42.17146941701308,39.20115118607362,35.48622110472634,33.21825336655225,33.15262361765905,32.19183335289772,28.50888311077835,23.458956917657442,17.680010627488294,11.034987823502336,3.5016740183224315,-6.227070648562176,-17.99588734844271,-28.70868120136198,-36.38044278492542,-42.21656314141886,-49.71765612849443,-60.62101155737932,-71.96966780598433,-74.337072768774,-58.226785203324496,-28.549410926189207,-1.7444865138629395,13.836151067856017,22.161700628605345,30.10186275321305,38.607526661649075,43.59808877269181,42.89599455190056,37.77045734998153,31.696966028162358,28.898722989498964,29.575886950873244,28.623241397159585,22.796565489949003,15.78531806570364,11.474540488851398,7.2127892430365845,0.5157989313678305,-7.405597460416158,-16.03974220480562,-24.880786875209303,-32.17421733933419,-37.777530268525986,-44.35492706794628,-54.426757616852996,-65.09263046346848,-66.31532840055563,-49.182751550549,-19.105929904609916,8.93431855351445,26.272802103398714,34.1657639286141,38.71023178831309,43.757844586946,47.43815647655261,45.7259614317679,40.1572440223765,36.1722103716275,33.30221787220758,27.991127878316707,22.969644227436824,20.798587382766705,18.10274266614282,12.03377147321324,3.2614093413438745,-5.911140463198118,-13.741854850278758,-21.11602923095023,-30.076733192321583,-39.93081561153569,-47.5686756022054,-53.666723830713565,-63.76218694297037,-76.17062836491695,-77.18107309588873,-58.51827775674223,-29.44945251049732,-3.7352657922314916,15.213861405528483,30.177485706673483,40.636949160462805,45.84390834569996,48.62122069996569,49.39087329981865,46.98555603514686,43.95860735566824,43.899151034042504,45.837600145977824,45.412216082811746,40.126865175703,31.613117213898057,23.29959292340295,15.388544499287553,6.411462733401213,-2.4782924117127325,-10.526239070090655,-19.076196595110165,-27.735174362797192,-35.858548637068544,-44.36223307029766,-54.81870850305687,-67.32126000739464,-78.6880271413833,-81.73801063596976,-66.8050144808092,-36.1608801202402,59.0,94.0,61.0
37.69846729089659,29.974444198699977,19.94492967346118,12.130608153295839,8.505836039142231,4.363850960287492,-6.408981764102801,-21.195476022246464,-33.0326775068128,-40.84492790479525,-50.47568877829152,-63.97376035950914,-74.18312654593589,-71.46609911284493,-54.33688426382588,-30.665894438555288,-8.442827174406807,7.80951577906737,17.868926987816664,26.65040521808813,38.16857538172282,48.01112806382934,49.110618720786576,42.58307497541278,35.978879463722876,34.28942520243716,35.77274382448073,34.91429917189882,29.24198786828119,21.4693974702776,14.780854816767828,8.44304781786846,-0.11423868231779033,-10.086391669855567,-19.336227899982287,-27.171975243739897,-34.82229633998376,-45.09638535461112,-58.98908812127128,-72.44400272122304,-78.00470255731817,-67.58716449445426,-39.585149930934875,-7.310157387494368,12.93976810527948,20.68832305378209,26.923490519331597,35.960639400606986,43.27924250737729,44.560134812695445,41.24792374118143,38.51496928092144,38.1439177768138,38.25718558866169,36.82291219557753,34.84871215357187,34.22232385942062,30.523447966472556,20.81420124923756,9.49341142327923,-0.7624615429615516,-10.845471873723184,-20.521040701466134,-29.11981852050273,-37.48923027158064,-47.461935459031814,-57.32253926826922,-64.71270929088816,-72.213944042528,-79.8817717355152,-76.41334750515465,-52.189374589883116,-18.21660723932199,6.1233869249885995,17.96665548780366,26.68753968319084,36.41313362425284,44.18686479852095,47.067647639030575,46.151137936680556,43.8901871120447,41.4143901563279,38.14597796143897,34.56674224111684,33.06382414866385,33.12321182180916,31.381093190930056,27.11926893939859,21.880570490337323,15.837930803544689,8.982270369868266,0.9812337971482054,-9.526570270277183,-21.342365745166294,-31.24805129914873,-38.11607636576642,-44.06935119715324,-52.538697471697205,-64.14955061622952,-74.11959455563169,-71.73003245808648,-50.370957148771154,-19.85355083370813,3.9014358771664717,16.644944252740537,24.29500062387735,32.65587729754564,40.57905039705544,43.98072642772888,41.7466888392186,35.91908689785029,30.412349220977514,28.90717680400078,29.720815639765046,27.404039513837134,20.61478107227224,14.275449533761536,10.433801545842865,5.5087310334040325,-1.7061507340594546,-9.819019959224837,-18.642675130095736,-27.212098467542035,-33.889982042266084,-39.42314223460406,-46.88593236864167,-57.781528481988865,-66.95819693934529,-63.351410144601935,-41.180580260140324,-10.206802123232897,15.149717660300498,29.282085356447208,35.55727647157421,40.09039193451715,45.1697279394395,47.58071817880627,44.25930067937677,38.694578808012224,35.442383229940674,32.0295109224696,26.281009735334944,22.120855799297885,20.27004861710626,16.722073153833296,9.6859035781651,0.5461455841953379,-8.33471285710598,-15.80985602711626,-23.50157796806471,-32.95637701345463,-42.47514150438749,-49.265387707840254,-55.9846212969954,-67.5663808748771,-78.30762180454873,-73.69941214298458,-50.48096518051581,-21.28574684204376,2.3116355427356097,19.883800025233594,33.76543859971747,42.59214021327623,46.78237821718379,49.13638447260707,48.99254970855949,45.97508423155224,43.56887767601758,44.43111363412323,46.13746322285321,44.392822977770535,37.832184403471096,29.09570446854935,21.06014018126255,12.90871115188827,3.739802372785187,-4.834075789680692,-12.916138978623643,-21.62298929763183,-30.12365846546193,-38.20516606292495,-47.128264126914225,-58.29592183580017,-70.94745865515651,-80.87363358648014,-79.55605351943913,-58.93373914073044,-26.837760571033826,-0.8823946885288938,14.048894390830203,23.250916332229593,31.160344151881166,39.82035494205654,45.778870306702906,44.304100676447206,39.49322606548508,37.919771522663275,37.554058154450864,33.910042967951675,30.388644479023178,30.927274641790195,29.713099560281382,21.31061882609046,9.205280166729887,-1.303189529828078,-9.158264789996121,-15.639386935823467,-21.545002928193664,-28.762574051762012,-39.66971354974738,-53.431235546351395,-67.16783766534006,-76.18927648293231,-70.5345940777186,-46.52993608888907,-16.547584268351915,6.244068109822792,20.548879005536943,31.348540732190862,40.42482629658018,45.3202765435374,45.30161410668493,42.33899966532299,38.58299438390172,35.183424237605465,31.308621111211636,24.618527485342224,16.450919587588274,10.791264261112019,6.260905641345233,-1.1274374654514876,-9.69726054079688,-15.119789087930954,-18.946671313398596,-24.192307207373606,-30.14817808584555,-36.24066439874821,-44.02454843961872,-55.98790515609471,-68.40168044803106,-69.01640352520984,-48.47036627651618,-14.120813642694964,16.739494968565737,36.4019812723201,47.14698170476084,52.18758798098798,56.76126417623757,63.524299598634315,65.41750569608737,59.0,94.0,61.0
-23.11835494561845,-31.46861957443888,-40.18366630773992,-50.49767995105165,-59.68237507594144,-66.69743214918756,-74.69914151152012,-80.70962033735144,-71.49588588613352,-42.41006563272012,-9.647409627468875,10.458665423050997,20.44303223446868,29.442976312445296,39.056148815111754,45.54136400839112,47.079129663121954,45.5459549073643,43.20291227949196,40.583930477612356,37.04386197121604,33.845546915334296,33.065509199109776,32.91839978822532,30.340640737338124,25.666531391231832,20.231815744154222,13.9283656902912,6.848884930947954,-1.7720520661763965,-12.952140578795243,-24.510815910362794,-33.51313489282546,-39.76226715220622,-46.15390621445443,-55.654977132542015,-67.58975200897137,-75.21988598878282,-67.40672005123257,-41.701696536882544,-11.82397907708556,8.559798644786323,19.030721632578384,26.545466979706656,35.19240952980883,42.14735629476555,43.8717004624823,40.28736277169004,34.088298675626454,29.505740450786423,29.138687624528394,29.5745325763647,25.755486539389747,18.497208065604898,13.024270546714575,9.275891288829959,3.592047743286346,-3.985508786507416,-12.300848037622707,-21.23251537318885,-29.36636073946347,-35.49238395448043,-41.23717854489547,-49.752276866707504,-61.03993291939415,-67.72769369729245,-58.70949432464268,-32.4149515152939,-1.8478537875331382,20.366621698991096,31.617252259431257,36.8326244479853,41.557529778816246,46.36106295330276,47.18935196740592,42.59298234950417,37.49102107490059,34.69585460853958,30.500205203799265,24.737503221447415,21.50492412868138,19.575623174717613,15.028271248468414,7.156863487190922,-2.140777012618009,-10.616660719056586,-17.897219051650282,-26.058887558254213,-35.856155605530226,-44.74562788523855,-50.929586321626644,-58.790819399218464,-71.3812930108523,-79.07110475982446,-68.53896843301818,-41.96074874812221,-13.681940705282999,7.842524795560394,24.283447410450275,36.9140686600292,44.13340622518621,47.60615398692306,49.43859988680669,48.32014990362636,45.02170570975187,43.49289241339148,45.046328564847386,46.126975316523406,42.941257263757294,35.352513352875526,26.67063527771606,18.80992954729763,10.317557235101688,1.1369385940353798,-7.139131482873215,-15.380102672298085,-24.143608945815547,-32.46701234195749,-40.61980931566091,-50.09596883912091,-61.920342567026836,-74.373665055241,-82.13884154442822,-75.63434489734558,-50.01850625796169,-18.14594041386961,4.379137596445773,17.056409846895,25.520469155060695,33.60542357852333,42.1191077689842,46.12947910692162,42.87423682628259,38.61226963843569,37.96831034796701,36.85835634225494,32.56768690698341,30.209443731621565,31.15298840765681,28.014123406665814,17.906303675039496,5.870158125262746,-3.7926892818113966,-11.128147945253158,-17.363366841980877,-23.362882466732465,-31.493634018706246,-43.47830920933175,-57.52779644264143,-70.6180305233953,-76.52016380287408,-65.18857856799336,-37.72325800526509,-8.938580464982305,11.051329748824177,23.832277511327607,34.2274660483586,42.37154145941283,45.76166398508854,44.63994335374209,41.25931549659048,37.5537732949044,34.21588410382186,29.72445027600395,22.20565563892185,14.48053263905246,9.580241643624122,4.491631551642243,-3.7225687907028875,-11.650928666824155,-16.192265645227103,-20.296950069574137,-25.902208272593807,-31.87039846184377,-38.185416016350295,-47.023180952249085,-59.96098875409999,-70.40687196314832,-65.30378437459242,-39.197962589463295,-4.214191300513283,23.54836202302404,40.28037995001252,49.01330052943205,53.28779435871277,58.63849030197671,64.99272871653982,64.09607951881748,55.18572827721004,46.23749677039629,40.1161279028345,34.94788926140782,30.76848060092766,25.968902418552783,17.781523665372294,8.630898651731327,0.2869370840096263,-9.750726410062382,-22.331159602527432,-32.34533394608681,-37.08056313297605,-43.24171170581271,-55.19801229967634,-67.37727406391213,-76.1359230594001,-86.14955641743144,-98.50170087347585,-102.13094702042906,-83.29758360302198,-46.45187731976461,-12.352365688533357,8.77919222825729,22.39213805107877,34.094250153459605,45.23808918420927,55.6797972884457,63.3201100255786,65.01722867974608,61.42954679533198,57.18578064791041,55.116763649449155,53.47622219520257,50.20349966875119,45.591906368763155,39.203161505571785,29.90624043953029,19.725957797619333,12.483410105514011,6.709387171946459,-2.1004285894897663,-13.209501591958375,-23.198410059926207,-34.504876045927844,-47.04800591476484,-56.326251388192624,-64.78825693465669,-76.5016716756132,-82.49829677335734,-68.14183861454516,-37.350113570679866,-8.587157935982324,9.385651274059235,20.792120818570197,29.7054204491001,36.83301146653521,41.898309644474615,43.49241205302205,40.17186130935964,34.718407698823455,30.687303278558616,59.0,94.0,61.0
-43.30106440207238,-52.90502568060615,-63.94903997748514,-67.12043419232832,-52.50438692657685,-23.30726337313501,5.7398764986115856,24.616433382853856,33.44589321209841,38.10411627819559,43.068622390350725,47.200861685636404,46.2895439151649,40.90126657562213,36.54261535377215,33.79658130109576,28.79815743893829,23.458190245715,21.01595847313115,18.634391007802822,13.03991084921857,4.506755573328894,-4.747753458173648,-12.775844758463792,-20.070208988854176,-28.778038303497564,-38.68106685938544,-46.733795298631385,-52.73660281493058,-62.09568613437204,-74.82545500967505,-78.18606726164788,-61.94602079519767,-33.35266381106085,-6.724463278146133,12.964673347754042,28.393676821063007,39.576632586675885,45.35756138941424,48.32883474881553,49.473930617701825,47.43754310126087,44.237613989053,43.7132941477248,45.62064870176477,45.73471021092933,41.093925335931864,32.79338859782451,24.345118320578923,16.4918932188336,7.650862970865128,-1.3624165883211568,-9.447458137134136,-17.90244922334998,-26.6151292969458,-34.78778330059186,-43.14716996128337,-53.27949256595388,-65.61778695934672,-77.44445136362306,-82.19592920495379,-69.96656010529068,-40.559124756578704,-10.36924164105925,8.790056270495272,19.730892859083312,27.770069794989386,36.1381252074591,44.02846009510345,45.79344457089301,41.375289529513495,38.10976959113319,37.966460376704475,35.82288038959041,31.41778220595625,30.388108833286605,30.99240320543889,25.670206543897606,14.3536967396877,2.767631116820498,-6.082656253590861,-13.013525363728942,-19.051800771764103,-25.362110568930433,-34.57680451763768,-47.4606884129214,-61.56134930594043,-73.517134189293,-75.32636373481571,-58.38103751187152,-28.85470955275764,-2.1531342775788196,15.238225323603098,26.957030827324047,36.93881091522147,43.89581871070365,45.812563498126984,43.794331760867074,40.15931562587624,36.57018672751596,33.162763131705674,27.843756064677923,19.771448165082003,12.801237176425252,8.352267751138024,2.404920130644138,-6.291228662815849,-13.264868358793592,-17.244301778783548,-21.799034336234588,-27.62896294425432,-33.60765564346042,-40.33500328912051,-50.42793918629745,-63.778403192163076,-71.06650665799167,-59.69574754190187,-29.156466619107277,4.9827157707566325,29.39567590870785,43.50091552446165,50.47972795492628,54.51464074288477,60.681732176193805,65.78518680545436,62.03288064405226,52.29814720670334,44.263143671100494,38.56036560624204,33.627686549935234,29.621328406620073,23.944032407327246,15.058435054485203,6.202720695488378,-2.3073199553409802,-13.247353204916172,-25.78308965617763,-34.09629333536805,-38.33023153207595,-46.20466032330915,-59.03571591134905,-70.14814184513185,-78.6549189327441,-89.73815075443999,-101.18104906582562,-99.29181961692086,-73.67461390945606,-35.473728665588766,-4.983185992410025,13.126550081831647,25.86721459302608,37.35286244383992,48.37281726582844,58.328938314829635,64.50218800050257,64.35178846791574,60.061064576766476,56.36795331932883,54.73910655684342,52.71119880303573,48.98854727475262,43.995913331027495,36.81354917886676,26.858702357057744,17.257389959136013,10.886870937984408,4.589202746946029,-5.278820333090868,-16.216893675749734,-26.159656021975888,-38.233450336878974,-50.13136480813,-58.56167845668208,-67.91349633920049,-79.58743161815909,-80.75686321992677,-60.166012030750935,-28.110722249303034,-2.338020747022438,13.086138857855056,23.55721186608516,31.95109646270888,38.5373534993511,42.82072833857053,43.00608553149973,38.610445002404646,33.32441193842192,29.962248104188323,28.513843909391817,27.092789483776063,24.524906499653504,20.530302625171952,15.554337192933385,9.851538460873394,1.0977195439632597,-10.537799759251504,-20.69751608852888,-28.8978883524376,-38.69106595361986,-49.173766385650524,-56.51942367678993,-62.506831011697216,-69.11354296924037,-67.78423946111184,-48.18994557881247,-17.278726745543764,7.9392511393628755,21.967030586839176,31.336722500641407,39.75064829240717,45.843341395938324,48.41223842823714,46.25640030470769,40.73625530787903,36.30964241068543,35.58968793056078,36.890443062308115,35.44248429621965,28.922492751593193,19.850628289148652,12.505868876162067,9.017974077250594,4.513531058527552,-5.0203106720467,-15.549895748634253,-24.455358784277077,-34.90025445602799,-47.49248858876608,-58.654987409717535,-66.66881742690173,-72.75926517642841,-72.47603763648885,-57.19793751933841,-29.909725097753302,-4.3584973171607,12.370626975044292,22.240290916089346,30.131946959522285,40.167690548972864,48.11751050817323,46.92790875092406,40.20398389854231,37.442539557762295,38.68758255251254,36.90987318339911,32.46679238559958,31.103892873729357,31.158340857315665,26.328712608591964,16.401053785383855,59.0,94.0,61.0
-31.080426236907343,-3.635088858667095,12.516484109706058,22.175834949347305,30.069396623774406,38.68076061034094,45.37899064945951,44.87551372296174,40.021838337056074,37.928339226771755,37.75518834417953,34.54114231505534,30.615737574317478,30.75625328636246,30.26750506299201,22.783821363000737,10.805059790382968,-0.07720594072714226,-8.216370249604376,-14.825941455816368,-20.74573413072522,-27.618480875500346,-37.994390282503396,-51.538438591725345,-65.45281988090788,-75.59309847838618,-72.44423372904306,-50.450037015504115,-20.30179770771316,3.7816754633249676,18.953704447732136,29.983003318808652,39.39892023766749,44.97346520094505,45.52833915861327,42.81889724395191,39.072633336778374,35.61907223164847,31.946052904253364,25.68698314957308,17.450685546617816,11.381323948839606,6.975941754204416,0.035389077646217015,-8.685292825465979,-14.584773090600855,-18.377858880414543,-23.418698093778243,-29.354381503711345,-35.39045304912516,-42.77755047010106,-54.17881157133327,-67.11930770520317,-70.08353962049732,-52.355733565102454,-18.83946482633828,13.260582785987754,34.372817172488126,46.1229681594711,51.680222460351416,55.985519256495536,62.685831353672405,65.73882552248459,59.434033717474726,49.62191794268235,42.49265381878901,37.04611951012737,32.41389217098356,28.33071875959901,21.601653482097735,12.37082293536829,3.8273876151978325,-5.128590513910165,-16.928483353201045,-28.832846139991815,-35.43773859486659,-39.94033821077274,-49.65204155216299,-62.67452061577497,-72.64842087996573,-81.44710414271276,-93.44760854529979,-102.73579937557497,-94.2981769383014,-62.926588713143154,-25.27661902125039,1.2683116117571411,17.066106714935422,29.255096240765837,40.57970149684721,51.43479401416651,60.66602935445435,65.11732032643108,63.32093887543815,58.7681865983949,55.75587029728938,54.31349366212597,51.789245095683846,47.68255637537946,42.217919550064295,34.160525327376064,23.836616395465164,15.113336495699755,9.30001648169284,2.115869136661878,-8.54550959497754,-19.0799382809993,-29.360281833201245,-41.956767324907496,-52.85330742789135,-60.88940207343878,-71.35608331129511,-81.79467635926832,-77.01725419355535,-51.18152349631955,-19.512691289792077,2.9792915720836812,16.407320649096867,26.163126940892756,34.047994692584325,40.06068514716447,43.39687063816989,42.096236893967266,36.98981102809884,32.10734436027978,29.413906000613544,28.183633888612178,26.48420588131569,23.524800181151903,19.139286022918522,14.05303467775072,7.735997470467291,-2.1324772340040505,-13.78545544202521,-23.115465776979818,-31.46340898729531,-41.85615632015499,-51.672212219766365,-58.1813876642669,-64.49927584479741,-70.16560357602637,-64.10056497629557,-39.64433343451268,-8.828185406300921,12.954880925068117,24.83391650061136,33.89711241937029,41.814002969285696,47.00199487252083,48.300466084462016,44.8303658467421,39.15822991508877,35.706944374340374,35.94621805981397,36.95813832700763,34.03502469267041,26.388409222863444,17.35681864682618,11.186043271544664,8.143793646244157,2.215789769861487,-8.21681029515968,-18.20057696493153,-27.17403487693352,-38.44094688386708,-51.029979030942386,-61.24075825406829,-68.64073707946996,-73.75634829745343,-69.80777449967773,-49.989933298381544,-21.797395664564963,1.390776644286561,15.74904899947635,24.461885006838315,32.801050392113936,43.080098474960444,48.814497802486414,45.09091395520883,38.74198620427668,37.69671828375996,38.699747093472766,35.6067750527379,31.645489046149965,31.257801741220305,30.46371227417324,23.754496325500632,13.407372317149745,4.01470242262227,-5.72975625860599,-16.605649276336944,-25.897853664567734,-31.80853185390238,-36.88364894041136,-45.258457004460745,-56.758371421753715,-67.77757045268963,-75.88889222069012,-77.36306334735877,-63.93005236174071,-34.32068026980504,-3.1038020395467933,15.596932522679936,24.895473671831596,35.43581221828741,46.5573176940174,52.86180122453321,54.47089250391507,52.58925701972324,48.46414216177286,43.81661672892166,39.06766052649481,35.20353974908686,31.8374958217371,25.449841079373915,17.362873879452724,12.739158421630535,10.825194875489892,5.494939951697162,-5.330435920161448,-16.823234729926437,-25.23390015561153,-30.965120881495572,-36.1911800907337,-44.160274209256144,-56.80682216238744,-70.444804292548,-77.58413372841821,-70.47380601664166,-47.46421784243764,-19.6192197816419,1.3193962976320917,14.901657259272344,25.165680900630612,32.99989152095814,39.12711346105376,43.16837251297606,43.061426116886025,39.24547148810851,34.30824399390091,30.296127804101726,26.821087899830886,24.929068921297304,25.19779624136039,22.983520557400368,16.83412790720463,9.784880351464722,1.3648488991059209,-8.61680579075997,-16.631715698540578,59.0,94.0,61.0
