24.387433528448277,-219.3160354079288,-208.96399930114322,-72.42746440200018,-12.590530821924624,-29.76863975438288,-43.90966823716285,-34.149124607196704,-21.777694665282535,-21.683732207517,-27.92864574978107,-25.970745574964308,-12.305170083656016,3.195030659650183,10.079811925065805,7.971992139647197,1.2332513120868502,-10.612944968250522,-27.684379769975152,-45.102149235727225,-60.00707569712529,-75.8738104482226,-94.96444261556977,-111.46732277294343,-122.07932949858284,-135.90130134043355,-156.0478150808622,-149.39184338303463,-72.47504299446628,48.31313040331791,131.27257529614553,145.55284219345452,127.15722621962097,112.72689827645826,110.0926856534397,107.38393318234678,91.22975217750094,67.0887653280696,52.86423967074202,54.17994408789081,59.7801265849016,56.708368442835464,43.76298471938517,27.973898865767687,11.710715094322682,-8.180823871060008,-31.55872308807227,-54.18380268792724,-74.8247508139938,-93.48753240146483,-107.35923296253812,-118.22728625497825,-135.9210773873203,-160.90612349508777,-160.08437625583375,-88.10292831565529,33.70963028033803,123.27845045074059,144.19033385055076,128.7428407463394,113.23238985788876,106.05021177339542,100.90484475043054,89.48686126300274,70.91960060166457,56.75488951902191,55.869250547067615,62.35582530593436,65.1887507186408,57.902051071244784,39.93432380475848,16.23174245645409,-6.882549268926125,-28.869513721922985,-53.01576861076929,-77.05104567505876,-96.1000014455103,-112.55817115306952,-130.7512876965294,-146.67786348636378,-156.05023666342,-167.5613478953892,-189.74430413425284,-193.58617580339705,-122.56731479680346,14.24584363481516,121.60135796165896,144.4116969283008,123.57238822855582,111.1612630189902,111.07544239889651,106.9861677273441,94.52260714708648,78.99906323532652,68.09411499336919,67.77464606099986,74.74231571698566,77.51604304428533,69.66312528945524,53.820504051934115,33.891069317683936,11.87668592259376,-8.425465550136648,-24.964943338899076,-40.89267895572132,-58.371854399444516,-74.63812068938252,-88.4945266755861,-102.04460852284376,-116.40114446299492,-129.9768361846513,-141.11162901774267,-155.18410496350637,-173.47813269160864,-161.1800846579109,-72.44232928544022,61.45334697342766,149.34599286335376,158.21975647894266,132.18396072750443,114.98608303803678,113.15940614668737,112.301905303581,99.7087534423633,78.44194793780154,66.1728106877942,72.753712464636,83.04635846289221,78.38480784778903,62.3379486952754,45.372352369949304,27.450019542053976,6.0328099907968555,-16.864150464800193,-39.81788243714424,-63.59756183811729,-85.89190822551029,-102.5285239382474,-115.02725486105075,-128.34080986206237,-141.58924978519497,-148.4928581044321,-151.62970760312004,-164.52804230413852,-174.28824272411222,-124.41541011929455,2.2373021008054614,123.89089874616857,166.29925623849792,149.0390852239999,124.51051693748187,114.35722673931937,110.95541894002055,99.44069753730503,77.09618840363275,58.19754338631605,54.714005650421996,62.52321595804339,69.57743889665085,65.29028092759108,48.25360234404845,25.366628251811818,2.30045012765774,-17.8159022833073,-34.343820310276755,-50.35463791531789,-67.94053467888116,-83.75463707476709,-94.71872206077221,-104.34728364017619,-115.76030380198657,-124.15992847682122,-126.51332201808401,-131.47529621769777,-147.83803008081745,-154.85859270763743,-100.47802702738417,24.29198137895161,140.8136494617678,180.347718322058,160.55035478466903,131.47568499002412,116.13595788657598,110.16261866394454,101.65881394291986,84.5369452953582,63.945990047092394,52.15209309478827,52.64890548424502,55.1758698901316,51.12865359875376,40.369247124699996,24.27168402355553,3.3947421165255682,-19.53890172841416,-38.92726635378728,-53.00883642915312,-66.33381473620513,-80.71718505479797,-92.77970211391285,-101.80104806930585,-111.02102338646613,-120.53476856795102,-124.68366422467605,-125.4176688795386,-136.3616485825463,-151.10017118220614,-120.28279764596905,-14.216949139278087,107.11431424384398,164.87799684205467,157.54336360827298,131.0108468639608,113.37435567899168,105.64740079431532,98.49262059609134,84.49711656108612,66.96785053846115,55.03284675240741,52.06114756797251,54.631151621690705,55.885235357361765,47.9497032224561,29.93837220119047,8.645435602846502,-10.6620008335276,-29.52884559006397,-49.483135612873234,-67.25562289099118,-80.97730337029961,-92.36058359082597,-102.80069749255706,-112.23373244393837,-119.19944140830756,-122.63935339110894,-124.46913172753305,-129.63359693044538,-144.54859934545996,-149.16941678760054,-89.9315694597268,36.90856544539173,146.88094356207907,177.2320596009883,154.32429395339503,130.13521800787868,120.69821429129037,114.5777074448106,101.85548852793337,84.03439237429485,69.11209699611146,56.0,102.0,70.0
98.52687673602894,84.53610013984812,65.72928344021099,55.14452302867877,57.5017605957689,63.95095129764464,64.25717394869496,53.68439872907977,33.353026704490844,9.320075477848134,-13.193314190704056,-35.566369162654674,-60.24924591458483,-83.12983803356397,-100.83993941825479,-117.63800471337971,-135.92756955733543,-149.95774395578698,-158.47623733768327,-173.1601116298367,-195.3047581628342,-182.49586153314542,-86.43941666155649,52.69617105021038,136.4539150128361,139.86066635683443,118.05199653359547,110.63993295386254,110.7965231086394,104.0996188479715,90.03015795809794,75.02306899712733,66.823063954044,69.49151878442842,76.46034181780014,76.34434115378288,65.68413485917318,48.38848260806014,27.625448466024206,5.640015738154803,-13.52327740930839,-29.44032932538913,-45.84056334751276,-63.34635819760235,-78.81525092263027,-92.35071822208859,-106.12114120162691,-120.54164693447042,-133.37380403447506,-144.47505169358757,-160.68334202755952,-175.63573962687207,-144.04980535914888,-34.49462887526415,94.9555414650783,158.94331803198688,151.71472325476782,125.35340293670339,113.34587756834439,113.56233375253521,110.10540475138073,93.82797449406632,73.13469042393477,66.35165708300222,76.45497280277036,83.51682906114198,74.32449673328085,57.33447577820871,40.478510717112194,21.599247228190734,-0.5613598561748507,-23.459597296281245,-46.606826304455645,-70.41232613597592,-91.36069309991325,-106.32406832126821,-118.6620246387952,-132.4327959165438,-144.43935617086748,-149.2226672165391,-153.97058197487172,-169.65514957423116,-168.5869578354653,-93.62813791035404,42.7083093711762,145.0689990880402,164.90666763991362,140.98907427807552,120.0718401202514,113.38903514449542,108.94457286226795,93.70302765719362,70.47967430674039,55.511905087941564,56.29026220930322,65.20184257550606,69.79474644632946,61.44393890625086,41.91369760325136,18.557864297310992,-3.9136404492519135,-22.88317001249721,-38.84200632781384,-55.32866711890993,-72.92091717803125,-87.38840550393792,-97.37566255195311,-107.54075662669341,-118.80706318382225,-125.30031465322087,-127.07371947913455,-135.1224304296716,-152.88479409948758,-147.55628284158254,-69.48085805609807,63.24966997115733,160.90116434997006,178.35660251599052,151.39673937110155,125.47752038875079,113.99019592781677,108.4095186464169,97.60507296262772,78.42290106417012,59.171796171265115,51.31690744115897,53.72852528581473,54.80360375608078,48.617291434449506,36.24975412820482,18.67535064824836,-3.235319458513543,-25.742677722666446,-43.395359610748635,-56.727476168569694,-70.48432220707309,-84.58523211929896,-95.5870387233396,-104.3039816262455,-113.94106799639225,-122.4971953362584,-124.73002754612912,-127.02912207347934,-141.7377786783422,-149.51183379622324,-96.42793586924657,23.615919264195607,132.08718248271478,167.59596128756922,149.96013498875524,124.59945621726797,110.45623759356988,103.99086612141863,95.22984392771978,79.39154030340656,62.618794435362574,53.32699322198041,52.47062052047869,55.51791245198856,54.767952626211446,43.56702151382483,23.76998322956339,2.8196221337809426,-15.994782168175018,-35.271917169462135,-55.00599508748795,-71.6053937216732,-84.4040779975838,-95.46130273205176,-105.65953589989437,-114.59690326067555,-120.51749209195617,-123.19834964877207,-125.26158114824838,-132.95856006348652,-149.0748884030835,-140.67845217850277,-57.623040630507,74.80542631295155,164.13130444652097,173.46307226669944,145.92353157835427,126.1739059681847,119.22838612933042,111.72067848353493,96.92109141305085,79.06668060103186,66.30573368795132,62.80226311320743,66.8929182106864,70.39526140907013,64.6387356746913,49.690578091294014,29.806370211578667,8.144561440428546,-13.023118955256798,-33.270246597541615,-52.293689423329646,-69.25719252683615,-83.15330304101323,-93.09416543160104,-100.54425874334768,-109.40549278791418,-119.52839562718187,-127.35126920477599,-135.36081844742228,-151.39460042143367,-162.3387409116443,-120.55059447880618,-7.345491941587236,111.13153924152384,160.7744602386803,148.45306727945157,122.94942391729593,107.60453049980408,97.69285194063734,83.88001649658739,64.73366702855262,47.455216979170196,40.890910612171325,48.13295930155062,58.70572919493495,56.24503430284022,39.85922262232289,20.809757954108296,4.776595913095761,-9.78364034491892,-26.788265794965508,-47.57343109857817,-67.15889252160709,-79.91476934476721,-87.00022255839832,-96.36290473523906,-112.86924497196146,-128.48040343794366,-135.40284524186802,-145.41638925077083,-167.06804426352284,-164.2336088292843,-83.23309243586253,52.1838749251394,148.54805382536594,166.71709008509058,146.98046413693146,130.49415166388326,123.08261516330542,115.67381624106477,103.70047238041789,91.6643890468376,84.13635992262614,56.0,102.0,70.0
69.1012893387708,68.1342125105027,79.84149159173833,82.44387388042517,69.63958140734293,52.42905759550452,35.397354930912634,15.43971665529446,-7.194086060822244,-30.06507314037188,-53.48781847175725,-76.98876857666862,-96.27350438955246,-109.89413829369495,-122.47470073313414,-136.4072963293714,-146.58409658051164,-149.87806442775255,-157.51542423144602,-173.69458360084542,-156.18609389585524,-56.99567344292857,79.91456889837048,158.669291762753,159.87614463077705,133.46816636756654,116.96926331626317,112.6122030660681,105.9153050370873,87.18523338321043,64.63187609602561,54.252828356209,58.57014553747581,67.4983461305742,68.85121261710758,56.62360756687989,35.28635705447318,11.82897955504434,-9.813653546192652,-27.67156829380846,-43.40799253960727,-60.436734915955455,-77.61861195841071,-90.59263257055373,-100.07847685289329,-110.89024109835309,-121.40802840148919,-125.95452659471691,-128.18921825896214,-139.85110281721012,-156.20455735840886,-133.66738715098495,-33.30225704665389,98.8808082547552,173.66013304970238,172.65155468149,142.58218146071914,120.8270765039521,112.34310944730079,106.16633527862679,92.76779234169744,72.27202842097098,55.4485945811012,51.42500230631194,54.63839881408942,53.77257444510358,45.6013317105538,31.697556551585198,12.696800404234045,-9.938365020708737,-31.488442978384438,-47.46875992065736,-60.523264414382965,-74.6951330698715,-88.15307210447466,-98.18331478512457,-106.92458849167515,-116.81148490564237,-123.83684718151058,-124.70381893604299,-129.9029439681822,-146.86537464081584,-142.501354217963,-66.2612357792582,60.31264727409843,150.31151318838312,165.73868110751647,141.96486495575635,119.26712353576723,108.21520835457396,102.108174040032,91.28975533581175,74.1913342064834,58.959182394098605,52.355487548685474,53.22815114376529,56.08788393773917,52.71103305838698,38.42345299075567,17.540784254720233,-2.777402885226122,-21.39265288973005,-41.0851812381576,-60.239760516150085,-75.61492725894614,-87.70153669264253,-98.49358297992221,-108.42813912158624,-116.69534252914887,-121.54580447552507,-123.6855056996749,-126.50209791302247,-137.2595904079222,-151.77567240554964,-125.35942380343171,-20.612431573810053,108.61152352240117,174.0878938486543,166.66291292898538,138.49044717594214,123.39261690170324,117.64708778151837,108.17712318324301,91.70505496412645,74.55863508762752,64.30682895279512,63.43821634635148,68.45546117866047,69.86060150294031,61.068583234138885,44.298329551913284,23.600091238579783,1.9311207651193345,-18.966540779251346,-38.92609282349375,-57.44359895329622,-73.64303449568702,-86.43490391132873,-95.33941390819777,-102.83167205224521,-112.37096407295839,-122.10403273764835,-129.27963559728016,-139.02450377443802,-156.746836936124,-157.92129785136558,-93.73799178992309,30.639302951305865,133.92119027424786,161.42479561265486,140.66205350613845,117.36925488242255,104.67061772032314,94.36186705793043,78.69750648211242,59.12080774727522,44.145551830353966,41.72516314327865,51.65843738944511,59.78531429359219,52.48484009831706,34.19025102421005,15.848875608922903,0.5781293751461396,-14.279719917724853,-32.51667991541623,-53.67608121526431,-71.65807310774082,-82.27688161993844,-89.06955691081356,-100.50333377156721,-118.06615314707281,-131.24002231579658,-137.11090172806092,-151.03161918767782,-171.5747187407639,-149.96944986306062,-45.89141194337576,87.7156347066361,160.96126976995006,162.45754942927073,141.0385106801881,127.77848961151211,121.31703512922678,112.6269737584115,99.912621650314,89.00460273078278,82.7076733647317,79.90193891833916,80.27783991585196,79.46982020820747,70.81931577274273,52.342676116375344,28.1839797266481,4.4982234557243945,-15.2552149267355,-32.5536857033825,-51.502159064225324,-71.93140705981156,-88.0240183024874,-98.853168557897,-111.60727269905139,-130.54967373051113,-148.56527289782008,-157.46730262989004,-165.54468297615105,-185.84128492860677,-194.4233602664332,-134.5127560877653,-4.699833930638803,111.78439058516749,154.3086208910051,144.47257021588976,127.36245666718831,119.58386209087735,115.69554413817077,106.30991243626053,90.05291891512333,76.5183293098689,74.5805357843851,80.13627576354551,80.54695701825824,72.0577955563563,60.94750298468693,48.34272687649291,30.132509948775112,7.292284967196356,-14.141204182279017,-30.123734774018413,-46.153408657145384,-68.49214577627704,-92.98724044573105,-112.82446636740085,-127.79330557232466,-140.94976601087066,-151.20109787590158,-158.11531157369677,-172.89866768011743,-196.2772110941008,-183.4051609868976,-86.88458813954259,53.94591384581221,148.65686097615549,167.08215719756123,146.1507112855078,127.14614233304737,124.49434382830268,126.82136005553294,117.22963886051814,98.24064745651211,56.0,102.0,70.0
52.91443357785376,52.17874959243798,55.134102049866996,52.10120402595563,42.122293472770075,26.71331609795283,6.390919276399088,-16.560026713482113,-36.703402785796165,-51.29001795625495,-64.4636784919237,-78.8524546271822,-91.39270527235529,-100.66566597910382,-109.69722645897569,-119.45030266812265,-124.54244544162817,-125.02702453049115,-134.07454932075586,-150.42100727502938,-128.92315239804972,-31.333638417982016,93.5170579733722,161.74707160309367,160.63143549077193,134.29680482006953,115.00620536328803,106.40793532693932,99.77068593971661,86.74989999790753,69.16028610777408,56.08504689657954,52.02628853534765,54.17857171790667,56.11382927325661,49.67310252706482,32.707621456077504,11.40921822707232,-8.197829170677226,-26.925593893866576,-46.86321108865616,-65.12681544079409,-79.33838220863038,-90.90768081851208,-101.45750775308866,-111.07134617387908,-118.48442837027636,-122.33718010313551,-124.19330609298432,-128.44028377012154,-142.22038566884117,-151.08271202434042,-102.74185746258513,18.72933770761279,136.42211922089277,177.51547780971404,158.32525509603076,132.43125257009928,121.43431114601421,115.67455152810795,103.98157244875794,86.42640782317027,70.66673751039416,63.12425499014806,64.61793074845433,69.69391415122989,68.40131241228441,56.83041221717858,38.58618765207508,17.319155179140235,-4.203977219536938,-24.836646063601737,-44.463869964209465,-62.401873394026744,-77.7420133263526,-89.37123317726648,-97.44993550837323,-105.34051220343078,-115.36162673206961,-124.40305962798294,-131.38967895923182,-143.57124110066158,-160.9698585571894,-147.65175894015613,-61.25425708184415,66.62989088049864,149.71701532918766,157.96745912146577,132.93444177219894,112.80869160887595,101.92012720756348,90.51698521992873,73.13653230501963,53.900176798277805,41.92910578080014,43.70612961996545,55.03659677972831,59.4221779206482,47.76801512466374,28.587460253328462,11.17858942974688,-3.57642608390993,-19.087819554305376,-38.53649335502995,-59.497507837571185,-75.48654809156109,-84.27778301482533,-91.57382819383736,-105.26243726171228,-122.84457636194051,-133.21763627414487,-139.5951012688003,-157.5933933370239,-172.56778591157115,-128.05227227028266,-5.773918491918999,117.53127211851366,166.95274147967953,156.48033229104158,136.01753570783765,125.66002205875009,119.31213366214074,109.17842668964865,96.30936618109116,86.76302813367256,81.54715815396335,79.75868550063582,80.48847094106125,77.99194474256096,66.40207971407992,45.66537499015763,21.055861212576083,-1.6422869003438256,-20.327884065459305,-37.718050973366665,-57.46853019182737,-77.257021866277,-91.47256018921178,-101.96951108596112,-116.54965321437193,-136.37435877808434,-152.0961166716978,-159.07804623225368,-170.17425652038537,-191.9475972924013,-186.14514886252078,-101.51188380660139,34.535691107699975,132.0379827404884,154.58656664878578,138.89791238543376,124.17527091927931,118.51467531685394,113.84614206115037,102.04723953520858,85.31552319512704,74.65386373709687,75.95696542637494,81.24356696899325,78.7918181808478,68.86992163483696,57.64984326094283,43.754307564493594,23.797862675282154,0.6464842573395386,-19.262458680523807,-34.33274091343066,-51.94225296837415,-75.72722105021603,-99.34562755430022,-117.5020859665649,-131.71329121087433,-144.37873132240696,-153.26549062233022,-160.9423800258982,-179.80594280438484,-199.22795968280604,-164.43200014835594,-46.61064414552126,89.1301700426121,160.91597260633003,162.87436404310438,139.25567940327204,124.81079802762936,125.55908451404528,125.65457652097867,111.99145026497088,93.58517356423364,86.81937019537733,91.70919233649649,95.9035750269207,91.40012106571956,80.1918790888665,64.92738977688836,43.76412439186302,18.690270821670484,-4.8281065008607,-26.264622677760112,-47.56601131326571,-68.44472244196291,-87.04316836217279,-101.15262629592961,-111.79764448629999,-124.45201309169266,-139.77818084754574,-151.52006792340202,-160.4303607868625,-178.0787130613863,-197.5019030327711,-168.19442920458573,-55.86934546779037,77.89144712019355,144.28104064100697,138.51699491471285,114.46308392394577,104.16234503391512,103.16151029837323,98.45750265245857,86.39521256762475,74.4227143701956,71.28421256243854,77.84126894603884,86.26734433129225,85.906109686663,72.98050310223782,54.74440949908285,39.84105236762401,26.592640084162177,7.290713621665463,-15.693197352728978,-35.20894949774975,-53.17471505850899,-72.48962350235779,-90.6154311943328,-105.59688068358146,-119.63524376856921,-134.10454607183829,-146.74767092948153,-162.06097533195148,-188.06099227404783,-193.5997112319424,-117.98566193371711,23.906142124705646,130.87395668415382,153.15911221651507,133.99950177492204,121.06832023015298,121.52582218300535,122.21731619779735,111.81487036784719,56.0,102.0,70.0
67.50110799785294,62.73250874254735,66.1424665419116,70.3482357029881,66.0246538078321,52.04833595630851,32.62200613403838,11.03115868326099,-10.258068403224476,-30.628914247069012,-49.85990705892528,-67.1478065128759,-81.523412509773,-91.98475839367043,-99.54752362395914,-108.07850433954098,-118.25639995171146,-126.45759980995933,-133.9529342582375,-148.84161320711132,-162.74721455332718,-130.69582319301838,-24.840568082893444,98.39674119596934,158.7109302976434,151.82272370041446,125.87928132870348,109.09752735217191,99.08867618999884,86.10313146102476,67.38642211316233,49.30423343463215,40.92686549148531,46.59364177043727,57.77792644299374,57.57059103030489,42.43469789849629,23.19911811768228,6.7531272633673805,-7.790544102023355,-24.268892403506925,-44.71641221685211,-64.87038170621716,-78.65643468780576,-86.1301286124269,-94.69081417939287,-110.43099612863085,-126.90390741562076,-134.73318854210592,-143.26560230544447,-164.278016094203,-168.3480714774383,-98.83804033657331,34.39763357134851,140.43898489750126,167.7245880114515,149.9402780295731,132.01633266300036,123.86981210750652,116.92520032102428,105.45823702291284,93.03650869108938,84.89096904680389,80.66040363008811,79.87336681606018,80.42851694357488,75.71202610842441,61.18240152492376,38.663116057745654,14.112992964310932,-7.412473101639474,-25.2810200699576,-43.127655997959366,-63.471251364846886,-82.0537083126295,-94.56090453407901,-105.47825098660722,-122.01678672230688,-141.82897140817278,-154.74677245331762,-161.04530417458895,-176.05212897407176,-195.92379521650759,-170.6602967876829,-63.69218571869653,70.08005681033166,145.47623544759279,151.7133491395004,133.65217511886792,121.83524581140648,117.52872395726462,111.32408727432208,97.30269107211426,81.12241438851325,73.89625443792686,77.69929516423163,81.60098123082572,76.36683466185383,65.64769734454484,54.14215125903545,38.606209815955914,17.171533488102988,-5.699367879228818,-23.898447178872015,-38.7862195286161,-58.33260517589638,-82.93139186703011,-105.1937773497849,-121.8432305190598,-135.55163437832235,-147.4641015964383,-155.11894269569072,-164.84818507582682,-187.1500223810007,-197.5073358314225,-137.74032337301477,-4.729195310102631,118.34683661630807,167.0091326527611,156.64271434040225,133.32273886104622,123.90364732400269,126.54991415501495,123.15910639794913,106.29916386538905,90.0417413039464,87.49903887599953,93.54809789068275,95.55526917918357,88.63552950294786,76.24085800028368,59.479044026719414,36.65063660591413,11.596013193346947,-11.137293810673873,-32.39127289837438,-53.7116983836847,-74.15415421497728,-91.6453625795542,-104.38038437170444,-115.02812332123455,-128.83689722534186,-143.77755351590238,-153.96026839038208,-164.19937605209856,-184.99509994393935,-196.85481408080864,-143.47946832873333,-14.709802839953891,106.17206085464827,147.93060829452963,131.17611408311922,109.79414357571486,103.56501140092115,102.58815458137835,95.55703755015826,82.45572919360647,72.38267512472929,72.39223885159512,80.57858216985369,87.44753498143172,83.31467400194089,67.77467826551415,49.91871399076549,36.22172938660112,21.80535566367425,0.6222718415665187,-21.786685443152933,-40.31869435333704,-58.659493043342046,-78.01057342767577,-95.2323614666108,-109.60958279697599,-123.83763835848444,-138.00933177879338,-150.34151280353734,-168.71898000661957,-194.60234378240006,-181.78925616773628,-79.98901115025416,62.741689430035684,145.25578319913248,149.07491283646934,128.60944714338237,120.27128903379518,122.36223213303234,120.58324309529526,106.56416501056944,86.0783057983292,73.33563178303059,74.197556331158,81.26993527460662,83.56291043280007,75.33156804246438,58.49737214360717,38.183909478388095,17.15336846580454,-5.292156472093395,-28.974182575028447,-50.077897953991595,-67.0042701012079,-83.45720828001583,-101.50676730275855,-119.32405799589645,-135.8886568023605,-149.45080825140866,-156.72587191179704,-164.16538051202676,-186.7838226252419,-209.61154772746463,-173.62913690341188,-51.97450045685433,81.33780156169554,141.45947072276624,136.3042568024222,121.36005009612143,121.69008078274229,127.23181694212705,122.8275017500685,107.51042965330798,92.47957817419419,87.65008376323955,91.99103370512441,97.05958565015666,96.40706257678367,89.1446675906657,77.15288261176894,61.33149929941494,42.420808668229185,21.354213831588808,1.5236033044461608,-13.098999573884837,-24.894582057297278,-38.486306343407016,-53.59224329881618,-69.58542799575707,-86.04222606724079,-101.15589637975759,-114.80849219504141,-127.81792837786435,-139.3816704164936,-146.85968331477912,-151.5655549148546,-164.03676041562557,-185.51849245851173,-175.88141859665367,-86.68772621973122,49.98231658040973,143.41216829957727,160.08402489773266,56.0,102.0,70.0
83.33229789253893,80.06975035884275,80.14255902596054,79.91028354857326,72.56637438429959,55.26685462405708,31.498539494335915,7.453770474329867,-12.845846811073933,-30.235571859695895,-48.80473190012824,-69.3303043307121,-86.26991391477898,-97.4914494727979,-109.53240055569321,-127.82620268029078,-146.63044639077796,-156.70570630187206,-163.85643464790076,-182.72717380087533,-196.09177452609453,-147.59590359287415,-23.393005876159847,100.1191299785277,152.74566927592429,146.9744436613328,129.14114290733409,120.17796415095697,116.36218776857527,108.0599116575189,92.33465463725686,77.74402091079658,74.16348695571328,79.43701500731486,81.08353152202338,73.4826788890998,62.43484719937806,50.27895955696092,32.91826881987584,10.408511682303324,-11.598220691604869,-28.19692001612337,-43.69571651858763,-65.208761320551,-89.89963529768933,-110.52732842855906,-125.95170466049308,-139.2842692354651,-150.12340723996834,-157.07203211357867,-170.05911540338528,-193.82550347805966,-189.52898596200427,-104.20424163966099,36.13124664803231,140.71757804017105,168.00086436096905,149.49386506387125,128.74379034308396,124.12730998928134,126.95386216741122,119.36205970829849,100.67194165638911,87.79211334678735,88.94440301731377,94.98523111084819,94.39539706925973,85.44114980049291,71.95598823402828,53.4695912942244,29.346458321097074,4.7440297002939635,-17.32139173299256,-38.546368663448895,-59.78675212643337,-79.62264589759448,-95.81593050028384,-107.4038216894478,-118.586522234357,-133.354056037686,-147.29353563620455,-156.33177171599888,-169.05722047045154,-191.51217675598573,-190.44905853339927,-111.6726594964698,25.67071830439967,127.09654460492753,146.49542260404016,123.74829527278341,106.59360377455366,103.39399076378795,101.42798947460913,92.08039939475343,78.78841731642612,71.24938120790229,74.23591218422338,83.2098928032808,87.64242698079903,79.69609899945873,62.39477430089137,45.53304349051594,32.5577924201708,16.34423602940173,-6.139662777810155,-27.47165203573189,-45.447871452836466,-64.26173131855562,-83.3325213572514,-99.58088442602488,-113.63275811195442,-128.06548594368755,-141.67360754922439,-154.43136863931605,-176.39987891705556,-198.03716195494965,-161.74348026274674,-38.117464135239985,95.82660645154742,152.5285478713618,143.1774498737606,124.50898216858215,120.40988636952973,122.83214357845891,117.82472092087772,100.70514289722928,81.0548472475521,72.32350563493382,76.1168223242143,82.82889080957223,82.30437542207625,71.13309080976457,52.779277933867085,32.17429098102725,10.8680346714007,-12.12226455336129,-35.525267592643466,-55.297610056502585,-71.61142433801534,-88.56126258948424,-106.75753098682638,-124.25997683222597,-140.2798461933306,-152.23314819726252,-158.13678643964684,-168.8301702042551,-195.4168811683097,-208.07975357949508,-145.8040027875002,-9.71738111744983,107.78237761438899,144.22504071612258,130.98202317207074,119.91787136743106,123.5753704209301,127.3543913873591,119.15376741012336,102.55603969158165,89.84540056545192,88.28872553572684,93.76094407056173,97.60208763152988,94.90851832439326,86.10260295877359,72.9485640908783,56.15318600291927,36.479270227294236,15.262331673631456,-3.2775217365811455,-16.53652294696154,-28.558498525306796,-42.77593429279034,-58.09421018546388,-74.38024887799689,-90.59313549160733,-105.21081370490946,-118.61655033744887,-131.4152225741957,-142.05675346675997,-148.19528886569765,-153.80945551551505,-170.17537375523384,-188.71158179479664,-158.92882601924666,-48.143053001395934,84.73111315855189,155.2066500797894,155.52911612669405,132.76992841570765,120.64765225982106,121.24082826348801,120.45530312903594,107.77935976724169,89.43743388988618,80.19978587860638,85.0032768833304,93.27918583002351,90.82431643226752,74.18162751940217,51.34562018712682,30.274610419346693,10.964584476689614,-9.989680210012615,-33.00648626206162,-52.932548938853074,-66.70357281479126,-78.43875696216739,-90.81149095103957,-102.56974623039602,-113.76260762639664,-125.98179086414194,-137.2848984365252,-142.07260898138057,-146.61857535638006,-163.52486942483284,-166.8112110745404,-97.29334438823946,36.28009612537667,139.29419340296434,161.50079928149654,140.87285456467694,123.53841001210586,119.66749962620712,118.17015106441444,107.18867035792636,88.14184779429743,76.24093447821437,78.26186740989962,84.94512223863585,85.27974229640944,76.00042649379716,60.91020569883926,42.46186227812151,20.185206516332887,-4.320935501491647,-26.168940997961794,-43.28374983926601,-58.728134195586165,-73.36014182999948,-86.24465802042803,-99.18631439012343,-112.78578524321514,-124.16155147039404,-131.12774151782455,-134.45632316468513,-138.56323901890363,-152.96337974999125,-171.93795334916962,-148.90676562776042,-46.67361323202664,56.0,102.0,70.0
95.61066513831477,86.84839992020054,90.80832691765283,95.78885870996763,92.49434286599035,81.91507484751176,67.25718986830206,46.93115411022962,22.027566044255707,-1.8590973723302544,-23.445727323397897,-44.720656425421055,-65.74754091475832,-84.78469809268466,-99.55854200079318,-110.38720427634104,-122.52011940494339,-137.80520639829365,-150.29202600388382,-158.9958768328345,-175.0251589145202,-196.30903990561842,-176.98813551569506,-74.33279696315869,62.626952943287726,140.4962839673939,141.546971013033,117.10655158778633,104.68817262602244,103.28255317132191,99.56341086645465,88.22867977461202,75.64073248271373,71.06041962997155,76.62291387639782,85.44590455038986,86.72101493381572,75.24479626182828,57.09853485882033,41.563344905912174,28.589012459609215,10.261649021941864,-12.749836152908,-32.81990294666715,-50.699117075401865,-69.90262526003,-88.38618420243037,-103.72838677117865,-117.721699596122,-132.23211282648725,-145.15602642926532,-159.39551081229502,-184.48673651216637,-196.48568871506336,-133.50443282431758,4.694940182124387,121.62674344234298,153.9952191554386,136.80821128829533,121.8376883695753,121.11663031028772,122.61797639132048,113.94811252749803,94.60170853048409,77.03962037289018,72.43654904223682,78.27808520191633,83.73488030260297,80.1077484173238,66.3260709031113,46.90161696994146,26.124882911789353,4.4264720797266,-19.0178018009953,-41.73514110523457,-60.194786220823005,-76.30630100379737,-93.78804480686746,-111.93321396973327,-129.08850673699118,-144.34482556812563,-154.40471867995825,-159.90358088261448,-175.13053800112152,-203.19076901004783,-199.84353878131364,-111.03494541770826,30.7116112506077,126.70348115396794,142.75060044709218,126.17087680138805,119.88248181244249,125.43921017723915,126.3567281355956,114.71909331288244,97.96372165626315,88.23124272902537,89.54149717136397,95.36462563941936,97.55894097909993,92.89286025352241,82.71053728789254,68.43504275379463,50.73695482388567,30.38094672881833,9.401566020100734,-7.578147159882152,-19.878963054731376,-32.45022655091206,-47.13470250272963,-62.691511989437466,-79.17163249522652,-94.99454173555218,-109.16283844116893,-122.39098391376149,-134.84289566445233,-144.31512494609134,-149.40834497795387,-157.0685729877429,-176.8547853663816,-187.79910026495222,-134.4522962172961,-7.551414307225565,113.6225545822949,160.76377753081192,149.1955149875669,127.57334756656348,120.000078478744,121.85800155696958,118.08002938454834,102.40006955698298,85.30403496234925,80.36484053917842,87.7537478419853,94.09819050915002,87.26920860566739,67.74060405721508,44.93824884202399,24.65921362492966,5.206434998365389,-16.57499991945141,-39.359201958469065,-57.45586504868772,-70.0712318849614,-81.98041190419325,-94.32200008211065,-105.79216251090708,-117.15123218895017,-129.6040025486878,-139.4377438137259,-142.66021342733572,-150.25895971101895,-168.50162801688177,-156.058542705576,-61.84579474022858,73.39028746926653,153.46547209357323,157.3359477546086,134.41306474369225,121.34047130882517,119.63319528591038,116.26378291320479,101.96477773067289,83.30399404963875,75.60026978002541,80.29294424219727,86.0181251783016,83.49297023636984,72.03464959916805,55.935408036126084,36.42344700406331,13.152698995441147,-11.121544128904027,-31.513900573959248,-47.78004471973265,-63.11428463912209,-77.2272533218537,-89.87667928138998,-103.13003927802053,-116.45696649082878,-126.63739327114946,-132.37194620352662,-135.19785156666381,-141.29953446443446,-159.26064258398375,-172.34680917890046,-127.08331400276825,-7.923345373463582,108.67553929028539,152.21016428506942,141.32165564536797,124.81500993538984,118.08913277286307,114.9107816813258,108.35764761543906,94.17411758109962,76.83605917267539,68.44522599027381,72.4045133739883,78.91200156258684,77.14626432917584,65.40695502090102,47.33447416640735,26.570108675522874,7.810271891271954,-7.212721745680162,-22.029800409324224,-41.108272374448546,-63.1025223617271,-80.77011447693685,-90.88935710251972,-98.22743944350643,-107.18432262484707,-118.08296689186425,-127.94416583336736,-132.8041157935841,-134.42063236401933,-143.9660359470625,-162.8933770958601,-150.5705513813009,-59.45808803849987,73.9346896371516,158.82843284861457,168.74425499597396,146.8854750039495,130.10533781921032,124.46016315421394,122.06155231433158,112.25201336204276,93.3988473780465,78.41974628205367,77.38296378682368,83.63730717785569,82.18835683291309,68.03567855983778,50.09616569101903,35.04089427168429,18.954887196101055,-2.206337967125025,-24.940221234049204,-44.49004580223165,-61.28057598192954,-77.5734195391051,-92.27720211383192,-103.93199179716504,-115.15264077475256,-128.3076927812515,-140.08983632041353,-146.21708687231828,-151.6395642701762,56.0,102.0,70.0
109.08001177196549,88.65615027460413,74.21563072160328,73.47612835093597,80.38949528899424,83.82542613778052,77.02583145002752,61.049684356826425,40.944412982340246,20.007210591611916,-2.1872742817548416,-25.86747589672554,-47.54110997799342,-64.87996400211254,-81.15938980107487,-99.07091498307622,-117.01465216937179,-133.78326458216642,-147.96411073243982,-156.06723998974434,-162.53209255378232,-182.87754999242887,-208.49414317498164,-183.79072250486996,-71.27794571966662,66.75427102572321,138.3243122224227,138.65471407715975,122.53967983523312,120.94536819328633,126.8423423238853,124.19598566130583,109.82723946232706,94.01789430181005,87.62073829172638,91.17520098214611,96.62911297536637,96.90811558394746,90.42166357621218,78.98265773479788,63.63463302178087,45.09454882541783,24.201254178699276,3.9054766977146746,-11.437430968790258,-23.276648084851693,-36.54503281236164,-51.541964281753266,-67.39049674665651,-83.89865033938315,-99.24441534325825,-113.03957305871464,-126.12147055042635,-138.02205584798182,-146.14634386403432,-150.7823613611213,-161.55247576509055,-183.12334324768602,-181.19946563711002,-103.08531513250152,32.44697216866695,135.65487343763257,161.2208376917515,142.2387743133525,123.74529034541342,120.2062658412133,121.94144674826902,114.57900623820598,96.88181556546851,82.28740198310986,81.66126255710778,90.40444701955626,93.7216608599471,82.58747649776839,61.060486631122835,38.79827827233116,19.12078136333181,-0.77828831303028,-23.284742600393972,-45.27928108548111,-61.47143290137726,-73.42064414848628,-85.57406673472828,-97.7410370907136,-108.99696507380438,-120.6693778672724,-133.03277305190912,-140.9028888266661,-143.60453407123933,-155.1736553590792,-171.08318857800114,-137.7247693630654,-22.49733384942146,105.23034673777653,160.75730753330214,151.09975505390682,129.03344082245445,120.17353867591277,119.43501689229628,113.32779196325872,96.29510116714255,79.50445224732361,76.0865880706676,82.38531460866933,86.34070532559926,80.9198365213842,67.7166493816979,50.685546469647115,30.04796600287699,6.013261286608992,-17.55877315382003,-36.48269166133837,-52.23845069326932,-67.39392485958501,-80.94770824655389,-93.58327975829064,-107.10252454989238,-119.84651005111415,-128.72637585006808,-133.34618747487423,-136.16517422267603,-145.1884476643491,-165.49168608358593,-167.6435038732296,-98.30382940877685,30.548593835380316,129.54393080671773,152.19952634921066,135.70434854424104,122.01477496377879,117.15508709970082,113.6220406005594,105.08656727310644,88.97594097095103,73.04806383534832,68.57172555677776,74.6158387405932,79.5190908865456,74.63724311821376,60.680514173509856,41.41903055497839,20.755743588749457,3.1643159434503856,-11.279567490616348,-27.003699974549757,-47.433259712063546,-68.969314960622,-84.35745370222612,-93.02138088252659,-100.56524801547035,-110.20923410845779,-121.23603568203033,-129.96587578044984,-133.2529617828087,-135.79096504957909,-149.3291298765184,-165.35959377662437,-132.82366185922993,-21.150218995730423,106.52332237918846,168.13885359267408,163.42130930109872,140.79094555599815,127.55083112932198,123.92102605009168,120.36222530856136,107.36349526328047,87.96671689460221,76.66232851073406,79.09985703129084,84.56033274111,79.17349678214724,62.74524854750725,45.46374076030284,30.80150048156004,13.337337808085042,-8.889732857903157,-31.00237405735363,-49.49413920415781,-66.01448441445139,-82.10221242934466,-95.92270218544138,-107.03138940963156,-118.79390202371756,-132.10892630976147,-142.4727459293065,-147.3166888990837,-154.91716698347227,-173.35514841387732,-176.96876748080052,-112.78715236369948,14.587071366450504,120.49025809118938,150.21545776278097,132.58149651400527,113.00278355264837,105.92923165410333,105.43176427261756,99.9905942699245,85.35945303902018,73.76609010202519,77.14447955225548,88.24609688701126,93.07836280926766,87.79329852338684,74.3223983018667,55.49519681149656,34.83340299665937,16.27701570816045,0.6167719896887701,-18.318222772464978,-41.8670999417474,-61.78944325148501,-74.76446499247093,-86.44785978907872,-99.10468823834285,-111.64109841258627,-126.16383974735521,-140.21996215764818,-146.98951515598898,-154.93365917273115,-174.05400029930615,-169.9073114075708,-88.40294354620627,46.01515880945029,140.26581460108218,153.8724206873568,127.6666773791709,109.3501323317854,108.79769239610049,112.26984052118988,104.64833394623099,84.92831920392679,69.67441907828339,71.03650880895405,80.14615969583973,81.98839759757304,73.16893872116655,59.070970885154814,43.478068314667794,25.895493526582655,4.941308036947824,-16.533047172201844,-34.46198621762257,-50.333068998145286,-65.93381366627702,-78.87335087186295,-89.39739320283994,-101.39033039619636,-115.34409154614512,56.0,102.0,70.0
157.9277232852062,135.56596216582741,121.32291736659532,120.88427499073609,121.16603648074287,110.10046976800759,91.64549483451228,80.55289133533513,83.81694540737706,92.55485839999504,92.04157657000488,76.99472689801011,54.37805108718645,32.9147606685373,13.561454744663926,-7.024149696199248,-29.975368098800732,-50.65335473502734,-65.10985419623037,-76.8341384852062,-89.16828700322812,-101.0651142490205,-112.23968874716246,-124.29414793657658,-136.0696895599744,-141.78801095214482,-145.39552386419064,-160.87941943001076,-169.46198929268036,-111.68716855041846,18.012423734065738,130.25919964323688,162.31504802594048,144.0834371577162,124.96508653629144,119.72754947837383,118.7390107688608,109.34541394080784,90.62503938813576,76.96539709828978,77.43624904499899,84.24088659372931,85.81626892275806,77.6800771334878,63.11707934362358,45.13189989167786,23.359700549434557,-1.095147365912073,-23.55773722025952,-41.17881895237678,-56.68567035614231,-71.51838068786346,-84.57991019865986,-97.39430026760175,-111.0224599841748,-122.88782650785417,-130.4489601811544,-134.12828025827696,-137.6335887266719,-150.27123457099626,-170.47065225281744,-156.47807622198698,-63.88555006545192,66.14244458431962,143.36892986995537,148.95626446040546,130.6182808835733,120.01321112799835,116.31330914207199,111.90412215317905,101.09966671714821,83.75812708287616,70.31604812807537,69.65681290807501,76.70468012314531,79.2338890399388,71.3576606234255,55.516143502952325,35.371752748066726,15.235228393643377,-1.1875287900710665,-15.455846267842292,-32.42629681235194,-53.883391327980306,-74.2672501366077,-87.3335427859532,-95.08762161514318,-103.10231530482535,-113.37044619729375,-124.19922326245924,-131.4789008205836,-133.56648557252146,-138.19621946360374,-155.27079998446135,-163.67900214246254,-107.68146271164366,18.63736571604488,132.90905390551944,171.5776304833788,156.82103486984767,135.6633814442829,125.84659363812568,123.39892502932351,117.78124764853811,101.84194364407718,83.28510131543365,76.17494061756021,81.09592615466521,84.46715935662314,75.15502935255427,57.44469815478547,41.12369237783582,26.29356512526178,7.26584190969702,-15.548163423049171,-36.719610732416314,-54.33658828157305,-70.74421595061331,-86.43022594301506,-99.30610554872953,-110.20612756574143,-122.60895502617656,-135.65639576838407,-144.30650032680967,-148.61791714662505,-159.343436003839,-178.26877768980975,-167.1083346751315,-79.59679876929323,51.46389481005341,136.88319803157972,147.56387349148707,125.87769674853314,109.72553183582318,105.59882847260371,104.83282618762951,96.45327765086522,80.90586674803536,73.14667255833407,80.27102932092093,90.67971282439588,92.52433260686405,84.64192914708862,69.27811376653273,49.55304663944105,29.08587833832968,11.638373218296412,-4.2242900295566095,-24.92181692182947,-48.37087485059465,-66.08084275991365,-78.01760140531782,-90.08744875284371,-102.69159482336417,-115.55033853184577,-130.64170486024094,-142.96948239856334,-148.33407502833768,-159.7194625059763,-178.08092664609924,-155.3928686565685,-51.18826186786775,81.04418670334155,151.71677415521293,147.71948905887623,120.40267335022142,107.75929238867174,110.17434100241073,111.63662235563172,99.69351092948858,79.18019766107341,68.37859185936765,73.64169253608117,81.84970009810273,80.35595367341098,69.38564945654511,54.67000298892694,38.69913695728788,20.16580654420406,-1.4514954718198947,-22.121489481132038,-39.09816027456547,-54.926216389128214,-70.05566333630775,-81.99289405661992,-92.59174824499584,-105.30598483735838,-119.46802645558036,-133.3149906777896,-143.6999873954851,-147.14449426756772,-151.88309451234858,-168.18366786928758,-168.229678856994,-97.50704939958399,33.3236525737789,136.73622713575222,165.29984017694008,151.4144540199747,136.49043300265623,131.39080909308237,130.81476055983774,124.27096709359449,107.34660190138786,92.39827667811736,90.75445546128883,97.07397100070703,99.08951053246916,90.84571503348546,72.69787081196975,47.8757022326192,20.867303314402758,-4.730611045321359,-26.013032959957318,-42.46885391108533,-56.447529084119594,-69.7900499338524,-81.41335915447836,-90.49295075082095,-102.38961326690125,-123.39843597975653,-147.6434508833869,-163.07911462676321,-169.2299892645362,-180.33078364495142,-196.33782839199193,-172.41301071545436,-69.90998497950008,62.77083074496971,138.7663211827987,142.6936302847362,121.39422844910025,107.98790810346817,103.07728239224178,97.42503498926945,85.7095994687406,72.64857569178166,68.29306344617699,75.06095918400098,84.26118461510768,86.33633713763186,79.15623208622894,66.23486422721962,49.6516125858894,30.448183859779995,12.927938606904153,-1.1101534463063643,-15.802083962627423,-34.68189159357334,-54.68590062375396,56.0,102.0,70.0
-25.918956077557663,96.70597643705433,150.71177590483418,143.91174429348462,126.42006113653045,118.60158414393814,115.39878919847754,109.62675030314213,96.47436325837062,78.87653282258948,68.7615986181774,71.43713027651341,78.36335817419167,78.01554603303234,67.41729988605498,49.98588263378156,29.32233219222506,10.068618651530258,-5.3366542751477395,-19.876381372199774,-38.28253934430194,-60.2531868096311,-78.88338803660993,-89.8428498324053,-97.207742909043,-105.84957593645052,-116.59758939300254,-126.85415848235226,-132.48845246537485,-134.04571470954232,-141.8522942500779,-160.8259757528922,-156.2683664917878,-75.91215869172215,57.234926921792045,152.28592315684858,170.42795870143905,149.94391284156896,131.61366440413352,124.79187330659416,122.60155457264119,114.21970258847568,96.04674082298739,79.66980949535912,76.7961979621384,82.94718134300824,83.1889606139419,70.39524347055878,52.34465913619029,36.953471318586125,21.37986484361093,0.8383446210823042,-22.036993919492776,-42.10522099408162,-59.09666207495814,-75.43766471969344,-90.49865321662122,-102.49767673656305,-113.54437467890124,-126.51191540703866,-138.8051747163747,-145.6839970598719,-150.48883569147557,-164.77031998193385,-180.80932821933726,-150.24124477766912,-42.2900656692095,84.0072648955161,146.48913607887718,142.3148719218235,119.87369864712765,107.53276872946806,105.5709488669745,103.52015706676002,92.18948587810621,77.16752819099537,73.92534555561055,83.66032099335384,92.30621695867914,91.15124466605214,80.85660711956567,63.87086464443813,43.539632953919295,23.626817043882657,7.1857114628155285,-9.545241135796196,-31.811184065158233,-54.319585532570485,-69.84010630255142,-81.3419834164526,-93.77137229982048,-106.26699119379214,-119.70972657653087,-134.90549062312982,-144.97004039651046,-150.23687225029798,-165.50575400362482,-178.69152990335127,-133.29265557214336,-11.342636267425735,110.2903660371468,156.46372864916705,139.7765259784667,114.6440795206224,107.51832394869886,111.44740213535728,109.76084361089283,93.90769203290267,74.34088683118071,68.58007656035495,76.47667992495704,82.64029701983887,77.89863779843972,65.318778904825,50.19274882121743,33.70199153293513,14.137788925608142,-7.756510783382124,-27.35130821901234,-43.66045642484773,-59.49172752017402,-73.8686806116457,-84.98715571515963,-96.00255726078527,-109.34230107361817,-123.57293377362998,-136.90296267740698,-145.35676392326738,-147.65716544002382,-155.60190329891213,-172.4058397730105,-156.6396668212571,-62.65640692276756,69.88229418401099,152.30551742223525,163.32353871771184,146.19505469922566,134.09886113860628,131.16280524546218,130.016390128778,120.17487270419483,102.06410330865677,90.48365037917378,92.32830617111587,98.53195373822345,97.8174202580803,86.52435142244782,66.01105542262385,40.118275815569454,13.18313605139023,-11.41288857084669,-31.196321371533973,-46.631984697284956,-60.364798759750975,-73.42104652014905,-84.21075624210984,-93.24209864735457,-107.5032017545684,-130.64559592872558,-153.37556663146427,-165.34962011954602,-171.2543160969901,-185.58893664546247,-196.2713746086723,-150.63450845904327,-30.413094194503643,93.10265677083922,145.6940782216999,136.93344051838235,116.24589928511655,106.09594649402922,101.89577147689916,94.66780038310958,81.61696947108524,70.1516398527231,69.33005490839878,77.99086201513332,85.84487539722167,85.1076266911278,75.8421951213527,61.819207567819724,44.22951133077594,25.012618708884357,8.611567999596664,-5.0377645513659415,-20.833832973828073,-40.60721244210553,-59.959999995507715,-76.86746223220068,-94.81591241256623,-113.38975630893452,-128.00893485922236,-136.74587182613158,-147.12427276852105,-170.02173142574676,-183.06206867756447,-126.24012111807264,5.481734491625195,120.8972173507193,151.2451792227497,128.00574419260553,109.70616572472298,110.0893235541875,111.76033070967748,101.15174928126291,82.73229938197615,71.729061719409,74.10053287060165,80.11449716469025,79.51644776764269,72.04714837911519,59.377565810926725,41.309553259325845,20.399689327065744,-0.04748432393730344,-20.48810405524767,-40.324095550782594,-57.42016378006804,-73.96119024459306,-92.18244236542633,-109.90701702732447,-126.17653501071977,-142.5145730303194,-157.23926728298915,-169.19475814803124,-186.62701182805935,-213.77384139340666,-217.1325623031436,-142.453113427544,-4.726586351458771,103.23264175833674,131.2793173073726,117.48480072200778,111.53560741770764,120.16162886570433,125.43400780056892,117.69698023933566,102.89054581508363,94.88247572310037,101.19081757557615,113.30813916832356,118.54144240952334,114.54742743499898,106.39049382594285,96.24277975465651,80.9646155772101,60.89334312476821,42.09839177535346,26.489667340542955,11.11227190213294,56.0,102.0,70.0
-153.26562838444104,-170.69292656215356,-179.38839297602854,-126.16604599399078,-3.2626065504425803,110.55086546491724,150.17230007404504,135.75260738233152,114.9045972868422,106.26291445286216,105.53669060673204,101.3213953467373,87.52637692057526,74.53324032610335,75.91069290655298,86.90064073551446,93.04180948054726,89.01816062986885,76.50117120340893,58.18656956074522,37.55365924765626,18.515483831763774,2.7309934440086825,-15.424590265765959,-38.73661425959052,-59.593266745126286,-73.25264747755038,-84.80430293353389,-97.43399143258372,-109.91135605242654,-124.09499941095552,-138.69485878992063,-146.41316334316437,-153.1598024353488,-171.5263265132598,-174.1531593335562,-103.99941176986437,28.438619241150253,132.52299184220243,155.68678727097773,131.38524420594237,110.62040947860206,108.25015185912146,112.2004417923321,106.55729033096448,87.74810246035354,70.8005269212916,70.03947804488116,79.1067712252268,82.4254540985008,74.78130995407626,61.07062734644988,45.62501310595379,28.42989284068511,7.877022058090698,-13.835677995421387,-32.27286970079939,-48.221296868000906,-63.945091318839076,-77.36086229527865,-87.98300277183448,-99.64199748709188,-113.44362412180445,-127.62458097544855,-140.0812146597894,-146.38007145429543,-148.665794665577,-160.42688578224858,-174.01560025855878,-137.8254721167139,-24.170764863588747,101.66710241863984,161.43505805746028,159.14060428931256,141.61233893171223,132.52176030745355,131.118809499951,128.41634993757896,115.25907722641999,97.39935917473859,89.81439922880217,94.27377144208786,99.34837711010759,95.63486714209279,81.41648465838503,58.8721475021199,32.28359251987116,5.6945313043369366,-17.67004989922425,-35.999298353395595,-50.666995366623446,-64.24741302299711,-76.85254440869961,-86.8017072603558,-96.44655865216986,-113.46835311856665,-137.86737780813155,-158.0957426966643,-167.01624664013502,-174.15850671819322,-190.91299838643772,-191.27641564649895,-121.88146313056933,9.373498865710427,116.81873214535214,147.23837918048707,130.43148887538067,112.1616074425825,104.71006281792447,100.4238712477154,91.34337262304304,77.6430013161516,68.62157341831451,71.23020373070428,80.82645297146877,86.65496880944477,83.1379180613895,72.16164159444635,57.098897004218735,38.642540309574315,19.850670463115183,4.564566906073478,-9.168466611551263,-26.251950972591924,-46.477439367046536,-64.97514648106846,-81.82721919148867,-100.30060066419817,-118.21334586325638,-131.03629344945972,-138.9511420408919,-152.4206881985569,-177.22013179335656,-176.10901201162972,-93.09739064174425,45.30614042806834,138.6953739747602,146.99170944175205,120.6079495173099,108.44472587781253,111.3170353268472,110.12449569175291,95.99667818430385,78.19878432293933,71.24195456155813,76.08806204211197,80.79130481509026,77.93610697239042,68.93036081129802,54.67868348843652,35.36235348350501,14.402547920327358,-5.899857717270433,-26.409641539205623,-45.54545550515002,-62.07552350978397,-79.08931361760327,-97.4814578098679,-114.68722687617242,-130.87232182167395,-147.10075281521014,-160.80780934285917,-173.1249924585956,-194.00354674028014,-219.83681867449943,-204.99127848756527,-105.68783119843513,33.61890715715946,119.09755388675026,128.82154900093107,113.79224132990358,113.21791473898953,122.77789455566395,124.52567377530066,113.58694348644379,99.27721103057283,95.32384602097912,104.76031657558902,115.86490193238268,118.16074072741519,112.39270848690504,103.74970332210353,92.49616998666338,75.42908674344352,55.085816172778834,37.38788767630259,22.080403968286266,6.830113640428241,-5.510495474550724,-16.046316519038367,-31.051409465375734,-50.579579296621745,-69.40371510014724,-83.46052647957453,-92.353635280221,-100.81806168092022,-113.89581406297917,-130.3913829291353,-146.54670513687986,-158.70925542353427,-163.26799525176793,-169.57385320150837,-189.68173647143976,-195.34774447678683,-127.98080351478262,8.212285446426105,123.09765568048448,158.3031568079154,142.78677498415811,124.62181086998562,118.47738870112157,117.83183170868884,114.06359825072845,103.0120360206662,91.41874091104326,89.5506426833238,98.08557961481299,106.04442854900903,101.08347938883279,82.7010546076312,59.8195998175696,39.070051081558205,20.127739266713384,0.04178914612334798,-20.91798223061143,-39.95443714131698,-57.598654620836825,-75.03704160441876,-90.9092719428187,-103.70622724897726,-114.98423308319857,-128.79585661108996,-144.92996403192245,-157.16430604239903,-166.61600299592226,-183.7584416103195,-195.18024816534123,-149.47400325403004,-28.526645013771702,96.41132359101209,152.06450383225518,147.25206854889643,129.51927821867827,123.98253900428207,127.37906682778262,125.89642549650313,112.40327033558279,95.41479411633556,89.75316957569368,97.96335738323874,56.0,102.0,70.0
-117.56751706965112,-131.5628862331643,-142.70673402609444,-146.95040384309127,-150.59564034896073,-165.7920874128911,-171.3423882764762,-111.75912581897622,15.426052295488143,127.2427443645285,165.1005571902858,153.91571346702204,137.89413296236563,131.6229958589782,130.9873264611388,125.82261505200213,109.87042845263382,93.70640484003,90.24886472116374,96.24529072795026,99.37147693455853,92.55733952318673,75.5959647783208,51.40067162860033,24.454066087454752,-1.5186853609413538,-23.482141428775915,-40.485938210374755,-54.63237909575051,-68.06502333522855,-80.03623430878817,-89.31193995547638,-100.32706381649776,-120.14566542324599,-144.70833497083652,-161.7420225853434,-168.48809726704923,-178.1447164113328,-195.15155294209234,-179.9912420137483,-87.30672997228733,46.88197393684836,133.44083755881934,144.7772480968279,124.09125821398122,109.09926592446762,103.57934125684679,98.4977539499838,87.55893923348648,74.07820759032442,68.15116656341873,73.76032828861649,83.30211654609568,86.63076666034074,80.53571979234263,68.17197180311176,52.06906220872828,33.01653400716857,15.03000963161169,0.671737928880088,-13.619950141949765,-31.975311813661545,-52.15688126558626,-69.82286276929862,-86.97523977740812,-105.75253306059429,-122.58441423418279,-133.5725560183349,-141.6105070059093,-158.9940771854521,-182.4903813201004,-161.66802665029854,-54.697168607965345,80.84886111904099,148.6784336404979,139.92508273989276,114.78122076972171,108.55201875311779,112.12218716438396,107.27344869900297,90.49380804691123,74.67823456565829,71.84282094542604,78.01623175650482,80.7654768543095,75.85954822720143,65.38509157170323,49.52424928373635,29.287397341423816,8.493435405892816,-11.799155315267349,-32.21634702906479,-50.50500385303596,-66.79419754277471,-84.3647617696848,-102.65174503092693,-119.37255442918465,-135.6106580035852,-151.45307524363457,-164.17608351743763,-177.83523466416008,-202.13846608169496,-222.56452383726898,-185.08893179549375,-65.16097897561266,66.85338914055201,128.09081430236074,124.44362054208591,111.64603686928749,115.81999809474641,124.63093549894245,122.46354078674531,109.15902695189746,96.60624746088483,97.00222429635575,108.4512992105566,117.59782942790642,117.07622133346365,110.04061621049034,100.92432664930475,88.21190269613987,69.5894999294276,49.55601326746517,32.89665212203978,17.617064032220696,2.828291323981312,-8.450650135390669,-19.746240076515367,-36.4317866057245,-56.32106723790094,-74.06271242963,-86.44128266612188,-94.5470554875131,-104.0442321704115,-118.49766337132374,-135.22228994984687,-150.70075452890688,-160.75634525965123,-164.07943434809252,-174.13908081989203,-195.42093742844247,-185.278219147003,-92.62770450565968,47.91315244047654,141.4920923117018,156.511108554536,136.46552164173016,121.74783555043663,118.12977499424085,117.39892075710381,111.54356182833969,99.18709424397734,89.60291489970524,91.25327052664814,101.1056288202819,106.24191128621322,96.83222458259435,76.12798977504958,53.506732114688205,33.54553531883057,14.532399366094536,-6.065742575745457,-26.66868492748425,-45.10245830827452,-62.67520302583461,-79.88257363988424,-94.9288866954867,-106.95274290087336,-118.56919990333472,-133.4485243914995,-149.10191153745617,-159.7273977936729,-170.5381830953656,-189.46343441562524,-190.21762136574102,-120.57783940590141,11.574854864120034,120.80470531005587,154.7839298244277,141.6816973477678,126.41271910340048,124.62094176174915,128.02170944937336,123.15267600223198,107.14758443660004,92.1448056878582,91.08207128542487,101.14048606764727,106.58107650648982,99.5085250038112,86.19227043062708,72.07648579320664,55.33912769057774,35.39730455913921,15.944494942927422,-1.4928762383390175,-19.31640479813645,-37.31251737440278,-54.687230206927275,-72.58612255431989,-89.52083515104852,-104.17792457653611,-117.226854495175,-129.24635591194036,-141.86076864035775,-155.17551948773533,-164.88272100127801,-171.7237596624905,-186.07878748442286,-202.85147796463627,-175.0020358714831,-64.23693087455219,75.74876425325735,152.36297662572605,151.9506110993723,127.92590999526266,118.59973621730308,122.95072186277497,124.55637720926184,113.3414917633742,95.4918973943586,86.50268895079306,91.55291630369973,100.35851052358488,99.18827699743342,86.45855066108193,71.67416667174605,59.44093614133273,43.97300531234083,22.16979040343447,-0.6143792486475526,-19.956382232805506,-36.09311318475584,-51.66024491373549,-70.5034135039481,-92.0091920948662,-110.95778719253363,-127.24511363309531,-143.44778886673242,-156.91366154710343,-170.44332589111045,-192.13710692313228,-200.4338904220848,-141.01951494038977,-11.435598996198717,104.58402993331272,147.18283823604304,138.52608207744925,120.71126196001168,111.88862574532494,56.0,102.0,70.0
-57.56396865753109,-74.62981298300089,-92.309077217531,-111.04187288344377,-126.42670483819094,-135.7751054073193,-145.1222586941181,-166.4760231682881,-184.0745147738181,-139.21407118880597,-13.583616800655024,109.99650152201117,151.75621076525172,131.7482741472439,110.86534820148857,109.51175697892431,112.11576690058969,103.30073131619295,85.07916258408704,72.36695694311024,73.26345954135793,79.57941676336655,80.05592516208759,73.34536444525918,61.38293338837051,43.97530451903055,23.193136606349555,2.643318506240512,-17.74323714640166,-37.82385886351962,-55.2654140732245,-71.6578923709457,-89.71524496855126,-107.65599115342087,-124.02609082277245,-140.35050458606196,-155.49150751909133,-167.55509006886305,-183.5880280547668,-210.30111133970394,-220.29087293403146,-157.51138269609265,-23.525407004388338,93.43837344380651,131.32430100408112,119.57388476320575,111.20243097282575,118.80454164760019,125.44870732771336,119.39193417814576,104.7835936464842,95.12504064095934,99.69515168294816,111.89276176088342,118.44493212232622,115.44158400329475,107.56594960757049,97.80940452499031,83.37128166602325,63.62941663643898,44.371527580215336,28.508061959601676,13.147420356925206,-0.8141121627416252,-11.376916976620457,-23.96295721992354,-42.097297353473046,-61.86582364855148,-78.2474863875692,-89.02721513978089,-96.87123857564144,-107.7391027164357,-123.2834162875287,-139.95367960685547,-154.40661174884966,-162.10290038008202,-165.4838420349764,-180.02184167183873,-198.675728642877,-167.6359348949477,-52.76524681599689,83.13832474810481,152.76104379760238,151.8785871438061,130.8633371532312,119.86849554579689,118.01700779118545,116.50050273428715,108.38949926507954,95.60469362285262,88.80827017596401,93.71558469203545,103.7117007999692,105.11990134438543,91.59747140361921,69.4360395230645,47.46170709148936,28.106180022126495,8.768119043904074,-12.178787622890596,-32.20387407884186,-50.18955562485586,-67.74040316680698,-84.5405602125705,-98.67059607891713,-110.15042701855522,-122.47619295997771,-138.20408697027398,-152.76195335596668,-162.24862000753484,-175.3953564514585,-193.92065717193333,-178.9277846093756,-85.80071565145573,49.46016789303944,138.27776510790844,153.50776398750065,136.16865446369226,124.58766245589001,125.72286301691565,127.89921760322649,119.36282639888229,101.96770246965738,90.15785922843277,93.44458286496219,103.86382930440031,105.71625626031523,95.90716126622743,82.1888299567384,67.63839049026853,49.786542183951894,29.55353100303684,10.782657728791683,-6.525999463107532,-24.58954116262986,-42.34131238690465,-59.80713523334274,-77.69074381524501,-93.972422426765,-108.08581904139385,-120.76373559211635,-132.739450619843,-145.77258908250556,-158.538751218078,-166.7912246395363,-174.67470517153322,-191.9711519641026,-202.1691980926218,-151.16343966885267,-22.18237889361183,107.02369045475965,158.29375349313494,144.92718939043468,123.16839050897211,119.12788111964991,124.38874262770103,122.69518619732659,108.1887258052149,91.42390182136256,86.73911420420293,94.41094796190116,101.42599378507225,96.37342733243558,81.95886290202519,68.01121211014079,55.624085247078874,38.19249297373308,15.387495502782182,-6.607546043156493,-24.871370058065434,-40.476864719311855,-56.64674263907619,-76.6665693290278,-97.91160848983645,-115.75960495721276,-131.97061214425847,-147.74713337391796,-160.35003731770735,-175.91032449734752,-198.13031011089237,-192.24890735060598,-108.12952140078039,27.717601896507382,124.7101510818385,147.78534405494955,133.04342900650153,116.98496057333257,111.31921237971446,111.71646115734654,105.05424122558244,88.08868498767023,76.5263633394412,81.42249748510417,92.77065410244286,95.29527472432223,85.00769558356335,67.29607453428947,48.338265296982854,29.413963776670577,9.21702577025085,-12.291729821493252,-33.10706386430095,-50.55543597025436,-68.16793274501659,-91.24232207249952,-116.0286031774836,-135.93140228943977,-149.14428275197227,-156.41098052465372,-164.2710137328033,-182.76230034427127,-193.5540315795713,-142.1094299912512,-18.079897604826133,98.21937009395758,140.08615015035718,127.67867284216872,108.99519828035372,102.51462695460222,101.5472093406394,94.31227802298316,77.8869051103694,62.17949138380323,59.26664094555564,69.62489103193597,80.39993362507633,78.6984851354437,63.71559086950083,43.78903994764184,23.966607843558652,5.392424290400015,-11.356142041951319,-27.885456813492763,-45.77820776415493,-62.91739920422639,-76.7495914930529,-88.92834270033269,-103.23412846132982,-118.94989639856668,-131.84905432039707,-146.6308045578687,-173.78235154380226,-190.59722099515443,-138.43765278181885,-11.105908884241849,106.37036181580851,148.2400768121937,137.44393995017026,123.03466362751102,122.33388483924703,56.0,102.0,70.0
8.776453938240747,-4.096637978460617,-14.493922698214101,-28.70400943555217,-47.89954619436679,-67.11072786856755,-81.93035136602018,-91.33866794178924,-99.48288593169042,-111.8681576972863,-128.14705543870633,-144.52035564442204,-157.5134439260585,-162.9498996613745,-167.96669628746525,-186.64646990952775,-197.69658353516482,-142.18701378522914,-10.95211267854351,112.12766481837534,157.76339821935863,145.77476039043086,126.32405373090998,118.77759746848018,117.92503271322056,114.99064626999564,104.76958483450753,92.56537251130409,89.07854710324139,96.65928312986888,105.54477612555638,102.65335041807587,85.62787338916648,62.81267106874468,41.66907572271962,22.66260262617309,2.828950666471724,-18.19775218709028,-37.54468698857804,-55.25987814161289,-72.75582832414366,-88.96118395113838,-102.16391707629563,-113.41926612109935,-126.72898094224738,-142.8678378489741,-155.88282388841128,-165.09429849204244,-181.03009426544781,-195.69941966817777,-160.46367429755907,-47.061051565074344,82.93064470431379,149.09970080590892,149.59241885630996,131.37154179347095,123.9424917204498,126.90877162395935,126.78296248655322,114.7345559071391,97.29161737118048,89.56335632587623,96.46881153529094,105.76205659832685,103.79510581685807,92.02729095229071,78.16218100564221,62.89065765225477,44.009481001827496,23.865754043617965,5.765095304336993,-11.660708880883938,-29.820653799287136,-47.336050333740786,-64.99363968152237,-82.6427111528965,-98.23452939042937,-111.87953048503219,-124.22649225602359,-136.3437016672877,-149.697815858706,-161.45771444321278,-168.5993196555804,-178.58566287106464,-197.61577626880324,-196.14197907085457,-120.01860664941785,19.883295768448598,131.0379589072187,158.54805000846056,137.4774822895096,120.13118861806103,120.468276055101,125.17329413790223,119.64059776360564,102.81448869812391,88.47820571476683,88.10093143957221,97.20539573595802,101.37424912924178,92.72023171866596,77.57441172477537,64.54270304557154,51.3281378920545,31.909752382221594,8.70890618457052,-12.264866370384219,-29.55218622427775,-44.89820946990582,-62.006000857520746,-82.9520230468855,-103.46751911290514,-120.43162331367554,-136.71186735973242,-151.69733409974876,-164.01184058270644,-182.23329184244076,-201.97993621709014,-176.92444849867948,-70.36805687709986,63.1260165696759,138.12366759854018,145.30218133157717,127.63454767913029,114.21563351995458,111.33078289587017,111.04984839259939,100.77632806687446,83.33384813648253,76.33950780907055,84.82615662906879,94.84144927666014,93.5028291311292,80.32358359903779,61.78320846920394,42.928725859607816,23.74145817726661,3.0995742725647872,-18.535396363367987,-38.498882525719765,-55.2966006148406,-74.24860316966567,-98.58231505676761,-122.44796061471975,-140.4331362912716,-151.74885800538647,-158.07775667629974,-168.43841942377225,-188.7558846040919,-187.34824703687934,-111.47143638712332,20.767121493279053,118.54203063452783,139.71231732814636,121.41317520278531,105.887904368912,102.23273388647642,100.49054737525022,90.27159680742899,72.64387834057631,59.698783722013786,61.28613517703338,73.41052440919107,81.49971388846429,75.42656585824139,58.107117975862295,37.985742787054136,18.42465653918296,0.38864396010365515,-16.037384042534025,-32.936395426387826,-50.967238036738806,-67.27623537990762,-80.25531112260441,-92.74223897402862,-107.8310345301878,-123.04573342421725,-135.34011792735777,-153.1885748021935,-182.09761854271946,-184.83552993607663,-106.80621992508287,28.34996819067306,126.68022938551768,148.07689240181634,132.14823895969323,121.5569334681653,123.54130160951738,124.4539385892799,112.50087202525611,92.0947688010902,78.07054632484528,76.34107622181266,80.29246575021544,81.22346782677079,74.66336970258627,61.865262908534625,45.750793090581105,27.099327111535246,5.160737395867425,-18.781490669216137,-40.583394443230965,-59.73130943076214,-78.85416546287213,-97.88256069287473,-116.94292550500457,-136.90496905698234,-154.66635253185902,-167.8335621283963,-181.32943924437828,-203.4713270310802,-223.30514603724882,-191.9226064461152,-78.8635702600628,56.81236715124339,131.15755867568598,136.6550382296178,122.78136128065337,121.35156272654648,127.0805762940202,125.97996599845446,113.94563461289394,99.12197873628969,94.57360886737375,100.49089461921237,105.98453803849168,104.9526587657298,97.55892751902753,84.40592517066388,67.19705398084449,48.74386540009134,30.585269132145875,13.746831924065166,-1.1548903443832867,-16.352448923619466,-32.928631752708334,-49.34417007094057,-63.08704306384473,-72.35492084588611,-82.18767797641455,-96.45945429195032,-109.27214014812883,-115.85147516408175,-120.3530334022542,-129.27809499635046,-143.04100183923347,-152.23970125662873,-153.34391342197495,-160.9713275721426,-175.81282097776398,56.0,102.0,70.0
99.70598510963815,106.59096053607807,101.01396062333193,88.03893024315705,74.03757001344417,57.79964216768085,38.118328432130916,18.391955683988904,0.8019814765944325,-16.88753408095327,-34.96943670664759,-52.35330515806814,-70.19908335256163,-87.39893471541129,-102.33469246156508,-115.56388193199452,-127.65855905185107,-140.08863071693406,-153.50330590894674,-163.9009076685781,-170.62229286197578,-183.51491318964722,-201.81370241880407,-183.3965945924571,-82.84954862236894,59.21225872379568,147.35548681463416,154.6757110706232,130.6551092232666,118.74743352917525,122.16917920303116,125.00900298558713,115.52619481530006,97.66786883907389,86.82058982130827,90.32741890043195,99.53705548045033,100.14143713213402,88.50670556496331,73.46169217351373,61.08798044850903,46.4382881083345,25.286154351073822,2.2594461643781423,-17.59882035059326,-34.056325758923194,-49.47022376334839,-67.74465945367353,-89.19217866371392,-108.66642957430564,-125.08525757960003,-141.3668933363725,-155.31908557892493,-168.23129901024632,-189.0375365308356,-202.09274855134603,-154.03301867386267,-30.106145873010927,92.99555086544775,145.51302496756747,140.91276799567555,122.72636168015187,112.41355350352221,111.60883142766536,109.42878106400993,95.7696291188006,79.56111891199731,77.59432197454504,88.33725657061359,95.86751338769156,90.67837529310361,75.20366351953392,56.28655933355899,37.49417010818678,17.936305398233024,-3.1169139668340233,-24.64034965082968,-43.56199499368244,-60.232139926100665,-80.86015603380737,-105.869680707347,-128.33803360567842,-144.37647757793033,-153.87815320109127,-160.06205387174256,-173.72110779093813,-193.1793613806085,-174.3773119276798,-75.49777302326365,56.29452430436797,131.8537989420322,136.07148693541444,115.64132014014443,103.88590665439858,102.11077166451999,98.64167506503333,85.528661688899,67.80822403296028,58.533557851391784,64.2660146929524,76.82311635469233,81.31858379124884,71.17414585036164,52.31848656500745,32.23709797966874,13.01241837447882,-4.4599551407879146,-20.76763563763981,-38.11414715107463,-56.00235271556148,-71.32008988623426,-83.71544250637501,-96.82058274263409,-112.45351478134319,-126.79937974194917,-139.27124925613808,-161.00949700901847,-188.43802701958995,-171.71850659715645,-69.8028224865761,64.25027801896687,139.9518747105725,144.84132232677655,127.57302404731438,121.26163823097596,124.64228644173912,122.48651720637412,106.84469545549737,86.82513390064875,76.44613635376409,77.32610029531311,81.1767299251746,80.13967999489674,71.4524643537685,57.47173619772907,40.64250984159137,21.123759192686638,-1.7238407946513,-25.444035068846294,-46.264192912358844,-65.19864143850178,-84.41199066390838,-103.30863900228557,-122.6724606221066,-142.46797091983046,-158.8783526898743,-171.29489842991336,-186.65568570864608,-210.97497906124102,-222.10349238958491,-166.81067723362406,-37.554750561538896,86.72136901108593,138.00212023365634,132.41902557018238,120.80823698641753,122.98890576624102,127.87631228002357,123.49630504039159,109.31268576977064,96.38726003462773,95.6366928720313,102.56836934132691,106.40297712186185,103.43230928068881,94.31886925594883,79.721226337204,61.89325620511594,43.43134141641142,25.522321930972346,9.291438735443572,-5.392676670957348,-21.05062623299489,-37.76863998351673,-53.74311220644022,-66.14343543002491,-74.80040685535293,-85.96000940005999,-100.6882261949137,-111.76577004148189,-117.05244467537833,-122.26561457874922,-133.0323816860073,-146.65719250320743,-153.01002215325252,-154.10307213619606,-165.72661496831245,-175.48218441917584,-127.20713413811762,-1.4890788403853092,126.32482310453082,179.21462917253265,167.6839753039521,145.51865123347875,137.7026227870128,136.43806295288124,130.06646793054892,116.56832990747309,102.37586817484421,94.71439524467652,95.09210513466958,97.69027648953664,93.69380523515616,81.22291308956603,65.97345678774711,49.96300003057086,30.530191878356174,7.357433081080468,-14.747763234583967,-33.07982300334931,-51.72514963078677,-71.25731428261686,-85.97090421274265,-95.88431098755144,-106.64657465292805,-119.67044670004479,-131.70720545062517,-138.76735523110554,-145.93790796195208,-164.10083474830876,-176.2437049343498,-129.50992315203086,-12.050115077519687,100.54989143358652,140.86952962364683,122.72253459795813,93.52071144457462,78.43683586941464,75.97244143363801,72.11024594979887,58.300414860982016,43.31774206571884,41.202894934392724,51.882937648029426,62.855374443952094,65.71795566341385,59.4613232872263,45.08113318219071,26.822771608492047,9.092033887398374,-7.40652227386508,-23.450972665040705,-39.909698342009285,-56.35296735593007,-70.83223682557815,-83.71326252481282,-97.6201742911311,-109.69509153612184,-113.9850770818708,-115.55329915877635,56.0,102.0,70.0
111.4935160918974,111.78062139938314,106.69308083276785,90.47875530088363,77.1340763692421,80.01754285814262,91.51910929118554,95.74425339837816,86.96850175263646,69.82305248618087,50.83685670913744,31.987569371881442,11.997900462311856,-9.393965653111827,-30.506117884555586,-48.37831305854402,-65.54940441519636,-87.89932213000871,-112.91002639445907,-133.66612627799185,-147.7659796730122,-155.65540915025593,-162.72502949335436,-179.83515549918357,-194.47182160823502,-153.9900277598076,-36.41836563146693,86.48275112255332,138.76363050809832,130.5348009315451,110.8273638480433,102.78947542066531,101.82142420651012,95.88966079628538,80.34060788446331,63.72507856896971,58.73218313330909,67.86535357426055,79.49859398118474,79.81844899042898,66.18954302433792,46.47819588761669,26.55706443946286,7.7573656266129,-9.195044425229455,-25.606817903382193,-43.359795837326864,-60.8015430700939,-75.08666636464493,-87.24665262047208,-101.16025081687619,-116.95429459332858,-130.2826074119089,-144.04667492650142,-169.69970241711437,-191.0957068782939,-150.71496389872152,-29.803613173207864,94.6079493703953,146.87419685743433,139.9320953084672,124.16095966337802,121.85992602480582,125.2281777697586,119.26016949355636,100.7853029198951,82.46497033400453,75.82957234149384,78.54810941324588,81.61917649469524,78.37672390640033,67.80469536292209,52.85632437989013,35.319865974207396,14.843715443484221,-8.697325683704664,-31.819273267805,-51.78012034080297,-70.72068003915759,-89.92326527720257,-108.7774459176877,-128.47640155667915,-147.7226253119808,-162.70092529254595,-174.9842868124637,-192.91794319442207,-217.6791700179572,-215.04254200618143,-134.79094423960004,3.2242193351227395,109.86105371663841,139.87429808948232,127.95391759027802,120.20812838146077,124.8310462859193,127.81978108957541,120.11063054070854,104.7739923788212,94.80109663223952,97.38197819847338,104.32239222282857,106.2258739911223,101.40842896368711,90.60463571126698,74.76464605508727,56.55022167773685,38.16272347703002,20.603562948359873,4.992650645476132,-9.738505920012745,-25.845757350025817,-42.5555722934234,-57.83386840765475,-68.82071414010986,-77.50003070353627,-90.1050941569951,-104.5630788601012,-113.71734781747973,-118.24802664324264,-124.69930914085867,-137.09932832571985,-149.57307350086785,-153.19858004645621,-155.9386850718676,-170.72045137220408,-170.0680307757567,-97.03047319795398,39.849699749949565,150.57785424708817,180.1213589536329,160.41099275156756,141.7672821713993,137.31250637584998,135.41414765823615,126.7271877265694,112.15363251076312,99.29066168952069,94.11952587818513,96.02711919149901,97.50555320670423,90.76412394775195,76.86569213772637,61.517360659681394,44.81161265344604,24.08388055799172,0.5998912906055128,-20.33043534588885,-38.23358862737187,-57.496185798864985,-76.20456963898137,-89.07899862238864,-98.72542513375271,-110.25484230994024,-123.47194078384997,-134.30082441039912,-140.257044495815,-149.92752804238643,-170.23144751110684,-171.0181349356213,-100.78247794531147,25.282479242374823,120.47304705228971,139.48044031985623,113.69267061735297,87.38583860530689,76.94800043357901,75.65142745998355,69.08025651703294,53.36378664163981,41.02688866333513,43.430537613267916,55.58892517959268,64.63318101000918,64.83412441533265,56.02763017271474,39.94767083360511,21.555582535608988,4.224057479541191,-12.044626270195366,-28.141809510409047,-44.73996660175003,-60.80634412850666,-74.58899423964037,-87.58829764415792,-101.62096016389535,-111.81779235286903,-114.09699088423959,-117.70688056285658,-135.13999030738105,-150.08112272501344,-111.89339259142578,-1.6947584541611531,115.10411583981161,164.75630677574114,150.70902609233215,123.26198097191607,111.32256653200209,108.65578547633939,100.07281658992127,82.04290122637644,63.297082462590105,52.178449844774164,50.87706518038104,56.536147637667504,59.168495088234536,48.81974571707558,29.262935445996913,10.37925518735606,-7.165781349363531,-26.584422832513347,-45.81293432076901,-61.4864865715506,-73.1740260316559,-84.63078945208062,-98.49840181042575,-112.19882352706647,-123.10786111915017,-129.31702359101772,-129.19101993180558,-132.7545181354033,-149.85676440019068,-148.23231627707906,-73.74748294921167,52.727936061782735,139.36462849219,146.9812645582828,119.21366424875468,102.18037206020232,101.46544399877702,104.39398847480592,98.70476797381036,80.46920908199728,62.79993146853917,58.83455470825238,63.008400125289036,63.176790499000354,55.24123153580582,41.471070703741255,24.296569030954036,5.203826264432671,-13.248954762579777,-29.089711852711144,-43.710720438053094,-57.934355960257435,-70.69772594736295,-80.93157707480076,-91.21214301317198,-105.74424803820895,-119.90762832427703,-124.18886069205038,56.0,102.0,70.0
122.97195245784071,124.9488873567067,114.86300744463344,94.75160557080261,79.19366428916905,76.03342902140814,79.77930881983426,81.49541800266127,75.9704900820645,63.806783168316436,48.038347172093225,29.75542383068877,8.273833642438486,-15.63225999948012,-37.88456077987128,-57.22364763348361,-76.28463782820452,-95.37990546984099,-114.33928932611819,-134.2695134681826,-152.57688186299328,-166.24693441823004,-179.16552820191174,-200.0149338260658,-222.2969645241315,-200.96029071737732,-97.36046267669816,40.99508150416066,125.98459208127274,138.20689231036988,124.15098324167874,120.78407539370698,126.47987776294883,126.79288790658484,116.00646564487533,100.72451063378553,94.39311219015816,99.48732571932398,105.59035836763282,105.47924475419836,98.88777622563046,86.45257935101144,69.61543507407055,51.20347642412472,32.95706419002546,15.865097251137223,0.7811104094489445,-14.230632226205561,-30.690575099888147,-47.238698065948235,-61.53050574789837,-71.2586005583038,-80.60152131165819,-94.4502192076167,-107.92194303113185,-115.24616714529057,-119.61688258871239,-127.70525308764488,-141.21437694154918,-151.60928871453206,-153.23442143744157,-159.0899826808324,-174.7264636893356,-158.11088387032467,-60.83466997187816,78.69130726684037,167.36327228771285,176.83194054959105,153.53866038409183,139.36357258918954,137.09720334299496,133.75207288991373,122.84739947679226,107.89843420934933,96.89098881772078,94.16705025191284,96.9331563509432,96.56305774562236,87.19771281397261,72.44314396790122,56.9652307939506,39.295406468446814,17.368562551533977,-5.9035757188482,-25.61339365643083,-43.559493686063945,-63.25461261532712,-80.58987821069299,-91.9020347549856,-101.7700381935497,-114.02717772248093,-127.07504592131552,-136.39446816548764,-142.0343611083128,-155.0862005533711,-174.97124550686883,-159.3498093880452,-66.78071347160301,59.65932872953338,133.44369195086009,134.31335973450018,104.84218992673836,82.72327511477086,76.27764005848204,74.81317339812861,65.15361498895632,48.720547878157284,40.09728112580566,46.53075465153983,58.96504330077159,65.63885706456314,63.1954546068282,51.95402926925477,34.637571477169224,16.402468830925887,-0.5523783501310081,-16.66857570967661,-32.88730543623742,-49.53540520816903,-65.04048396581,-78.27072219145855,-91.61063146643964,-105.3032646513388,-113.17170286297433,-114.27346345144282,-121.21617728602283,-141.58959711111893,-146.77555103144073,-86.01040904048195,35.59290532885595,137.83303421140903,165.20464346223375,142.09014231532737,118.0049984489164,110.3537125115283,107.24480652140444,95.59046024015348,76.21294723425252,59.1074655619763,50.811326549743285,52.09649515463986,58.19182882089356,57.65610175333236,43.6090128204079,23.492121223889153,5.372466440684762,-12.576231674115192,-32.33635884680572,-50.806181030360285,-65.1699116914859,-76.29763709748005,-88.42522508680423,-102.64485610179159,-115.68604979632931,-125.53623532581683,-129.79450770141824,-129.05979417631505,-136.64420326029094,-154.05337518367153,-135.41898779184996,-38.867452383067985,85.53461963648348,148.7711111147844,139.870945899117,112.24525192344043,100.78240799904191,102.52984596247043,104.08159858727274,94.4523431587912,74.4540902805671,60.14120852828175,59.806981637418865,63.84101205934638,61.669776652241914,51.7248451829895,36.79252304892351,18.894955105297953,-0.33452234128292835,-18.084202378221207,-33.34993881938355,-47.891010595282296,-61.83640153753732,-73.9103030596674,-83.64815020625558,-94.95261988747667,-110.3467574156237,-122.37716914290355,-123.70717509153599,-125.004384319327,-141.61054022720361,-152.64871313897982,-101.60260788672333,18.00727413192813,124.29049003307529,156.15475854877033,138.25976623052108,117.6800862601712,109.52381385851982,106.58490111330427,98.20307570024319,81.18459346542109,65.99345205160398,63.97292798490532,70.93180248601804,72.63945489588606,63.07400953330926,47.469616101968185,31.683672554654674,16.986155101987606,1.2065426521386977,-17.531579973642422,-37.90236828849526,-57.418920165889176,-74.1756197450642,-86.97818257662334,-99.99368171073182,-117.85209456962701,-133.16135921958272,-136.98851578613125,-136.08627156526464,-147.10163623359142,-167.6360518536473,-154.22205150681387,-65.86628766067672,58.30130757412304,132.550542187574,137.17338779395067,117.43104455417485,105.16640561981349,98.99956387743053,91.98262075410553,83.57956586010802,75.46293845023064,71.27189445366156,73.77462626611775,79.25082109845826,80.24789884601918,72.80738228941755,57.679623393284835,37.409839711024325,15.504304380743282,-4.077006182076617,-20.381267391703712,-36.432470453770456,-54.27709378032675,-72.3146502828269,-88.95188857216505,-103.90629365928092,-116.65629092161383,-126.5895525553412,56.0,102.0,70.0
-176.16462827689708,-138.7144649631874,-20.65726307804033,112.73444654596788,176.9676409036391,170.90173418081054,147.7344853331741,138.0436872034303,136.73107186449715,131.38999620246273,118.59658666471191,104.00334121832167,95.22934325937877,94.7188108159515,97.56041315842901,94.78956842083801,83.17707890060531,68.01549647805984,52.23109354974337,33.38547007248698,10.517509256862825,-12.048028917755117,-30.73206217934663,-49.1032526420852,-68.81370285335322,-84.39500908320765,-94.62048979061764,-105.05341706042499,-117.88779992058004,-130.34486498132415,-138.07670770699536,-144.48507843604918,-161.15741544387328,-176.814185123804,-140.56645906852933,-29.587835134050255,89.06694403523431,139.8706542733487,126.70650604357697,96.8193405784404,79.49008618986214,76.04484186678314,73.17925977884477,60.55476772722327,44.78960437290426,40.55401236950503,50.14623555158963,61.78439744398762,65.8697556518303,60.80871308561293,47.34725823754391,29.280702170992832,11.371901960311362,-5.256318737565882,-21.303753505887663,-37.68520493557981,-54.235453273688975,-69.05060488925447,-81.97420936898268,-95.72525812770617,-108.46249284358386,-113.8465360468409,-114.95161803839451,-126.11657866643833,-146.99526014291564,-137.55615657317975,-54.41301568269903,71.03913100509,153.6802935068191,161.2894653961645,133.66222355577685,114.32556138917884,109.75493518075915,105.01420514026871,90.39520621032776,70.61101101276296,55.68984041552195,50.273771671672925,53.7761553137166,59.268317977757015,54.89092325178139,37.893954053926706,17.976598267825757,0.37257990758655013,-18.183554992728595,-37.972195995777575,-55.43320746436248,-68.55245426272353,-79.53049843550403,-92.43262820560047,-106.67208389787154,-118.91374016877178,-127.49604320670528,-129.73495673551398,-129.66867420168907,-141.75444198012354,-155.28249901755123,-115.3410635826614,-1.3338941040681052,112.56644309891448,151.6838283762889,131.39877422796616,106.91142481527542,100.52352799228865,103.56528417325846,102.76317823812869,89.19741907690505,68.98189022317119,58.79618016256845,61.13658859368905,64.08316448817176,59.4884168256125,47.802284646236096,31.87070036334565,13.36861556191801,-5.736999950048894,-22.684173527015954,-37.57001632748082,-52.028187314810644,-65.58304990987816,-76.88808635756745,-86.49822885044799,-99.11954021312359,-114.68067926153515,-123.80389670817898,-123.16105043078983,-128.1450147087762,-147.65354033573203,-146.45683945586825,-71.60701978178301,54.375532502139485,141.42399390138874,153.67709225260117,131.22973093707114,114.16961118764975,108.63740283958782,105.10386017749738,93.94596168348073,75.92650059967,63.895556524023,65.65872548472291,72.5138149873326,70.92615006426836,58.858795385918704,42.78076519544079,27.379094459407508,12.668773675096382,-3.9026165925689495,-23.369433137142764,-43.71577428106307,-62.63411350715015,-78.23855297234132,-90.3797167397396,-104.7265008619604,-123.11078613192757,-135.50024829343073,-136.49070785952026,-137.46571263075103,-153.23428148559825,-169.87539099569028,-136.5724941578158,-29.684700044266826,87.63435346104679,139.56005886844306,131.79272342106756,112.76389462251238,103.18121834861964,97.1764517487173,89.63912226980767,81.09194729964022,73.64829923158487,71.32703017932805,75.38350471497562,80.27872977119658,79.00101427287048,69.12180411837531,52.225814636699084,31.058532180750927,9.475465246226447,-9.040170907045809,-24.88087057151059,-41.42562785214654,-59.57554111177574,-77.28443953326689,-93.46294106795607,-107.8396346755097,-119.85603537968883,-128.78789294690816,-134.44759291909767,-143.18953570316992,-161.5855160013579,-161.51098667678787,-90.53562255105084,35.92949089297369,129.64365211018406,148.93958764983194,129.97271869237994,114.91704430268278,112.47064245319763,110.32271156757336,96.92868313687859,75.89981280256143,62.027658471367886,62.425239731963636,69.07936170159091,69.40800786111483,60.30658876794009,48.18247937886444,36.1035116912177,20.371599427117708,-0.36295651829269193,-22.94041461906263,-43.64497269651947,-60.230122222720226,-74.19109608082348,-89.15676241549866,-105.79333547481252,-121.60804738913092,-133.4378825556742,-139.0690157131332,-143.8006121863633,-158.99913360181785,-177.48538876364904,-154.9422686219176,-57.3796661932143,67.54955724181629,141.2905770564846,151.62893560037966,134.81637184650245,119.83886588309022,115.86549494995117,115.27141244466075,105.44447842922688,87.71406070159445,76.38622535193267,78.09258442245464,84.70048908749578,82.76140726179203,68.61826900209,50.394743454535956,32.78735529081645,12.622139424237035,-10.65732859783941,-32.28200832636112,-49.50314845622966,-64.01877483185734,-78.86638260617966,-94.38654833557494,-109.63838981147029,-124.91744767746457,56.0,102.0,70.0
-116.55700933404152,-132.14145112247652,-149.9570632100937,-121.5955695417661,-18.83147122174132,102.4587427053111,162.7147786734517,154.4511513910604,126.22077369203389,112.01888669290724,109.09091015272509,101.84891962730964,84.73254630632607,65.46615933238088,53.09281595243662,50.52113045709897,55.6716374373998,59.45312292213098,50.96479661010357,31.98208353576413,12.727442299817836,-4.743755988210855,-23.921347447681008,-43.40128681757404,-59.66666485908881,-71.73768312543324,-82.96496578111584,-96.57314052349527,-110.50760134543795,-121.85848107871647,-128.88665194580435,-129.36743233986,-131.4534037163383,-147.38858944264703,-151.82780047440517,-88.27801209170443,36.18239470040307,132.60902061022372,149.37659589017036,122.87805301182604,103.29949992570366,101.05236002855523,104.26583306258472,100.26906422077279,83.28822346252102,64.47235664612988,58.60708530596057,62.47412635819131,63.630429016064916,56.70481191081946,43.53795803361185,26.73145403850146,7.780272800152443,-10.934421900526083,-27.09878486691733,-41.775664754805504,-56.09318140860127,-69.13534505913346,-79.68039277962582,-89.63539001352862,-103.61293442959008,-118.44262154384415,-124.25019786274594,-123.1097014307127,-132.83670448629627,-152.17924295099226,-133.52433246760037,-36.758374327236965,87.00498604593908,151.7298426322264,148.3662081932729,124.92000850053645,111.70282836951287,107.9190894959423,102.91543313837614,89.01399519636139,71.20809024687502,63.07915172509729,67.8068729170161,73.29195983373266,68.28068253054562,54.328040750222094,38.18188481045875,23.15104301724911,8.183799489689614,-9.278118727554602,-29.279472327291707,-49.40641664594685,-67.57088187090604,-81.95549187389952,-93.98775244151142,-109.906858245963,-127.83009704195541,-136.75698927188986,-135.94934403693784,-140.2768325228551,-159.75660945157364,-167.78965518119986,-112.060127654971,7.473658403835852,110.81945388944268,141.2957524260762,125.73904337096857,109.07046128305132,101.45984487962596,95.18329314255502,87.21143002860991,78.67419243130594,72.27968628368613,71.96992315445246,77.0713185453477,80.75451572030582,77.00781968515024,64.84879341100883,46.40445363792883,24.673091557752755,3.732180705720412,-13.755304834325411,-29.461524550387622,-46.57649956828115,-64.82514590289779,-82.12093354061858,-97.82771430578067,-111.57501049631496,-122.80292738676103,-130.6652321291099,-136.1452490940053,-147.77930703968096,-165.9587995367373,-149.683444322784,-56.275291989586066,70.03510666952296,142.22981572916598,145.0105954685067,124.20297727304775,113.2636775150077,112.51194480614187,107.7958126746836,91.04573946122729,70.54542416862824,60.78668736630367,64.31542758523298,70.22075977281735,67.54827921277406,56.80880651602749,44.78793599009744,32.11022496161884,14.802209779387058,-6.874552267990387,-29.256994383982175,-48.882465458428996,-64.3631158579144,-78.29815924626108,-93.87044150434167,-110.58186185630987,-125.58383489527135,-135.68150762846898,-140.01060482801444,-146.79379495241722,-165.31251799190036,-177.69806725204228,-134.10287054704557,-20.09497280507761,96.2486439229983,149.47535043381782,147.89000604455933,129.5444065762155,117.61912090936241,115.98701246932552,113.70422770341452,100.58326491150405,83.18937585429723,75.66330460791981,80.11740644533985,85.48395215825141,79.67961606317962,63.37688998424095,45.30174677847862,27.391240304559098,6.048942800742446,-17.29100175853385,-37.70215178221043,-53.82757268622268,-68.18675430226409,-83.34804248061286,-98.80849860375281,-114.07957064342708,-129.02724249789054,-139.54704948830928,-144.54980756991836,-154.91886325262868,-174.83477855249197,-168.6603550202647,-88.98502984728889,39.47229703671172,131.28453890755313,150.51835889984554,132.53571357343577,117.9677461996471,115.75608983207208,113.28474077386595,101.41279667443308,83.66568861113645,71.38791514910845,71.55935099021342,77.90288389071169,79.964350748192,72.73076839788607,56.661081225236536,35.03763229847346,11.902707612663395,-9.157529566361708,-26.433096526134737,-42.001579610055956,-59.068214908972266,-77.42803638701477,-95.39672574193484,-114.01706426584055,-133.7637933640527,-148.53920034385274,-155.35254321975756,-165.09345875976786,-187.15341107443882,-193.03738598660888,-126.38142934080247,4.636907390675697,111.9050109529834,145.12666688840713,132.99858369411524,117.59367883620915,113.89052821096638,115.49313477415625,110.2426978379279,96.8918074568683,87.37976879672385,89.39509880807063,95.97125008424227,95.59584957748609,85.55541062559432,70.36418386681113,53.42112247436729,36.13082261385713,17.812595387245032,-3.5408720429097884,-25.29696139296868,-44.47414432546097,-63.83623397229719,-84.55671019546838,-103.38277494005598,-121.34421189969567,56.0,102.0,70.0
-123.96935681634139,-124.0879161977887,-138.7097324454973,-153.54846231465157,-113.31476116586151,0.6367299809199144,114.04112225897089,155.9451131120005,141.57144177516832,119.69024011751361,110.06742093463221,107.08454771434633,99.89054865327978,83.68089107840741,67.38170685585652,63.45526543997093,70.0095707435133,73.08584926779069,64.86057835892129,49.64394900966848,33.70522276189528,18.941024800130208,3.4690515024959194,-14.884283352704987,-35.192301454478404,-54.93556109606485,-72.17585023126614,-85.42197882330606,-97.98531704431036,-115.34054962885453,-131.7127234828934,-137.0800041188981,-135.84983361632817,-144.62283841049273,-165.57005568217787,-160.01148676279735,-81.53606288613929,43.06862392718871,127.24016388377807,139.10671952506019,119.89470876828874,106.24040208549486,99.79210920011137,93.0252639135899,84.73121824041691,76.41797231229249,71.45280018019857,73.11521321844104,78.63030088620647,80.57247650583706,74.29122026966307,60.05128123139807,40.2964054725978,18.36134346226004,-1.6878825950008123,-18.308646732713783,-34.19141967456636,-51.83446608540862,-69.97905111779008,-86.82645308177152,-102.0291118338743,-115.10294380839183,-125.46601985013997,-132.2766972745972,-138.37083565791124,-153.2578169397103,-167.55071945373274,-130.69820575485812,-18.90632170099354,98.99808988884867,148.57998755773144,139.2615452867048,119.49996196086246,112.54968300643493,112.17654444085503,104.13884808653432,84.80068281967658,66.18400442595035,60.753285481716084,66.40429380749292,70.55442292279992,64.9659138664565,53.26096250422524,41.37663035941476,27.688089633708746,8.846928711296165,-13.440863547953379,-35.33362779473262,-53.740519208206464,-68.36314469794141,-82.57189121738436,-98.69397050572378,-115.22814033306862,-129.14487131513928,-137.37066007957486,-141.1264739720393,-150.9525735994672,-171.40420918578013,-173.01052802891337,-106.68529947222625,17.34220313179301,119.06295098983173,152.9225897190584,142.8893682668523,124.92766381058749,116.36801843873357,116.05301896527064,111.09698976953568,95.30378480455492,79.59035121495837,76.03255388329316,82.23053026958728,85.23185888372035,75.65859083146539,58.04951885476495,40.270199432743425,21.658719463183928,-0.7180128899941984,-23.64798064844077,-42.73817945925912,-58.00255308114597,-72.45036826225959,-87.8510197892033,-103.20373027795618,-118.53408696569683,-132.7532892520513,-141.29554859751232,-146.343685063859,-160.36764648486428,-178.31955590901194,-154.03412148805543,-53.346094136307734,73.07857573286736,143.58771751873937,146.89563804961557,126.93683198835686,116.43984101504267,115.70544242761034,110.89078845305497,96.45799530420577,79.03262276502092,70.19834750438801,73.27191981366735,79.28560551602307,78.89139916821381,68.8794349249322,50.80981233337614,28.33091052672203,5.477191177775676,-14.52734972563475,-30.927501766645342,-46.71419822100781,-64.33197927394397,-82.68068346617696,-100.59903973653107,-119.75647328385035,-138.89332711137027,-151.101220824413,-157.13470100112352,-170.45523107377036,-193.07809369121512,-182.95006907408256,-91.94997287847063,42.024605583572296,128.91396372616467,144.0611914459427,127.6692382957061,115.32801904973833,114.38723511235108,115.05822533914244,106.8354509132866,93.15110408848554,86.83352266325282,91.39583828403767,96.92278682298145,93.53456103607914,81.48608560788601,65.56804573863901,48.427834524259694,31.060854418702252,11.952556940788613,-10.010421840381303,-31.069828989114693,-49.8742590685685,-69.80630991130236,-90.29059826535511,-108.45327206052686,-126.92635283348395,-145.92062306022385,-159.18419049169702,-172.28179707299506,-197.57796248504187,-207.6706329966987,-142.29891288598958,-9.191890219462524,99.23839796442083,130.22650594404928,118.40672174327871,110.48788744232114,115.31149967133561,118.40438147378921,107.80401374165584,87.83714798423834,74.81003986932393,76.77606937688154,87.02896864046512,94.04846372139797,89.69769268531806,74.32683026657739,54.14214656432287,32.22509464042339,9.230518013501268,-12.699044964296505,-33.32231488485216,-54.705628364907355,-75.22577644673933,-92.55667512539073,-109.14057515105577,-127.61051551540922,-144.73541327889257,-153.88179898818,-160.9171936159617,-181.53008952776463,-201.42137040858495,-166.57236237406195,-53.561003738730356,75.12813166458447,143.46441476542736,148.00426034819117,133.51236855340997,128.07881953161166,129.46895762063244,125.32006862473114,109.58588405726636,90.08438664692976,79.56276898951322,81.32387298125516,87.64286690197493,88.87165025690372,80.35395281672476,63.257329195528804,42.07189519105006,19.92533140497927,-3.675426846948603,-27.849565752711015,-47.90175504282849,-63.15310973405798,-79.07284819967383,-98.46981975764119,-118.10512624066679,56.0,102.0,70.0
-127.81531061459681,-133.7541171468197,-141.4329775002394,-159.06084426253713,-164.72483597113015,-104.66360051371979,18.99939169796419,121.55656297976722,149.7661697846656,132.871533868607,116.0686642754296,112.43210482195629,111.12386540303899,99.4146928166459,78.61428480685237,63.038118160570484,61.72037239774395,68.33400352124008,69.98023590589571,61.85744629946278,49.76615528635803,37.82547773751869,22.790098327936157,2.5935159549396913,-19.968318381905895,-41.10320183383324,-58.2503803377719,-72.33887790047234,-87.03621632308105,-103.5579276066908,-119.65891606238137,-132.20988724509155,-138.60388807548293,-142.7702337504114,-156.2479090346729,-176.13857098450114,-162.2060518320586,-73.85051089986182,52.59488485495856,135.66613953504472,152.68417231894756,137.3694951687224,121.21117992350113,115.89745003400596,115.68266359298643,107.443806935584,90.0270872794192,77.11987212265046,77.29007944501448,84.05571473563019,83.81274157886298,70.94769153423981,52.78253848514782,35.18610311836009,15.554949769300759,-7.537095978788383,-29.648103294207594,-47.43459721418591,-62.11828417225081,-76.82050703491316,-92.3336224536768,-107.60198046537191,-122.93583941884494,-135.95795538011487,-142.65113639494172,-148.99074381251268,-166.49261259069434,-178.24466228663988,-132.33472884606886,-15.300862374736884,101.41512967461732,149.8904329403847,141.46004456144607,122.3666957215039,115.82165098993447,115.23706514228356,107.61162590321194,91.21403452835912,75.17627466175364,70.10319944374073,75.22068190379007,80.08808726620519,76.98460297358277,64.34371851936449,44.587557585397654,21.598572899224358,-0.6967648132024039,-19.563806704581538,-35.377772747318474,-51.60826032990542,-69.65777594887605,-87.86884139170431,-105.92327695162074,-125.55385743370158,-143.3845339612278,-153.0398786721728,-159.57707517528635,-176.94280098783057,-196.39877374706046,-165.41002532148363,-53.488650871791265,74.90124077271088,139.46050471498828,140.45821297674485,122.88416400555296,114.12201753720825,115.0272736981051,113.77135757700793,102.89451990698933,90.10349717337738,87.29867333950966,93.47403841134323,97.04542846745065,90.72342761633845,77.1169366104055,60.67521255654685,43.43601228346209,25.84856915286594,5.804472927659331,-16.38144488181106,-36.60823008190321,-55.4091535055775,-75.84626306421687,-95.77312583810496,-113.5660661856597,-132.62901625333203,-150.4771806498516,-162.2567123056516,-178.38101327227403,-204.78218128866297,-198.3803913865721,-107.49178631013328,28.87302905595353,115.82748430565877,128.61779468135896,114.57988334338924,111.03564604993187,117.12669208259726,116.91959789185377,102.34981362075162,82.68433552823586,73.92481936399656,79.3920320396405,89.86822196020024,94.13008767119081,86.14034291369245,68.74599061844691,47.97296166771121,25.618876778448133,2.693842407989915,-18.694097713207835,-39.39147870065143,-60.89614613661673,-80.53651296650153,-97.2453965840125,-114.28291852608054,-133.02378612223038,-148.3270914802995,-155.36456175354323,-165.1637339133462,-189.3087956770313,-199.45248380352226,-140.69665838171045,-13.793468977453868,102.81940783572799,149.609477748354,143.84722310060008,130.68757650503312,128.3114011119253,129.33254207776037,121.88018310717311,103.71382460241911,85.72312932176793,79.00066288106713,83.16222608922683,88.8415516629659,87.46250852513455,76.12363273494256,57.34857711125237,35.74165639287257,13.30871938051747,-10.779663689399772,-34.2491582168557,-52.622262263809255,-67.42556604394603,-84.38360512214273,-104.33609024570951,-123.11940261729387,-136.41703578752217,-144.20708037245248,-153.48920983071704,-173.69994764034575,-195.6327501102831,-172.23301775894743,-68.802340186491,60.504651526493184,130.61082863602036,134.70052841999248,120.89960350941422,115.4690786870057,113.74715666317965,106.11137798448162,89.22679169069072,70.12407939628778,61.898390222352674,67.34071255465336,75.45414897496572,75.08527176060136,63.61698580325923,45.41435787607409,25.53430623763704,7.383306384397577,-9.307316148756238,-27.813925321455564,-47.797823202201734,-66.42134511434004,-83.45282087030355,-98.9698334471321,-112.8360900049866,-125.34367896148322,-133.04975164438122,-137.12322289373535,-152.87471183197218,-179.28543395677048,-165.92400575871295,-66.99194705088289,69.02772373086472,148.34256700767003,153.98696737857662,135.7992652901946,127.73603146623081,128.03413451523232,124.06113826448734,109.15105348473885,88.82789936638812,73.73780242164773,69.67936139074043,73.5433986223543,74.55650823741145,65.69369796006421,51.35918690078882,36.22417666186766,17.483725654337753,-5.917868924951374,-29.038101999813467,-48.921602692643354,-67.38550796352138,-84.67662266181942,-99.21537541252474,-112.42787628355403,56.0,102.0,70.0
-127.17084573714584,-138.55643214431132,-143.90406663491808,-152.76909804366045,-172.4592071993324,-173.0981192161981,-103.98256869993061,22.67090176506517,123.40390285885479,151.22781577728438,135.3351632574617,119.0602687954131,115.73315219130032,114.08975934250994,103.52627699448252,85.98353791454572,72.32471772905029,70.9330974611525,77.11718129348536,80.18292586153575,74.25563309219737,59.20697418243257,38.09437548573787,14.931376657926807,-6.565091183316932,-24.31582823067277,-39.883662302496894,-56.67906395543125,-74.9851370242694,-93.01976292247562,-111.4206925829948,-131.23936171388476,-147.1003415069155,-154.63306895252157,-163.06244834741577,-183.98352977857482,-195.4048674883566,-140.3092658029063,-13.539578891682423,101.76908687947822,144.40967579397758,135.48202338871457,119.014798755917,113.80587647205127,115.45694334491874,111.56041377386117,98.75916923030195,87.99553486969869,88.59220999249735,95.29826600631037,96.26152692633539,87.30046149988267,72.53281198500156,55.71875243331723,38.442362035260025,20.412385831824917,-0.5627222433380642,-22.5440972102142,-42.00266100498212,-61.13325437307145,-81.84055402308758,-101.02104642046436,-118.83993597237206,-138.26947729025343,-154.39041467627214,-165.67342478811216,-185.74541980365547,-209.3941129519154,-181.29798535784064,-68.41370765736846,62.19759421058594,125.68646639970908,124.9082665350076,111.91881542010137,112.47408355535767,118.35715251776575,114.10641021745639,96.41317906540353,78.54969652638732,74.31455391643601,82.433757090125,92.15408254179944,93.12248704648808,81.77413585120586,62.92574806395834,41.672334247525896,18.949863878430577,-3.687072709456429,-24.62155679231128,-45.57227314069343,-66.9140662211645,-85.56441360135678,-101.9768320846326,-119.61721330767139,-138.1658562250214,-151.09404298340837,-157.03833872729638,-170.91619911961055,-196.17412043451733,-191.32150998775867,-108.4830866868354,24.933376589492674,124.07521430123617,151.19457769285827,139.31129730604144,128.93581524393616,128.84580425889374,128.42284354844045,117.44065135200856,97.86003539217594,82.38940353694466,79.41194365466092,85.11499701162495,89.41176912272408,85.18346845971803,71.25831665818313,51.223741056368745,29.369054184144066,6.526472433829948,-17.857191212978215,-40.171770598607914,-57.00834963388328,-71.92291961511002,-89.97857632910657,-110.10567107527139,-127.64641222200984,-139.05982653352532,-146.2657410593628,-157.9818892897548,-181.266633019006,-196.1748801804892,-150.061539142549,-29.68806665712562,89.02356959739112,136.67577429052702,130.59087826088862,118.3316228178525,115.09166987625144,112.4460709134664,102.09887882933884,83.34511994974508,66.18308738154406,62.38143270806138,70.02681078263535,76.51280297559056,72.79978378062007,58.79431223771208,39.66109176471026,20.02182680010894,2.5557870267791234,-14.374551081642995,-33.57684431598602,-53.38630558558832,-71.4699402305734,-88.12561271480833,-103.10564180315208,-116.65648452616807,-128.2676668559147,-134.120167663807,-139.75082418756372,-160.72063594102116,-182.58885858703547,-146.11950743910586,-26.946797868196384,100.55610018359208,155.80852773465892,148.8740173914772,132.02328662153505,127.51831597638056,127.82263492677762,120.85937616843529,103.34583368977074,83.53766595450205,71.37536907767895,70.37534587046575,74.64009910374845,73.00199107675361,61.76345047552943,47.094013136871155,31.359261711504608,11.051947624000292,-12.873576187114358,-35.08336635269848,-54.30810550978651,-72.59184827889806,-89.17045242312099,-103.01925181440456,-116.52676811695338,-132.98297608206988,-150.29543620819746,-161.622210606712,-171.22812204625956,-188.4965468733929,-185.53778955161098,-107.7696978235798,30.14662541551606,134.89546932406674,158.95322814517786,139.1090883933569,120.7909859253771,115.04596137862744,112.48085149618373,103.10568684537645,87.05153510822618,73.73732253595186,70.48632857019169,74.99509646100674,78.44921202931988,72.73325016052863,57.271365217591914,38.12647549550904,19.42215938214513,1.1062538646479143,-18.29284841047352,-38.78240964784467,-58.06797435837176,-75.12832761133885,-89.68759937628066,-101.48144376216118,-114.11565512894377,-128.7477559764586,-138.94145396480036,-145.76404794073002,-162.42949794486415,-179.7683629327463,-145.0316958048521,-32.103377781627024,91.73137032578025,149.28623011264693,147.56935225494612,132.52971041144372,123.64947350771332,117.12544316404815,106.6427292301812,90.91783619729084,75.96956619337928,69.72592790206754,73.0446798692467,77.11371934560655,72.76399031648295,61.25628374876484,47.0111103349081,29.42486910741861,9.690559081930987,-9.883275025174447,-29.777953698547876,-49.432523356876494,-67.64903187666141,-84.18154703855407,-99.63259540884123,56.0,102.0,70.0
-124.32991755418804,-143.6160396548694,-157.75293612093208,-169.92540521967254,-193.85542393669357,-209.57165128296623,-156.29691353420637,-27.717890683503242,89.17724254263801,129.84789614815804,120.43010562394225,110.62926488229115,114.39031457999425,118.65502484412659,110.04243117477135,90.4579432686138,75.67647151391131,75.79395637747783,85.6046794037165,93.66371635478774,91.01940142543215,76.78548173685449,56.94408756664669,35.23580046297992,12.28332308611584,-9.892926240570436,-30.560512901490128,-51.82300850346737,-72.67270169747665,-90.38059572985746,-106.83833558274404,-125.08032710267541,-142.81506770807295,-153.12558388024024,-159.43428932350022,-177.9816440819127,-200.62891385962794,-176.08989107266316,-71.57094258128019,60.39042585692573,138.77713306057478,149.51557664912127,135.15805516259226,128.16353295696277,129.34346635485696,126.54404026967984,112.19627384121172,92.3881036693526,80.18989932446482,80.59076387014042,86.92260852184477,89.23133305047025,82.06097576357848,65.87716075106489,44.97588791963189,22.928905468700037,-0.4242721336623541,-24.764017729612146,-45.577946099398595,-61.220653876285645,-76.73671242528324,-95.76671997475589,-115.6546527306312,-131.62374547656398,-141.301283141388,-148.69228796526642,-163.61744259644058,-188.43700394134427,-191.37159253874398,-120.93073032879687,9.219605429479621,110.8890127581256,138.07634956255893,126.25650852516861,116.66996082676715,114.74048872356016,110.4584875201393,97.30273260620355,77.57378407581577,63.46773774675977,63.90057164587856,72.57964696713425,76.65729219576097,69.61718929913584,53.55575124109314,33.8717877883911,14.726466128132357,-2.215200554178958,-19.673435161363233,-39.39355409174623,-58.80309909171382,-76.41240458227651,-92.65120962579527,-107.12080170509755,-120.35832540358926,-130.64439382539237,-135.05487346535645,-143.8659523314963,-169.03994789579514,-180.8045077053737,-118.58119530815594,13.832379483861779,125.29363142284006,157.81049983351087,143.21196545851632,129.48042182995366,127.71404388259593,126.94463327579456,116.6862585868698,97.34481945895814,78.92898125173173,70.0109905163316,71.55551213684988,75.18681583465282,70.56059779832138,57.58817702071947,42.79143980719873,26.070831157419935,4.279543158206094,-19.647227885254644,-40.8514559227917,-59.64751262434714,-77.65622869347743,-93.40846329466416,-106.78518764172458,-120.90923692365608,-138.20991035676414,-154.34591537253783,-163.949492373055,-175.6098592945639,-192.29239126207423,-172.25518859650927,-70.57843537380256,67.82797891138517,149.6001721448086,155.1933325925116,132.5305659536375,118.07672215525697,114.53597744290187,110.70440049644273,98.83683546926453,82.44954616244794,71.67947830402532,71.31492519614781,76.54100839781005,77.94892445563517,69.05441227440899,51.83939866642787,32.622300388899156,14.15230230849113,-4.332571498407383,-24.18262404943724,-44.57317622590828,-63.21731419181509,-79.64015674870862,-93.30068927933829,-104.83300274166447,-118.34246406534149,-132.42137991633237,-140.75115107849032,-149.11985919578547,-169.07942181344853,-177.74044584314905,-119.12597977382302,7.072903795862847,116.54485851773572,152.7631514578349,143.031291322496,129.29806993667293,121.85062936574568,114.6944859243807,102.49686385677434,86.12411316620884,73.03386289625018,69.94410050669443,74.67041031449688,76.88708043602897,69.89583572704014,57.38499014844844,42.31425626163223,23.79063793278206,4.011421174908574,-15.577827736938048,-35.551830611450185,-54.867697920194104,-72.59481318321932,-88.69221798508596,-104.12670031552007,-119.87041411123002,-133.2315851678114,-141.070596658772,-150.66927095843243,-174.3310173304758,-191.77250100660459,-145.90754049953443,-25.129608815983342,94.27476628519835,145.03349617933034,140.03031123953215,121.34274200341869,110.18835557449357,107.2715803398395,99.8380612679025,80.28185253743375,61.101004690709054,57.529786732296685,67.17311799041424,75.22366534362445,71.86006801770739,59.41472204097732,44.93480780707445,32.004739997873614,16.371524562297097,-6.1040158199946175,-29.65981336505827,-48.86164615218699,-66.60451038347806,-85.94768310166884,-105.33266480989577,-122.21704092653594,-134.41990143617934,-142.4785426047464,-155.43242101812146,-179.90044772859866,-184.61211096510087,-113.38447284085265,19.799475169300695,122.24153033899198,145.89582096423814,127.81145495280494,113.8660894130405,112.11401006725757,110.58887542848248,100.75002896511417,83.48118787747148,69.16819017741426,67.64788037094388,76.0599673076934,81.28627580141348,74.92218384697293,59.673128248813185,40.05990107553895,18.381506694810586,-2.4115791271985056,-21.529641715022127,-40.45955929994913,-59.70736074413224,-78.41393285177925,-95.92623985636793,-114.04826041022687,56.0,102.0,70.0
-120.86302833419083,-135.03157995261944,-143.30514645713112,-151.7732896776716,-170.3275792153397,-194.00580297522,-179.9520201549363,-86.17170727670963,45.37202622796222,125.88735968484019,136.2435886158467,122.40157105072649,115.7315407360939,114.15633449084339,107.67739530969475,91.87611325395044,72.29277422190255,62.08767574942859,66.15241638444697,74.69549830436695,75.81241349684487,65.66126356596567,48.02865073696948,28.136772680653177,9.655238517675997,-7.038129745081136,-25.200817106286124,-45.170276271867195,-64.05172601499906,-81.25593249567305,-97.01350525872445,-111.04877214854378,-123.84538281417939,-132.41962853531268,-136.30083138360988,-149.66349508040133,-176.54510167416657,-172.3670599080393,-84.43638098802063,52.55889116298588,142.71709862065063,155.82250874030734,137.9323569950987,128.06928146682856,127.97965330022976,125.19630031359975,111.68027140898826,91.44131314988907,75.1603867717347,69.58983453843882,72.93048460131523,74.96054671685185,67.36631363194685,53.3270617916522,38.35184964897378,20.30381882508159,-2.686557450351815,-26.14652843739868,-46.40879446103985,-64.95501255984564,-82.51707283454893,-97.42356206043911,-110.61353421548247,-125.61059393819957,-143.36540565887336,-157.72361554624877,-166.44728711349038,-180.78400607962928,-193.12700265202784,-151.42251813712429,-29.906411316377028,100.13699874876775,157.45130595705666,149.2255523869575,126.88724905700157,116.35216039716505,113.97288657561771,108.17426797071707,94.13988169708574,78.35975247396618,70.56043021070298,72.64061243265857,77.7493674408209,76.52433263658298,64.64765872870177,46.27490896085166,27.20329720057019,8.884999624427621,-9.901480331785006,-30.13224948691982,-50.197651580854895,-68.1862247656251,-83.91932032915597,-96.69545937646053,-108.3954068282574,-122.67202189278483,-135.51344029384953,-142.48392349020236,-153.69535126187054,-175.11228344855004,-169.68589579582965,-86.85316162416012,44.593876449299714,134.5602741812992,152.36155927248498,138.4277994277875,126.68148740586847,120.06257775232507,111.8014556420163,97.95128646907743,81.60825746983127,70.99824206220038,70.87808753099779,76.06234607850274,75.79854470354533,66.58542727445527,53.33894989903051,37.290017241917255,18.06297958263424,-1.6324943570170596,-21.324183220306818,-41.26563779817729,-60.16516155981821,-77.39918178154232,-93.14113743341984,-108.67770405859088,-124.18794949305487,-136.0265927341302,-142.9816965359009,-155.9689486971457,-182.26745305073084,-187.3131778761024,-116.59031193567846,13.810517819782985,116.82696133396912,147.31425040463319,134.60793914494414,116.99570905930818,108.89226626957034,106.25309074170012,95.23482453797124,73.81678939632891,58.1891343398219,59.521695392594744,70.32993004110392,75.51732864442035,68.88954283533367,55.16020345445169,41.07640347817051,28.096986763104276,10.49520090188863,-13.188765263533858,-35.65294815678816,-53.91236954971097,-72.03254917372807,-91.66875712592585,-110.56593888626588,-126.3066988765056,-136.96054975666777,-145.12342945868113,-161.68812192660832,-185.96200549147582,-173.37001888017394,-77.78083559988193,56.564915224338264,136.6649449724641,142.36367459031212,122.28730662515586,112.5415824481374,112.18534852350922,108.75930172455801,96.20700798597724,78.46297577779644,67.2458047241921,69.55397211899493,78.49091459692103,80.68109147669475,71.16952756974732,54.34499574749628,33.88787518568504,12.173311599103357,-8.050679668146794,-26.963082097312725,-46.00664975265326,-65.22487439180911,-83.56650192801139,-100.9904741200677,-119.53906290621374,-136.7430728093072,-146.64994930989351,-154.92973706008442,-176.17664553422003,-197.88265254364507,-163.5730299857982,-47.202554733499134,80.11747078736894,137.94901416798663,133.04149011583476,116.63698824107436,113.24343468376206,116.35714958104059,112.51447468311076,97.46642944397999,81.105997777601,76.83381018153655,83.24135240343138,86.71009336712095,80.17939310119188,68.05039405838855,54.948334387996184,39.08353743614644,18.0808146046966,-4.847874060289311,-25.560492025842404,-44.403068659393284,-62.88605327762785,-80.16771720264967,-96.41314302492107,-111.82223223040337,-122.95747579966621,-131.9725371036263,-153.01756713071526,-188.5935083384102,-194.66701717863518,-118.60454004123469,7.315637848892951,94.20651218305716,112.85587854441552,100.58267353712077,91.61980925189378,91.45214887481801,90.7818374974239,81.00206206594764,65.75015914137218,57.90140734187882,62.851365265481455,71.78404100951258,72.88676866057564,63.19645957893392,48.11076036655825,34.3244913524534,23.25495984198872,8.87351460796248,-13.027839025093407,-36.7647075781216,-54.747455481849606,-67.84515349038432,-82.23220428113275,-100.63873462131919,-117.58905452884923,56.0,102.0,70.0
-114.60569140006122,-130.6055797420138,-148.21978570831448,-160.493200199187,-169.5252030693759,-186.19101551097077,-189.30709301194685,-123.10320976393024,11.546719848672103,125.63142572575757,159.54418471329527,142.32183165503062,122.4308470967887,115.34993165723388,113.07369821716796,104.87112319027055,89.27354301887867,74.99844461889016,70.32686929765293,74.23623625587524,78.39490224891792,74.14350753795875,59.69047150442297,40.68873894210523,21.863421686776356,3.578039999768082,-15.613588905668745,-36.06976049298476,-55.62985534787939,-72.9797877548417,-87.93197942696995,-99.97305313960038,-112.2436774569576,-126.8978524837248,-137.9856102971342,-144.56430553964012,-159.4650150258916,-179.08660065997344,-154.53509885006912,-49.99500105944283,78.1225987246356,146.00613865621315,149.43137244170055,134.24661052253202,124.53303569269166,118.11692014430147,108.39114514391517,93.15803424475928,77.59457315022227,69.91257501501033,72.30037365449795,76.94263513940976,73.88848482515667,62.98496083092702,49.070837728985566,31.96402655035774,12.3248097825728,-7.273617855850004,-27.107824582750823,-46.88264115617561,-65.32054037823018,-82.06926835094059,-97.57812277814378,-113.26015637458165,-128.19175390157866,-138.31284697675542,-145.38145167645862,-162.70627914619314,-188.6534309239497,-175.9796678485411,-81.6914360380039,50.084977469338426,132.74111026173864,145.99212059601547,128.96340839407463,113.54807556718636,108.13917733737885,104.44368577071299,89.61000815512364,67.88327015151835,56.83637806390226,62.35903642559672,72.94325184210561,74.74465988813145,65.31804171174547,50.909975188565355,37.37505822953408,23.768764240997413,4.031455976901807,-20.129297999166177,-41.2353723557716,-58.97925926535513,-77.61676566026047,-97.32284506238238,-115.53760863391007,-129.9466589775484,-139.21858358090563,-148.5128657178775,-168.94504426825722,-189.0415248929949,-154.4599020790764,-38.52938860842959,88.1713671026664,144.3660695666269,136.8375991113052,117.90776844668467,112.05701018180525,111.9460335092698,106.1045732040185,91.16638540974097,74.02335421100067,66.55911952191785,72.06321282548409,80.28902754429318,79.02540390057739,66.82582066081736,48.72383752117033,27.59888297229219,6.117629668578962,-13.572272192271681,-32.42001019922387,-51.576357060142456,-70.66462906518117,-88.6167996608372,-106.18478444965473,-124.96031792594896,-140.44031557287963,-148.52860211369426,-159.37507398441213,-184.31154199149503,-196.47836598758042,-136.93197675179727,-6.850268763435048,105.44268394538426,140.722622938894,127.60680606288352,114.2333674563725,114.12353591556167,116.40782761430604,109.13449799368448,92.16490362390947,78.31545013098616,78.11767686904481,85.11904768149506,85.80020611583598,76.94297811367767,64.32988273544619,50.83237220329629,33.505651945040036,11.412732971845644,-11.13263226334844,-31.0958986094438,-49.78069416229712,-68.05425029712539,-84.89605078660088,-101.06052534503381,-115.6154859429824,-125.32854486541932,-136.1068895488041,-162.74765781288994,-196.4123125388323,-181.83262818691526,-83.37309351268105,39.51502737876611,105.61315222174291,110.42085329651671,96.94362882526046,90.9469113889509,91.82627126722225,89.01987147592153,76.63876926820461,62.19662472473224,58.18954654623841,65.62351343625998,73.25613632720933,71.05355814566799,59.06362704086591,43.776597781023696,31.0090188551347,19.77887536070768,3.250212482347797,-20.129980892210334,-42.69435487968448,-58.78674420580611,-71.61148891349511,-87.22870569312097,-106.08267453721984,-121.05752647725943,-128.43059237467867,-140.1789894906424,-168.04889732031268,-181.7795301725615,-123.25883068905131,0.6224477883628756,102.82272425568421,131.70735932887015,119.19335542488433,111.00009639995328,115.73630423017195,118.17195450865368,106.62639126189258,86.1744504696263,71.8445041223205,71.58427605011923,78.69751468850941,79.67502653959097,69.63368284138177,54.47678295116222,40.30406914574067,26.751974446367974,9.040638717972358,-13.169326193854335,-34.07284060902389,-49.27598162898043,-62.096556513857855,-78.3901652714345,-96.85697860537167,-113.3704426546971,-126.9467512976587,-139.22028914378927,-156.5366686063897,-180.5075797671825,-179.15711099925187,-109.04908664309501,8.148951272404263,96.54126752898601,121.6081544149625,112.07006981405642,104.23773995158321,107.90446492437691,109.62766198820259,95.87435078841378,75.1478234101397,65.55467145265868,67.97767534005483,70.42125684055792,67.90654181046368,60.83481146960705,49.5817892583321,36.36438842905999,20.060440710072395,-0.7765491170189359,-21.181398387403835,-38.753147376188906,-57.505339874224134,-77.6092103711599,-92.7757464319218,-102.73307929144886,-115.69460580878895,-131.893033897506,56.0,102.0,70.0
