-9.64420725345248,-298.6297152030829,-450.4501628354962,-448.1285323239428,-396.4188436536826,-369.3069027606702,-360.5067121714532,-340.2571705780677,-297.40591129320495,-243.15063367220608,-193.54948421082952,-154.95560368738188,-125.44329756898095,-99.46719413274987,-73.61937598784613,-50.974232259679866,-34.56016992972103,-20.17386975360644,-2.286893984891545,16.629245781503496,31.272543244823094,41.81694200922691,50.37735693596778,56.04387077420606,58.26797342673335,58.91874109580963,59.001468998846065,56.796679691381385,51.49622041006232,45.81804540277922,40.68492198935125,34.512180945411906,28.595995746055703,30.14676558100009,44.5527593338239,63.67551941904496,74.58862334774506,76.29942524080926,75.63496474970985,76.16146838109194,75.4111278508373,70.1224361932669,62.72550583410081,56.09173358229721,50.043941494498505,46.08821609726259,44.50141315010139,38.89781477007003,25.025342782714578,9.700627301167193,-0.8533282669291856,-9.61900974372507,-18.948042031549257,-28.830193440957228,-40.380312532337996,-51.9618517788903,-60.085892542379234,-66.61275328848525,-76.80790997581153,-85.53227372412087,-77.50108295701405,-51.65562174322202,-25.948899483023894,-12.005414486755896,-5.118668402109954,0.5156207884755923,4.675104306838187,6.92968897361711,9.49542740966663,14.635267579211298,21.17721085244129,23.925740512539797,20.069495785610705,12.761700990830239,7.4911111482929025,7.164080087242239,7.801791829983323,3.476628948032481,-3.3464189027863838,-7.462297983070529,-11.551711129393697,-19.706888993857003,-30.17804071683626,-39.03580823255308,-47.18541222813495,-56.486909972223614,-58.8460681480455,-44.43043716227725,-18.565246364015835,3.127137863047161,15.495934148229253,22.878396703221902,28.01832766274681,32.86804392196842,38.088696493738276,42.528299383684626,45.14979833507637,44.58311913415052,40.78828949279189,36.79408780852499,34.4889304401588,32.362080472855446,28.916985295534513,23.719455274626018,15.325122812341627,3.53508587195398,-8.57467250380496,-16.949649518998243,-22.483549147890024,-29.806297865710714,-40.528141851298614,-52.7666368056841,-59.76230042277224,-51.61456422393013,-29.4820593285124,-6.950711455146776,5.435152753865373,10.438003336497566,15.647759723220474,21.510867824814024,24.096399933139576,23.212161599171537,20.73369851337887,18.886627535504456,19.295091930499215,21.328254842959407,21.86361819359801,17.63201859080384,9.186896003833867,1.2359913932298356,-3.406560788313362,-7.8551385734896675,-15.470771956349951,-23.889520927594035,-29.898557747792193,-35.87395944007292,-45.88637158822306,-53.57426448375776,-46.10360532144221,-22.973081424360643,1.5092760380349663,15.324529525596947,19.602406350405943,23.034983597902357,27.514263011258357,27.064910748173396,21.86916901241572,19.129232813103943,23.033699914576623,28.306063301360954,27.656869039410996,20.889589187045164,14.40738459912082,11.425951279494244,7.443113346413486,0.5913579153133901,-5.287825051604784,-10.596298602208732,-19.19092509222647,-30.360390177079587,-40.9304877756034,-50.904052577157444,-56.64445225600233,-48.66244911203768,-26.22210914664471,-1.6949371770412698,13.410649736081286,18.979674198132454,22.72699169067938,28.347292320029936,32.17459155496391,31.40655288948087,30.12936007513056,31.11433890602572,31.14519650276767,29.186496398522593,27.29831824314453,23.587103173205715,15.826080242594747,6.427350157623386,-1.5400967650231179,-8.772344474257354,-16.123755368818394,-23.305179835340954,-30.719220162758027,-37.56540295830343,-44.987723555494256,-55.512958664584424,-62.83350974315523,-54.25330789199431,-28.995963475706237,-3.470025740412782,9.374544908974105,13.889407706953852,19.545763802389718,27.531380292718968,33.95666989834814,36.56062308668938,36.76085520660569,36.80985541496393,36.355988089066344,33.46232334247627,29.04275058980457,26.7369444176343,24.146219564247676,15.503101325470913,3.3285156008149466,-6.270925573321884,-14.049710187082196,-22.973557246985965,-31.570438502581695,-38.653872150561256,-47.66059831607789,-60.409596783519746,-70.11472924412787,-65.00435506321368,-42.49391132571239,-14.363548850407236,7.697876396970312,19.687424356696866,24.521747396526944,28.762742773016914,33.49122864153126,35.53900999719611,33.78529604580481,30.411868147867377,29.53344654063893,31.655255188114495,33.491934917626224,31.505958855081683,26.02576417587391,20.6682491671723,14.850512531893347,6.317153292651104,-3.7210764533370084,-14.028028795468172,-23.725196159119665,-31.67379124016086,-40.41198370270592,-53.43162791155115,-64.08455277519802,-57.75933478170096,-32.59814061378888,-5.044056329920288,10.24680370221739,13.891514091914477,14.775805260000993,16.75020394330668,18.185818655353522,19.57433940644989,70.0,122.0,82.0
-20.700276884382323,-9.67141979030197,-3.4323970188396937,1.9409988498848065,5.4605936110555975,7.5117221264816685,10.671419260387,16.56888134789465,22.598406318841683,23.447081537981806,18.072793391656013,10.805971690968265,6.919229592275506,7.584995754601883,7.14823595243375,1.4485144214426873,-4.862173878850984,-8.371623490086971,-13.46740055087143,-22.681190452089197,-33.00615131152222,-41.26648214166148,-49.90421711474266,-58.45152865505099,-56.543826454176454,-37.443317575069706,-11.32651916559625,7.507623954422485,17.966230066091455,24.514332513126828,29.368655439821282,34.3788101887528,39.50128746671653,43.52267709804154,45.37507629292386,43.72600243655047,39.49979463173586,35.97592995493849,33.95767124169965,31.516026725422208,27.643534316392973,21.68372235424476,12.197200533827656,-0.1422138586366133,-11.470969035394859,-18.639284431599233,-24.2548626805427,-32.58888924465055,-44.07288659744026,-55.80457087417935,-59.235911921087684,-46.18555942200931,-22.33854787555053,-2.2019688248727967,7.253794384868191,11.722674293085257,17.464231544572783,22.690846933719065,24.119769501658798,22.569603808901203,20.033209747695622,18.750399120494,19.812561115451235,21.815531558103388,21.20448632101329,15.465030043405234,6.6113247295577535,-0.40862279480417807,-4.48142094769196,-9.73058920693994,-18.021419220806397,-25.898696868140235,-31.37405846065131,-38.36121908642322,-48.95293337928605,-53.36005782379134,-40.56514107066524,-15.29996410161257,6.800396528748138,17.19121339999281,20.346633522943044,24.467070742532794,28.076679065633105,25.79985583833306,20.479049720163633,19.64568053461035,24.80577578705384,28.909815349208706,26.113146323638762,18.681916016137208,13.290599132445559,10.618943549432368,5.6187755779989095,-1.3347329485131894,-6.693606947286966,-12.646745783124034,-22.329375717999078,-33.52540290909591,-43.86816514251711,-53.3952339304856,-56.08359737207777,-43.27868383032115,-18.68641077354718,3.8867040862490656,15.705521596514076,19.924627051555024,24.219872704605855,29.877731356771907,32.352177694099964,30.836282605618067,30.25775585372467,31.383121220512326,30.67816235070414,28.62154544475761,26.581567028337858,21.738409775979537,13.092333314359026,3.940400171130871,-3.62093689957791,-10.90708537806457,-18.197638763282143,-25.433893834790837,-32.79096337305772,-39.48681324273065,-47.74786166940504,-58.53250761034713,-62.40752830709007,-48.161345041981505,-20.784083009969915,1.6552236028654166,11.034438265248765,15.17263377273116,21.76213656305866,29.718472878818453,35.09900709213272,36.74130433158117,36.745897749109915,36.81596438929728,35.827256921416875,32.16934998252631,28.086157618601128,26.33348917370053,22.359750236171557,12.01903619614379,0.16917704188931318,-8.514882829017099,-16.49865379359941,-25.616929294442237,-33.70015393198407,-40.84958502864442,-51.08880923762364,-64.0342861867107,-70.59783122072604,-59.94527637373068,-34.29581958076401,-7.04854976593615,12.196220430388866,21.524098188393666,25.60018682430546,30.216541788237954,34.46486713443733,35.398326178926006,32.78447567992711,29.779074038760175,29.940819598840882,32.397197262831355,33.40857074514674,30.117800444261142,24.37312274705136,19.18310568799309,12.66683297850176,3.4795932005799184,-6.6857513985502415,-16.969695084361845,-26.1833727627011,-33.89553371438646,-43.75133615751924,-57.3956038268801,-64.50591779912362,-51.92223268775378,-24.001061188203366,0.9051154175765462,12.12410329370752,14.094174281646573,15.274112800666359,17.28034678419445,18.47632419072163,20.353954779641853,24.9906752566827,30.83216039264964,33.660167181341215,31.04210678725188,23.681553591595733,15.326924719497857,10.669572381653026,7.888314825890878,1.7904018402929824,-6.375769852924009,-14.387896137776064,-24.276110190920328,-36.65022695188993,-49.980822484601944,-60.98507502848727,-62.40934634714119,-48.91641424792931,-24.507956033730697,0.46107357424352485,16.870951587225257,24.527204123483756,28.123236308671277,27.830341959044798,25.394948934127907,26.368841393372474,30.698202346961303,31.821616287345183,29.31284853585831,27.923289318042695,26.564375180971062,20.39937052174071,11.940077266986533,7.815774935535789,4.620065581901195,-2.9273718617484,-12.08651958272849,-19.71802040666618,-27.658302482446388,-39.647591174220466,-54.50954313363074,-62.60923386680404,-53.74646633880621,-30.41331305864919,-6.322198251583736,8.611379324716186,15.307123346555299,19.898111664335794,25.488213751276472,29.723827840371293,29.9900600167749,29.087956778582754,30.469598881104698,31.89794891774031,30.36402209459815,26.70425386650264,23.182927748463047,19.817986828695105,15.046060085467763,7.395995211779413,-2.6728045237852287,-13.200223930250562,-24.02710779107792,70.0,122.0,82.0
20.425498023093464,22.07848029236549,20.08472714214833,13.01105987746761,4.219292738942248,-1.7630343950118081,-5.673366943562736,-11.90584943819365,-20.525516518982062,-27.65734640762759,-32.980391245163624,-41.25116710208076,-51.518262868997326,-51.584164186606316,-33.901959660169695,-7.952075686670637,11.018417349578034,18.42082764840203,21.25891627150613,25.886748037393286,28.076486581657853,24.244909680252757,19.509280709798603,20.732084045222386,26.476898753118835,28.876226408924516,24.145523924135617,16.694112161327702,12.453121141789438,9.565016672393519,3.601250900176637,-3.0709103146759844,-8.14288327102309,-15.057775953861498,-25.591948219557622,-36.587359543450134,-46.79070342724374,-55.349124972261,-54.127990185811626,-36.833772934729424,-11.361878118631859,8.481209771434342,17.332381141481672,20.93024986548119,25.873221990758985,31.111767539656082,32.14265572348116,30.38439375243572,30.567148740409046,31.457897114708942,30.088880383128934,28.101917275476076,25.612462070843204,19.535775882846277,10.32708325800165,1.619063754890132,-5.695915811477927,-13.042997582606985,-20.260009460912897,-27.58972936728993,-34.7780172093747,-41.53784202916812,-50.806876521479,-60.99757270755017,-60.3432805683948,-40.86466392959012,-13.069928720690513,5.564146335258005,12.26887551139669,16.732851700647387,24.106766643529852,31.6682024728655,35.904753309131095,36.788712646462365,36.759660108260924,36.739987185038856,35.04348079547491,30.828019305195156,27.392584341680468,25.74309640768311,19.961095948768868,8.413984192746687,-2.660970310870126,-10.71212324721288,-19.07861721196473,-28.15452095020791,-35.71351801635243,-43.338943002034256,-54.80534430856667,-67.1525884922617,-69.53858050067744,-53.5482916249284,-26.00582581508453,-0.4519530554298558,15.82315314266578,22.906059110358086,26.78622000808943,31.648153454442205,35.14106781504016,34.93800105148678,31.743721449413457,29.44776856866861,30.558560702603422,33.0146881807201,32.92795906067681,28.511229150360137,22.81602601514976,17.577326805481185,10.231872312300128,0.5760451775036621,-9.667351954504307,-19.82063761896619,-28.480589789674053,-36.300319231492566,-47.50584914064268,-60.84752080850751,-63.14269791061101,-44.69570169373909,-15.72338416917766,5.597716335390429,13.20411395558437,14.291364303155872,15.864914578619423,17.710429190772274,18.820041439997535,21.39256943375805,26.729335176229302,32.129046294908036,33.48675269491047,29.300229187029952,21.121477856460302,13.511135566465834,9.952180450547454,6.555045909128754,-0.5409841821103607,-8.663961863159273,-16.951403605210402,-27.653764778262904,-40.48498460519838,-53.652549875117934,-62.74625002876651,-60.057796760912815,-42.58580891719331,-16.852414411256493,6.302964306503968,19.740213238944584,25.892891992896626,28.47294867747978,27.117477898321358,25.129244841923526,27.544294596763578,31.570369346682607,31.249995957051944,28.67547292572391,27.77420191985477,25.370812374569073,17.83145905593332,10.216860845380097,7.167827077897855,2.887091677661709,-5.62599908814323,-14.459934147505301,-21.79661857792616,-30.606808703657965,-43.92376348087111,-58.11538869051364,-61.995990759697676,-47.98048582285765,-22.89842373114795,-0.9164138831768116,11.137641321685829,16.604281758173514,21.428300793801057,27.034194128187004,30.19700362022672,29.61542744033494,29.251237658462657,31.064277494482006,31.79755490083993,29.407478559430114,25.618765150574603,22.252228030981613,18.664399707695917,13.159818527726904,4.654355021081277,-5.736876310799157,-16.226613074373603,-27.428146930534417,-39.38520733181158,-47.37661985422608,-50.76664723172267,-56.78391861632021,-63.041664634088335,-55.67722239284881,-32.14169701596571,-7.331902028656565,5.7320945904173755,10.55437833224025,18.435587162119695,29.513333624820692,35.42621057267733,36.55150955122592,38.418888717426526,41.36676384437021,42.54585960971074,40.72694425124839,36.93129600029985,31.635022378977965,23.722760921155043,14.75249542665314,7.162653403868361,0.39823875135012016,-7.081827006150249,-15.429806387898173,-23.28963317443578,-30.192176501532707,-36.41096880496841,-43.337486343099904,-54.009471505016,-64.3883701673231,-61.59085849599087,-41.40596686676962,-15.894105176691081,2.176629937821631,11.521474751112674,17.350291944264004,23.235665724598704,29.328576466946664,33.496665136859306,34.35976435329401,33.34064090964935,32.61093748658706,31.98056095618335,30.787198082309157,28.434565443696304,22.229071816817115,13.419767004449106,6.482722964426561,3.525454995813026,2.6850871149554854,-1.6470413815638747,-11.84958147993707,-23.09249093993194,-30.2440620199503,-35.49402687689803,-44.339737716747514,-56.336685347518994,-61.04364060158129,-47.41791490014247,-21.104726886724702,70.0,122.0,82.0
-54.03186324463723,-62.53548730439764,-56.55943692221642,-32.81675709490726,-6.243548723608481,8.381667514377185,13.364663713442571,18.595019651842065,26.468205097321324,33.31260375420213,36.411757493838614,36.773195966517896,36.79443708979255,36.521406786306024,34.01027185810613,29.565632713460168,26.915899123706794,24.769026271469194,17.011620022663323,4.884994969586465,-5.186956063939169,-12.9689395110888,-21.73961402867126,-30.533359562875113,-37.706932278535255,-46.20476235255159,-58.65142529083764,-69.43553509525866,-66.81698913503244,-46.143521471331205,-17.937413931987827,5.3260176660147245,18.6361771050173,24.03425534222868,28.111986109685684,32.95557640567352,35.49102126742485,34.199857688906455,30.790028026207256,29.43588908324129,31.2993522280942,33.40973117535735,32.041393720548974,26.810206019607154,21.33888373658921,15.768253630331863,7.589043644950329,-2.3603546071877903,-12.655367595964336,-22.531979060327938,-30.673006030327905,-39.02161829578628,-51.54176503882317,-63.35894759715376,-59.88515294179526,-36.53392247941898,-8.182999775765461,9.04563494250789,13.74959183291709,14.590712925680734,16.478946204960167,18.049318548672826,19.29319936658565,22.693637767589532,28.48449810793092,33.066359810847764,32.83159705785181,27.204229956257652,18.607745936173647,12.099059705028692,9.249003943573424,4.848463804104819,-2.9336521186660933,-10.937474790784547,-19.746006371494897,-31.211593723543466,-44.36365827369094,-57.01752843304225,-63.490352083793255,-56.398767339180914,-35.53905441594249,-9.432754461247914,11.253463420590286,21.996755378219426,27.005978631500042,28.455185620408955,26.33063238618857,25.299165318919457,28.88442052717499,32.00383848752528,30.476758948132193,28.24236047968131,27.50537753850129,23.672770435573447,15.251983294983194,8.980145707878531,6.379527538878838,0.7437240803421049,-8.328222499620649,-16.67220463538191,-23.995528758688383,-33.97801778040324,-48.33528140999664,-60.838217199814835,-59.77654518363677,-41.23598304726612,-15.703439052336497,3.5862177842969873,13.098385128192465,17.88307892987421,23.061405731334453,28.36124378790456,30.31007443129393,29.277147846308573,29.64167233233873,31.554856929316806,31.406045463239536,28.335197412321232,24.589889656279205,21.307168135989308,17.34941503212111,11.005090868396284,1.747673244770665,-8.786544901469506,-19.31198463643896,-30.939965166317496,-42.336366443880685,-48.55258590957498,-51.99731076002101,-59.12850507062361,-62.827342203230366,-50.09983521519821,-24.28775070619495,-2.17477385414997,7.440915769544702,12.187801903644896,21.693686908016385,31.975566617761622,35.963753297011415,36.87798651345653,39.27854921493193,41.99889187938974,42.3092344466377,39.77026807591739,35.6007706008738,29.63183888980906,21.084123544585324,12.3954290648552,5.193335294021963,-1.637085860181138,-9.457987251164777,-17.80102001638064,-25.370728279415026,-32.04392065677281,-38.20169679231961,-45.976444647245785,-57.54433959832689,-65.45932483210238,-57.2434295250318,-33.854999947150304,-9.625055232443898,5.573923923739842,13.340875941399432,18.978584279799367,25.042885634233304,30.839666651987027,34.07205574191212,34.14281414865477,33.05393013300487,32.47955817938885,31.677193534245344,30.339404118348423,27.104290054468038,19.75389973550517,11.059298592338946,5.219309516340835,3.2677419966702845,2.04415482789608,-4.098845821885026,-15.302586284391161,-25.63975958686563,-31.689723060937855,-37.51958673101871,-47.76594343730631,-59.090260983506056,-59.14164647694181,-40.40057627723778,-13.551817765410268,6.697326644428912,16.892040929149875,20.734157026075653,23.2836007208359,25.507653807608264,25.595481984621156,25.220938500138246,26.10792436733598,27.901311490397738,29.070217164145657,28.282130983654213,23.857046633652136,16.829395529276496,11.545445116017795,9.750815784666365,6.601380395058057,-1.8968032616118302,-13.18723250892863,-22.70277365629064,-28.426591144454104,-34.48825989417249,-46.50847292548652,-59.24550000530469,-58.01723757549523,-39.387756732381156,-15.813945440785442,1.8506449078889968,13.093252149104824,19.340073936522472,21.676784935894197,23.331195703478233,24.112171763709252,23.738273509604205,24.938651430982,29.178570999172415,32.825803037397066,30.534505819532583,23.025826464090095,15.282708801860768,10.774497314940124,7.117240757508842,0.8875011051648436,-5.890456835147236,-10.827146366638337,-15.571099734797246,-22.344694546813145,-30.724354632932723,-39.64207840919137,-48.97238557643898,-52.6278789764899,-40.28021267795123,-16.052427670492424,4.686746562843686,15.774764316631003,22.9847629477197,29.698302442045954,31.184239280783213,26.284391036514883,20.512660487519966,19.45767556479704,23.750346366530383,28.80253956489055,70.0,122.0,82.0
19.96384085158808,24.224664320356965,30.13737334852302,33.578869977482896,31.7088068880737,24.83588061908822,16.291717382646915,11.054757329308305,8.38291737394391,2.8132879380728393,-5.302922077409222,-13.269719037195085,-22.791027024303013,-34.90890309965257,-48.22751179229945,-59.88732207065091,-63.04667011934277,-51.527226681238936,-28.04040065501996,-2.505593170251123,15.295676129207463,23.806341234043714,27.843321130261085,28.093582415214858,25.63665580153433,25.933842247502348,30.176249184645556,31.9755896658925,29.662165979134173,27.996183494909435,26.953440204493738,21.515055088723134,12.896312795055243,8.129469629552206,5.270470450967933,-1.718927113210216,-10.934865196174881,-18.769143568022248,-26.42881478504099,-37.77144692513766,-52.640938786545135,-62.372497152169025,-55.98423508787283,-33.89158976677258,-9.106204439884102,7.211567324223681,14.667787010602428,19.235308309569437,24.73169166301817,29.37742318371453,30.135795007758883,29.096047083658966,30.190525285890352,31.84815013883796,30.745777582287253,27.21791778475574,23.61740079287567,20.308162632530998,15.82792107824309,8.590145622952345,-1.264867199942884,-11.81063280731771,-22.5071713887935,-34.474716606525675,-44.79112043758632,-49.4495987112168,-53.65447496529921,-61.24239560807728,-61.10628390462373,-43.324939227220895,-16.809171492228018,1.8114179361733016,8.725974230034716,14.339208730314118,25.039214561220295,33.81527134510019,36.24400135318578,37.377623423055624,40.17230540803864,42.41053730080336,41.82233878846776,38.68913175265806,34.13103670231143,27.378945286098613,18.44539724621342,10.182517422866674,3.257115265208989,-3.7709705210949886,-11.884265916724853,-20.095745907197102,-27.37740488411882,-33.84076192554385,-40.112175837430456,-49.01128894533965,-60.8249489697774,-65.0744167911345,-51.52454263588759,-26.27665953367634,-4.198578456172882,8.33060413875265,15.006474480508889,20.663740807844917,26.841023039448494,32.12235972399467,34.36392237172363,33.83044496291519,32.83367130922436,32.319132609790024,31.335796860214007,29.750617213414916,25.382947169030885,17.15909452086367,8.9623321572095,4.30540730303905,3.099410234996841,0.9451386153588842,-7.018908636913698,-18.66651837059007,-27.765286658967277,-33.114713582831605,-39.97019229963744,-51.35399237910919,-60.878738801905115,-55.51760199852057,-32.6823795501183,-6.6467604948995,10.578973816675338,18.42017322830695,21.436431329888386,24.06678355245961,25.74636246478255,25.41580720944968,25.32509880315559,26.59963204617026,28.3583791711176,29.12188334745952,27.416449400001984,21.93532400810847,14.924619608130408,10.782760215963552,9.267202624414011,4.692757007993859,-5.089129958117814,-16.287522313493128,-24.69777676275884,-29.81465872769808,-37.28817084700305,-50.72982767315617,-60.86508749987921,-54.052165494285916,-32.41430079433497,-9.919520650272835,5.64100525693943,15.417556124358287,20.271859963280544,22.143098704245144,23.73077843161262,24.03093363065454,23.791100310648908,25.902426212040098,30.57655459799533,32.88939425207983,28.703387592126873,20.586054165594643,13.627842633958531,9.860849970201524,5.585930633686974,-1.1830332817554199,-7.504453295290311,-12.080301674486552,-17.289460220171264,-24.66872252933965,-33.249009148400475,-42.36190437603277,-51.14283456636399,-50.914749715303465,-33.842896674150424,-9.130414834860229,8.75978231060934,17.921822381816025,25.101743703396302,30.888141664085335,30.249085734036047,24.411190085678335,19.569311642600617,20.28315583642186,25.40968907120842,29.477915774937475,26.819538539349235,18.658173127825233,13.055181672299462,10.807132029198415,5.874085769218836,-1.5925623683002879,-8.920495516008032,-16.946651341885094,-24.867353757600068,-30.164422678765384,-34.15520771266769,-40.09926717471224,-49.01435858444745,-56.135842117486966,-51.385295151980536,-32.55709855393819,-11.056029632533557,4.78941174560336,15.633864653393509,22.629608908090812,27.078368070961297,29.33576228288255,29.16700045095162,28.982263961210506,30.58515535726125,32.5382077929949,33.283521314652326,31.22780753067594,26.772330084687596,22.750570115720326,18.606357378583837,11.937482782158629,3.512244257580146,-3.7136279887151367,-9.95387611200398,-17.25667376563563,-23.004998920811342,-26.07695380584605,-31.907855493588826,-43.313107770098775,-53.24482596792389,-50.223449723870644,-32.320713504623214,-11.155566125169294,1.774329554988722,6.8699672042206235,12.33033014521441,19.57044857716521,22.578228084024826,22.259894122637956,24.5815831366191,28.196590594086892,28.216511296159844,25.169711238012063,22.615475505482163,20.750585960501304,17.011501719865258,11.15378350526218,5.206357681680412,-0.2659993865497239,-7.070405777009253,-16.683792244442422,70.0,122.0,82.0
-25.843181931639716,-37.893787832623104,-46.68538246610508,-50.312073288373334,-55.727825656042626,-62.70396250591423,-57.75931600675272,-35.76278695975319,-10.092418808799504,4.7091018570784025,9.934314104840842,17.035525426977237,28.1932946464653,35.04123846622171,36.44451943328998,38.055736358053714,41.01656487524415,42.5652827856361,41.115953092532145,37.50797137421278,32.47451141805904,24.912440403199064,15.88853369213891,8.093092242919704,1.3108197333198202,-6.01359558519794,-14.317436780359701,-22.302252852142743,-29.3182476354133,-35.60113658187863,-42.24782176002926,-52.38334942822738,-63.48060832405234,-63.069655480976735,-44.76387032817012,-19.036694734658706,0.35712473552469254,10.598458225187262,16.61149021411366,22.41194345901412,28.571812673084004,33.131020323579406,34.40833663949125,33.490583375483546,32.672779363787,32.102041904784656,30.96852752784231,28.922781778927153,23.29539572978576,14.574265862427378,7.185246082388008,3.7094878339749995,2.8640078029061833,-0.698398858560782,-10.277642051847764,-21.778048892629965,-29.52532839819586,-34.682249106175206,-42.86645162078209,-54.846649201374554,-61.34943454338789,-50.29263588573167,-24.729648393800257,-0.5659269054866883,13.65179464930037,19.53963766660623,22.153219376940463,24.77305037952602,25.782116602653723,25.27327052001642,25.55528801203784,27.13564890196016,28.729511830148976,28.973514351226036,26.2060101141878,19.86636061218786,13.294167330545024,10.287530220209195,8.496896256802739,2.3012595178119164,-8.396017425858675,-19.135631361304423,-26.36449545628164,-31.408939722320287,-40.68720459716352,-54.72224288662384,-60.93639981913882,-48.76116149930976,-25.426381962393492,-4.676566414447496,8.969229068606007,17.31870316397654,20.941224661055195,22.628185136493833,23.999322408093832,23.889144431657215,24.057331633273847,27.122731422907417,31.774609622722398,32.35181470335936,26.532407927737317,18.259666632994684,12.292223594936925,8.886750643947089,3.8031789554669535,-3.199335439149626,-8.941053752108374,-13.396663535029798,-19.209407561254004,-27.0895516175957,-35.80513363516298,-45.12446984819233,-52.56978763345473,-47.64880483085076,-26.73029063778965,-2.88298245925069,12.036992992491564,19.960777086715726,27.15336891286964,31.48053262351935,28.84845684815092,22.631664486354875,19.13442718579431,21.5032141690125,26.988360166319794,29.54265850861346,24.70607728595525,16.48648561696998,12.340688972080846,9.812860062236947,3.8044489223866775,-3.7340675280345135,-11.117876632968724,-19.386295503561087,-26.698294908906497,-31.298374933037813,-35.55989659174705,-42.43440753032475,-51.667491439190314,-56.37836146665782,-47.055529653666156,-26.02582215132841,-5.8415744305919155,8.361885088632274,18.00975171493014,24.1158476561247,27.993972646661195,29.483148508923676,28.9671716422393,29.28782216136112,31.197937275069773,32.93765416143593,33.04239968639311,30.05474503940347,25.49754516963801,21.692628241585606,16.986526279136317,9.550618661652246,1.2122314854064666,-5.489166280260152,-11.971442427695928,-19.263028629686698,-24.00707525213369,-27.202508391510836,-34.74678140832089,-46.86828286948651,-54.08366495175827,-46.25052276765697,-25.878918900664345,-6.332679880761245,3.718206667297511,8.110307861844188,14.484616682430795,21.05814332360479,22.523376437461025,22.538517140516063,25.748418667257084,28.67764187140183,27.48543826114228,24.273505856441982,22.11819301141786,19.94401141728893,15.45786211106727,9.367656560280697,3.6227106441279697,-1.988548753026858,-9.57109955688542,-19.78549940026727,-29.903429442346813,-38.01076304087034,-45.10653851643575,-51.03836702037675,-50.31509452419277,-35.131583917475425,-10.479333379510274,6.519827475382132,11.079426275697307,13.75315946397226,20.412929348353334,25.74477198267311,25.17843195203658,21.027624938167026,19.49972407705859,23.858498701342167,28.687051191987393,27.556423277566726,21.62878256156022,14.829343227821449,8.475270562691476,3.524607129994863,-0.3477579309686199,-6.3255895329914065,-16.471955583377948,-26.273164640909076,-32.64066051669566,-42.51246115727745,-55.047473546631764,-52.00380485853154,-27.73889356274562,-1.2144992959394363,13.2019031559867,20.504230466452864,27.154704262869267,30.50847992352505,28.768956396300155,26.506611518144442,27.289139979283437,29.367806086301513,28.627352631087817,25.689654917072357,23.775353984948346,20.737668952446345,14.259830758691772,7.167413087813316,1.9912417242641427,-2.8594099903125634,-10.844406233164811,-21.877027802760793,-31.085780261570147,-37.310690030709296,-45.50010777672673,-58.93327069740822,-69.89432037668239,-64.61633001414293,-41.024044416426,-13.794658571753354,1.744451277146553,7.253712630711896,14.458394189068683,25.800720213498174,70.0,122.0,82.0
-16.96832219850693,4.614314026760231,16.01262327166962,20.392330744025752,22.918703983382535,25.32298376613514,25.672964252883535,25.21311872239011,25.90851926036155,27.668513707551988,28.992573158006245,28.56938171591289,24.66559665720953,17.76955231239427,12.012203273264106,9.92211195582004,7.31095061009115,-0.49840433371308956,-11.697549642730507,-21.66017971607687,-27.800979924891553,-33.39705878785696,-44.59278281065239,-58.0524971152395,-59.32412262713427,-42.49527243829082,-18.734979760072356,-0.07309827072470063,11.884101166891321,18.794570783639585,21.45986892420401,23.117588991419694,24.11099172655682,23.765780283902394,24.592669787541844,28.51405940072399,32.605774038887986,31.229753207723096,24.154569099737053,16.155270528948954,11.21450464119156,7.732342463108084,1.8332187337110541,-5.081909623513857,-10.248313078503218,-14.845017116642826,-21.317534435653933,-29.5691192633967,-38.41436828820305,-47.81331482015524,-52.915003443880714,-42.90469829410342,-19.391745126235556,2.5089516856461147,14.696854180662566,22.017480610762924,28.98053521756179,31.423940668507573,27.134473621451793,21.0987042899596,19.235672489290494,23.002076941554737,28.318953573710452,28.925050747127585,22.271360679566712,14.749016019788758,11.778421880339446,8.45982263303216,1.6182163589720464,-5.834534301488979,-13.420955616116547,-21.745844344717817,-28.266334035324086,-32.403338392346846,-37.201182000748,-45.01415301995432,-53.97637918706462,-55.35540763966533,-41.659723041491674,-19.641484645718112,-1.1707674076276227,11.56855813138348,20.079133109575867,25.433364238290125,28.706820843389213,29.43788161305028,28.857351984657797,29.745766104325934,31.78756996503294,33.2086170905657,32.515960069548896,28.741800708257415,24.322864526051365,20.559028451960362,15.10857939869862,7.080607080897797,-0.9145455492661765,-7.246094051730394,-14.105802860137832,-21.015977728572732,-24.83592907744556,-28.734670281395875,-38.04278646877686,-50.02447822578292,-53.56926889709358,-41.145823249429576,-19.54593784000218,-2.3974866991643795,5.156991581638494,9.600136620637668,16.687621037357328,22.033720856505763,22.34138899998431,23.157056208093127,26.891153190104415,28.76268112818205,26.58074579613335,23.501985873592137,21.627007839664472,18.91921403256872,13.760201349614638,7.62812697318462,2.0658390641147304,-3.884978422094977,-12.322120565880434,-22.870718725719797,-32.43896330254049,-40.108309828421426,-47.05393703087377,-51.916603413226476,-47.568885663758024,-28.268562782432287,-4.1506045030626835,8.781464921676145,11.539011304678024,15.361553487635376,22.418869838686494,26.203869900950924,24.10425967834499,20.039048588495962,20.231250767239068,25.596760814027405,29.066108663519312,26.133477132728228,19.653636606687297,12.914272612174198,6.863249033005882,2.3873117155306254,-1.6777409822553804,-8.899977051026543,-19.6496896472406,-28.30146775902778,-34.77829625989178,-46.48677407820086,-56.576598014531356,-46.62889344537332,-19.293806372273163,4.25643824183121,15.588992219694447,22.476732152056403,28.674116656880003,30.408295702745768,27.918741822731047,26.399039457855743,27.95099408574677,29.554685638613236,27.81436362206947,25.01280125964178,23.206367999156924,19.171030730787656,12.093154535140307,5.471713269613492,0.7075662419580029,-4.720851850883653,-13.903346701088752,-24.917919242880828,-33.04677015586774,-39.20434317940445,-48.928327433517424,-62.99733789772115,-70.48396114292,-59.2785138150284,-32.6603000408304,-7.795191232052398,3.847944566761919,8.769359022040215,17.561272233103118,28.824958635647363,35.25716256261859,36.289140749360335,36.83728231842115,38.686570176671104,40.206147658919335,40.144617657511574,36.884412716868916,29.704594880239267,22.043286553506487,15.622597597039137,7.744013576809009,-1.4150330065747228,-8.807659891094431,-15.35447652340249,-25.376726221933854,-38.094543977848986,-48.8627533287102,-57.173629897160865,-62.664863126857114,-57.07069466951382,-36.04216974683461,-9.033610522626743,10.20329760192997,17.368791935975167,19.628197434454187,23.729929007607346,28.959300837330137,32.38316891172896,32.74276007945513,31.46356863699281,30.791750276495875,30.361016072919625,28.170667887089714,23.053885164674046,16.373832028464705,9.049641705522856,1.4268800349408044,-3.9384390107302125,-7.190519529432144,-13.023832822688743,-24.687461525863778,-39.18769959445971,-52.469928880110885,-61.87948574925414,-59.62040755055902,-40.463129800039084,-14.231067108726142,3.649301122658464,9.844877113680564,14.579712933923954,22.85426887610189,27.998177291073393,27.24921800291456,26.73878691131914,29.760867676451106,33.0434224345362,33.16682918886072,29.32662537662512,23.331129632055553,18.25325616610289,13.109875718720598,5.154301049916072,70.0,122.0,82.0
29.23578608071488,27.626713425347152,19.76629434526207,13.490203632194651,11.160951086871739,6.757787827286345,-0.5872419326197893,-7.93613912229393,-15.820534933117086,-23.935140890447588,-29.605929648108386,-33.571841588090926,-39.11784895567782,-47.74510221698192,-55.655446663342495,-52.95476343841908,-35.527879829198284,-13.647400979669653,3.0095919186706355,14.428728191891175,21.87843329290523,26.596147714175366,29.19179286329434,29.265646949007436,28.901336732374226,30.30710524379288,32.31975776253554,33.30887771881639,31.696309764743777,27.386927648703125,23.23539267764062,19.270686576241467,12.986325517686032,4.619548649509737,-2.8643965011436463,-9.071297127036187,-16.276235527008794,-22.451470349823293,-25.653486888814182,-30.77926379834758,-41.62767898733954,-52.45471771535534,-51.60920740886665,-35.22421484861597,-13.651706480575273,0.6469913237040905,6.340877465122161,11.402404938482055,18.734353245261403,22.50485730711977,22.235528988719583,24.08027476523617,27.85181468266867,28.465836731910045,25.610984567560656,22.86823627486644,21.05919590681523,17.664074918117535,11.98264467478915,5.954902621003578,0.4863753489520606,-6.006575427154772,-15.275162536356726,-25.852425553390233,-34.7988524060796,-42.16223762405392,-48.87297707443919,-52.03155112601495,-43.444003574779586,-20.946159087154577,1.0952395626021851,10.11806605521043,12.168156466536722,17.310058309058043,24.10975567376035,26.127620620389962,22.847348516987132,19.441517099871056,21.46526923096927,27.149726888347924,28.85157221942938,24.417058056089378,17.67952708414653,11.048853852246898,5.398618179191126,1.3059126829101517,-3.2920521366350735,-11.826493568396382,-22.608938043914595,-30.066171067462545,-37.471308921765555,-50.44304223044355,-56.25066965808047,-39.652948718595766,-11.281013669156838,8.577287514868857,17.654326255482868,24.45624213119785,29.780035334768293,29.913864951517358,27.179378353551137,26.583837159794236,28.625345408324876,29.4094636500307,26.91503932866774,24.470861654989868,22.426363178821013,17.31325899443554,9.984923843903882,3.9602002901229496,-0.6247057785879295,-6.9363012458028175,-17.140553304872167,-27.67060535490584,-34.80733683632828,-41.42441357342994,-52.8150160621152,-66.52558251277273,-69.39633065782562,-52.546673977448606,-24.48437640135896,-3.0455782086080476,5.362969511227478,10.7110720916683,20.913849520985593,31.386674553566216,35.913800569315825,36.310408649561424,37.2920839455057,39.22945732552187,40.40103337006507,39.62246918836422,35.13311716658245,27.345867101151264,20.154029454645542,13.591508807237371,5.09359608401874,-3.8176484824443557,-10.585123645780861,-17.780882612295514,-28.984365772181224,-41.54655422073669,-51.418434201654236,-59.28215294538862,-62.62637312770958,-52.39558023337566,-28.192756702489426,-2.2211486782303718,13.343451201073057,18.096543587416605,20.535677469484437,25.26966871344953,30.23097304370084,32.79598116913329,32.41336419229562,31.171852724604747,30.71334586163785,30.009735641340995,26.96602690379449,21.203514752375064,14.337870007099168,6.7927822085623095,-0.4572336617156852,-4.941412890256865,-8.369519396789277,-15.814933933279542,-28.822458126728993,-43.23644449833293,-55.80965484659871,-62.868386999294735,-55.68100829241698,-32.866883977085514,-7.713400880552381,6.322537974223625,10.867781115512456,16.77666343491292,25.00371269415982,28.20303372447363,26.778986746036832,27.3144837002335,30.885627494934145,33.48031757818882,32.44406928292475,27.661071158617062,21.700237836619564,16.946563716017696,11.103509491391922,2.551157680104986,-5.612643353222205,-11.905016061895214,-18.68832904007568,-28.009217801776703,-38.670800485411064,-49.717128246670946,-60.81651988946006,-63.33686003689793,-48.499568255430916,-21.893719733164904,0.9387315386547251,12.444113784720253,18.49930880467444,24.05988330961896,28.11197353267668,30.49385168647522,32.157701794409356,33.74022662433366,35.552970759950476,35.22217518149004,31.959686282254975,26.49437892442884,20.114053832089397,15.033219884689945,11.122971613071819,6.163427295227425,-1.4203106718642116,-10.395787102378833,-19.971074274500335,-30.997108797364284,-43.15483199211278,-54.55556810943488,-63.75287633675983,-66.87558238367538,-56.174494687171155,-32.29286118255297,-8.506253148495611,5.804491037401603,13.26530721631356,21.404206813973452,30.974058001378665,35.20495783376949,35.62679187127169,39.64818465278766,44.72617153969184,43.78638051925008,37.09121024810082,30.151034931190498,27.021084483515985,26.499061370548873,23.717940224285723,16.37165290143883,6.962502222254452,-2.176081230493041,-11.405079426939142,-20.987067454935087,-30.101578763335493,-39.70159060990197,-51.59104912900238,-64.26838826762209,-72.46387209459422,-68.18067093669579,70.0,122.0,82.0
-18.35168672368115,-28.669237138637975,-37.020703467718114,-44.185988585433385,-50.44412147775172,-51.1329930139705,-38.01424120009505,-13.67477367442629,5.095766188543003,10.849960220755724,13.153789686297943,19.432433194364847,25.348858418760983,25.571274537304483,21.572928477173495,19.35183509154419,23.058460442889512,28.318454694340257,28.078395424775973,22.529027746157865,15.723248827932029,9.262753281924153,4.084434408792343,0.19885583488099182,-5.2745885938589,-14.984594470714429,-25.21094453414248,-31.787525044431096,-40.79339960019319,-53.83633020695505,-53.82997797246258,-31.623265052058535,-4.137556908768473,11.920100450635115,19.606119405000772,26.348543283350878,30.395427016652377,29.160310203250198,26.656193674305793,27.021753135601706,29.183234019428514,28.937930733598332,26.050846471636117,23.998529764376652,21.347938193768485,15.250326696579119,8.014968082709172,2.5916345194745865,-2.1021819922312113,-9.52967788542413,-20.405035551747066,-30.085215276204863,-36.50530888161379,-44.09538379746098,-56.98717701683857,-69.11781437928775,-66.52966314940046,-44.80560896908776,-16.94973195334933,0.4834025320002085,6.646660168639058,13.162379903671786,24.295380556549475,33.384540385074004,36.205389878408575,36.420608912694014,37.83857184855982,39.69947887391801,40.442418224508806,38.7781753286797,33.068749807396735,25.075317907282873,18.33993542909704,11.360510425198816,2.398158869597811,-5.996417628325531,-12.386511407704088,-20.597500577017627,-32.716933235564646,-44.7246201638348,-53.830373782388044,-61.08342426441623,-61.37972059261731,-46.45952259506642,-20.19619221187422,3.6324798678788595,15.512559782646056,18.668693066637847,21.68700016893044,26.824995246237766,31.289868110786134,32.94099341014277,32.016010767839646,30.966910689108804,30.622275908541617,29.44944365729493,25.517549846599948,19.274485430969897,12.243144143610351,4.538992241073514,-2.07325638809367,-5.829757144782662,-9.90952319813064,-19.11934427491072,-33.058682547199325,-47.12613513158621,-58.745523492140556,-62.61631167278647,-50.31692771132683,-25.074495301518414,-2.2419237204015356,8.126579797130733,12.09396748100186,19.237467506835944,26.659997507974772,27.971988171695997,26.524084490827686,28.181099796572845,31.911370972429335,33.60036636840171,31.387516197732573,25.894253144220354,20.21372117715482,15.542941413850485,8.826284215649014,-0.0008829054203578768,-7.568923617410377,-13.6712489133754,-21.11550595224407,-31.05657691919809,-41.77076361558745,-53.10746081068656,-62.98729809889534,-60.90169767381574,-41.39145019665823,-14.265909484415815,5.324887185422107,14.39321427454735,20.138975776959768,25.456786283004146,28.9108965806366,31.036165565840594,32.567474791032375,34.31274518552906,35.7788167557147,34.54318992178238,30.58401055362124,24.63534912718373,18.459215151084447,13.857610025999156,9.91511692570203,4.2289399524211735,-3.9498201997326645,-13.075147484838205,-22.97516011117235,-34.46924304426272,-46.60191713179649,-57.51243947708531,-65.60002095689532,-65.47771299965405,-50.176572083537316,-24.768232846437094,-3.3160320539982564,8.331236486509793,15.285293514956653,24.29868455333038,32.9484415078672,35.32966470651458,36.287328078659726,41.379134775832334,45.234113265647984,42.2330172390607,34.85819651862957,28.79491168783572,26.79549790218756,26.131144313871534,22.019068642784898,13.707015404371608,4.273993791983888,-4.7916065716578204,-14.170658289665322,-23.684015062641517,-32.71725588647697,-42.88848434433621,-55.34041856816698,-67.41477899400562,-72.8726027767646,-63.730888731912835,-39.65187327126539,-14.296676347640526,0.575061280225467,8.340149122220064,16.65137137307272,26.39881796903666,33.115103143770234,34.59195064829546,33.36330414682133,32.88604287053164,34.78822754544951,37.24315956972987,35.908850554750934,29.645867214758788,20.558839663135203,11.685662863038363,6.306575611025911,3.025918879564539,-1.6703195151787436,-7.36701336068996,-14.614985656977058,-24.24635805522832,-33.16817791646158,-41.41950622343472,-52.98266336197758,-61.16213968156958,-52.654531582952345,-27.788754658638055,-3.1291213211636073,8.776022104783321,12.26776045667293,17.7449930487293,25.847331846125044,29.76105938049724,28.46394021547952,26.872280434899412,26.435718474820654,26.51978845006208,27.78902450802674,28.42823545116288,24.43470066114578,16.19102561900112,7.019254259825262,-0.3712267680079086,-5.152845890544848,-11.241531569010434,-20.545179803111154,-27.74460416303539,-33.167121260587,-44.65404162614375,-58.855883629226355,-58.92846727789262,-38.15623953162306,-9.938984057534642,9.237377818212432,15.12601708043032,16.882504157839417,22.890969238469857,30.313722073435574,32.498244273558846,28.840821782027593,25.43240069971176,70.0,122.0,82.0
27.479283976525956,34.79415623405758,36.28372945800922,36.67136112958389,38.42096537006832,40.072360876951365,40.29199299431695,37.569388393446296,30.791376218754838,22.961058572107547,16.503550854222368,8.925654420310376,-0.24234781144019485,-7.959473487367539,-14.354700476272637,-23.79339492834325,-36.42834720172721,-47.616287113190445,-56.143095019925056,-62.34363794501606,-58.75912810464667,-39.50487422260484,-12.434775872121923,8.390202152480908,16.913734371577064,19.287320121674696,23.04933481136689,28.314526918945415,32.100005993312415,32.84965101520967,31.62538725341698,30.835272686033075,30.468763285393997,28.63643104917591,23.86793955018924,17.297836737618688,10.074143822965034,2.3717587714407533,-3.408926310636491,-6.731124375249905,-11.91962028137905,-22.85397080191003,-37.27507494393727,-50.83363028519156,-61.0767727649069,-60.920163435804824,-43.778042195783414,-17.521357525377585,2.0593171019901124,9.367982414583828,13.696728778407543,21.747856784332484,27.717158033068856,27.494711428704367,26.589020171944203,29.24037749238094,32.74405134267657,33.38339797758347,30.0339442967684,24.12403943348693,18.854351721096247,13.938177670976334,6.342350550810539,-2.4172685685592588,-9.379668498944651,-15.564730073289473,-23.77644904155035,-34.15024485502142,-44.92429707763246,-56.46078620527752,-64.11901044244168,-56.89514233880075,-33.60191259949084,-7.3685978548300906,8.75311846831949,16.11209820773442,21.777674721299686,26.670966620149215,29.604533334648128,31.525429493570943,33.00151535212723,34.88517531329789,35.751579192581694,33.6383534903866,29.03273577247471,22.75424784666814,16.958957202746884,12.747212296535121,8.550098098424062,2.064609747286924,-6.5430081365774395,-15.81035077274147,-26.128641487759428,-38.001594844824695,-49.9369895304694,-60.26233489166066,-66.7920262235182,-62.713559349221946,-43.260476775774855,-17.647052420555834,0.9775074009423853,10.451290466808148,17.55412594950868,27.199913729718755,34.29609608619572,35.33048338203607,37.39301276956605,43.001619387346146,45.10228666683241,40.296310217377275,32.7556583151187,27.81929935956656,26.697775272467034,25.442981161505784,19.937959909589214,10.966068531183474,1.6339045529904315,-7.44272536633042,-16.95432770554753,-26.318503732446597,-35.43107247022125,-46.29447884626239,-59.08055762678111,-70.02808046834838,-72.01577082407744,-57.91640276569935,-31.690005451475933,-8.812375810689593,3.148583964179692,10.483236592136578,19.481291336163707,28.84678486286431,34.03782588248266,34.34055876600068,33.031246985196766,33.190646217141506,35.62852359015836,37.39711538529005,34.537160236979524,27.1964840001371,17.805563391641005,9.704141148834806,5.349540252822067,1.8569982722505678,-3.2578169693511803,-9.206467178852881,-17.227428866172843,-27.055010036950918,-35.40050278526893,-44.42202931170614,-56.33378136986103,-60.80159894867225,-46.6035444791845,-19.803898138173746,1.730451001217574,10.13591282951647,13.358392022034412,20.098997594100346,27.64766461657832,29.72020629983069,27.864966863861422,26.676845288466037,26.385336977401444,26.75882510979838,28.22967066063254,27.853854760707605,22.339854658611717,13.50780840968795,4.59410069418639,-1.9334260507121315,-6.5425130779489375,-13.75818088544729,-23.068035384185812,-29.15783098687932,-35.64020323444299,-49.12270044306021,-61.037758219450495,-54.77036365518627,-29.911284575884387,-2.983278619237548,12.083472441918808,15.50833133127656,18.105989414600142,25.222521254301565,31.672979398345078,31.8493556074501,27.521009460753774,25.26786132642327,27.14483855619767,29.36752387852748,28.50336331524472,23.312472152508242,14.062144850637564,4.722522273532391,0.11822480696259334,-0.7462555388871388,-3.6538302651405075,-12.37379855301381,-23.054940115904248,-31.428972895038655,-40.76043104099108,-55.06317624659256,-66.55776970345575,-60.73710979264792,-37.24089156214048,-11.46986468810675,6.206958451594126,16.002206457194994,21.84228351441178,28.97625050291372,35.8162045191919,36.640328182661484,32.427602652567714,28.27658637848041,27.351953903324716,29.09832520125445,29.685915028861725,25.921553965897953,19.588918008647013,14.321205096563906,9.507056544460355,2.2408229525442587,-7.253698854756562,-16.93328522135731,-25.765779576116397,-32.55558056976624,-37.70245704679472,-45.25590969190642,-57.761532635172784,-68.03571895003053,-61.565684593235346,-35.90677600944183,-7.609678395747263,9.794203837877179,18.698226310997057,25.53133292242931,31.487621663025013,36.17333073283884,38.909106177438396,39.01178793093053,37.30795945729959,36.097287705934534,36.44416469246825,35.98018112755592,33.23239651404142,27.697004395725706,19.045839425023708,9.979394526884175,2.7979761280579605,-4.196304315104759,70.0,122.0,82.0
3.7511402804982046,-4.649491702810095,-11.110941444303117,-17.65038531628595,-26.637783270311402,-37.246004063962836,-48.178616381951386,-59.55664178164156,-63.927792698766794,-51.43972753538142,-25.56230646560535,-1.4381410303197177,11.413224109733763,17.748304453743607,23.364107182434502,27.696658309324892,30.226217029178958,31.9660908490342,33.492049726598125,35.37720440442157,35.451124409875774,32.53270646849655,27.3245479443383,20.9235883081769,15.610157748574446,11.645685727545727,6.9721628846859005,-0.28754536083398613,-9.173092959232088,-18.631988649821384,-29.430423235221266,-41.53822266941334,-53.13377170910129,-62.73564359005873,-67.09838258592183,-58.545933900224746,-35.801700699707844,-11.200810069674498,4.446506390252559,12.380828856345238,20.12640125816923,29.87737463152909,35.034923926832455,35.46263794870426,38.877903131564494,44.29345381872042,44.335926770832025,38.12685449533438,30.899344233701516,27.20204045343194,26.59055799317002,24.360028323808066,17.54995072029334,8.21858785835361,-0.9756277100744726,-10.143200597693124,-19.723831108727076,-28.90970155783415,-38.307295945181814,-49.88743370148866,-62.68879694337643,-71.90599922846144,-69.73486423354413,-50.99005990010872,-24.07503606841483,-4.351111805277503,5.346894970414395,12.824823452000844,22.365226612821704,30.913881368437224,34.52165671647107,33.96141342005375,32.83439693259618,33.71309508928574,36.42550503677507,37.126235280112816,32.780935119951785,24.57106389156868,15.15644791900749,8.087100455500568,4.457038338482102,0.5178881050910901,-4.8854620862034155,-11.231567168335935,-20.026489202582926,-29.68679405206157,-37.67648526401035,-47.77844389114929,-59.07547413024642,-58.746413530784494,-39.406266885706394,-12.342384883377765,5.372734697734176,11.059848269582304,14.840816677408105,22.54551628401082,28.92120519934003,29.330091435227498,27.364829324668882,26.5534179016684,26.379335922982737,27.11989528183853,28.523960819721065,26.801904970703408,19.966615221261602,10.820975374510837,2.384535362996493,-3.2941897790056376,-8.191469581637696,-16.502082652348733,-25.238605545114677,-30.56858281483314,-38.82467389425572,-53.532774223232906,-61.569324659141365,-48.93066102028899,-21.524221069953743,2.882814015438711,13.87197175502235,15.871364960330935,19.78978090425404,27.49630930828412,32.452838508299536,30.784064819952736,26.414238264795998,25.493012242384054,27.956539152189823,29.513334051571732,27.48019253339384,20.964089352858277,11.105641835001055,2.814183599341344,-0.3095770414918614,-1.0903791202418873,-5.613810846673613,-15.544736792425324,-25.72044700908004,-33.730726161139884,-44.443988138467176,-59.35631255364165,-67.09260749516265,-55.22487864470144,-29.311605617797277,-5.419344246188347,9.72574252826897,17.83927520307917,23.647838705733612,31.276496003008447,36.7940017057183,35.71759230899131,31.02170438003267,27.625257693211676,27.709184583439924,29.58814931820585,29.07645735095121,24.15803993953988,17.884481671388137,13.02453391782002,7.73437629143856,-0.3774739846487655,-10.087919343719985,-19.617038821721053,-27.987325753828884,-34.08713455463591,-39.42087672131176,-48.439123086056696,-61.58321357657624,-68.41634991112088,-55.62974998910351,-27.118180841925266,-1.3076897531231564,12.885689984309098,20.739169839230446,27.372216766817715,32.97814602805402,37.22217284645305,39.19477900560963,38.636038029260554,36.783376638628766,36.10780705054703,36.50681655519553,35.43134546645033,31.964972695959126,25.459285185145287,16.302671650800743,7.714025044083814,0.9016939663255067,-6.572690972428986,-15.742060568579179,-23.847648415831863,-29.08138820469545,-33.42692377639658,-39.521263835392176,-50.342656188993004,-62.9576710306121,-63.54458745919207,-44.12384558775335,-17.542327046761418,-1.508794014107818,4.995031847123737,13.745168910781658,24.50867481965649,29.280230887218707,28.06759945135419,26.400018808970717,27.042471788872998,29.05776832374687,28.924416120509072,25.800196316194054,22.62267284481634,19.09489440535155,13.838544780598355,7.438937376943838,0.5931022847331726,-5.7791398830619265,-12.202739262961014,-21.052365978674544,-31.419616635198842,-40.215341519876176,-47.79436121055241,-53.04203646422832,-46.779818107900745,-24.983225203756948,-0.9438250198567731,12.459679136943958,18.413110931823443,23.85996811751707,28.459552002394123,29.574837851357216,28.042621629716944,26.95247014336519,27.042587371370153,27.66597396856455,27.832751809095313,26.016859253490583,21.808432634221173,15.072932662622016,7.014068175168997,-0.9735181621626742,-8.294789384501357,-14.918186879579865,-22.831160161729038,-32.18397607895739,-41.4011699674241,-51.64335250752055,-62.13279673792826,-62.4840970761017,-44.08123535233254,-16.73458872582898,4.316645274633639,70.0,122.0,82.0
-65.96232402803284,-43.31908433062637,-17.170145372988806,-0.8040867372014598,7.394198657455361,15.395895798248537,25.17031615870575,32.53049994283357,34.6372699763137,33.54539433199553,32.821039160919455,34.41885382992037,37.04915751683332,36.3976386015045,30.69881285043223,21.836016293565564,12.714904300464205,6.8061559635029445,3.5077702592440456,-0.9578970828075224,-6.564297945385095,-13.48977661237527,-22.91635558313964,-32.110139836437895,-40.16351111407998,-51.3413845564782,-60.80625299694901,-54.95684634712835,-31.518173419031758,-5.779946311344184,7.915235353983746,11.861527128617967,16.743983672465287,24.872113513060945,29.622351461903687,28.751902941049348,26.997772634843923,26.467604961814004,26.45113741151286,27.570038647304706,28.543939015583373,25.280020028543735,17.40907348312165,8.19314441844043,0.4351959767586969,-4.561440077981009,-10.192798853824362,-19.29537397706124,-27.028503138525668,-32.239218283577316,-42.69013822957274,-57.39750499957964,-60.21212451295992,-41.774402078349155,-13.448298922306309,7.521704664175708,14.856733829308034,16.473942366871096,21.852413100844682,29.51605489620499,32.620440728748896,29.473854338954208,25.649183332890193,26.030483143655246,28.67412533453811,29.34920942625137,26.073543042437652,18.304454500097577,8.286679887712367,1.3887832030739944,-0.5179459074629648,-1.7769420622698782,-8.085338284366575,-18.713293627695073,-28.140481185972416,-36.28057081953971,-48.582260542294996,-63.06913582418841,-65.84404456136419,-48.45758433807856,-21.641717379210405,-0.1515557469807341,12.64464294374232,19.473374341521897,25.680121131172555,33.40377593061031,37.15441855238016,34.48683973082157,29.74363485775531,27.290715686289026,28.236073027557985,29.864552483337704,28.054977005387496,22.28593286547588,16.336959982891955,11.695789783972213,5.692420444076657,-3.127772992824549,-12.899853661593685,-22.209897371471055,-30.00031713434261,-35.52808457440699,-41.47090380939737,-52.05047048397738,-64.9142865065218,-67.02369071049354,-48.262083438552565,-18.64069244204706,3.912435469580692,15.4635995391904,22.720693280572142,29.120788652507446,34.363837235687605,38.073584042646495,39.26240399672081,38.13637858133019,36.380027507689476,36.22846594250731,36.42699178458837,34.6851931697596,30.441186365494787,22.9706455486887,13.62540396674783,5.627550103297386,-1.0615455385181911,-9.123212947212487,-18.343241972749617,-25.62361245603364,-30.30054028550727,-34.88406662695395,-42.07275156394439,-54.26553541556891,-65.04774813213174,-59.80503443320876,-36.220420955138856,-11.430340990219122,0.7953985610105629,6.970791453306053,17.03718877558047,26.710005841920353,29.307639920567212,27.426646090812792,26.32945106053734,27.610224514383074,29.391985799878054,28.207183222460902,24.80933480347428,21.738431203696635,17.751556513052954,12.067808001582339,5.477427714890891,-1.3357958437454476,-7.519499761539501,-14.454924384208748,-24.04624888770826,-34.19000168308265,-42.446415956818825,-49.8279350532798,-52.8896701390571,-41.777357347566536,-17.442022113572545,4.160105102144233,14.539096553045626,19.9191550690608,25.42278803051088,29.188775033384175,29.262219661207332,27.58668818376799,26.890380472383747,27.189613901486137,27.838793332640776,27.548206231670907,25.055428984743916,20.10615107339852,12.793653866608116,4.672871587489714,-3.189385327315,-10.219747055999507,-16.987526522561023,-25.47314328241183,-34.87103003095338,-44.158773924616916,-54.91577686353326,-63.90810769366376,-59.01781517446311,-36.308916419939564,-9.582970200987662,8.445491775105408,18.599757238217872,27.071734171749252,33.16727062281555,32.76940736112776,29.651274738664775,29.840086408929157,32.47194071243296,35.040120360283225,36.33101193442708,34.174893099344935,27.129789870267164,17.80845834191667,10.750613264661428,5.908643313806371,-1.2377531377560578,-11.398111573388025,-20.867661511033944,-28.94885328258982,-37.49786391503421,-47.66570670514826,-60.45836456216654,-71.37591894323792,-66.66610959759964,-41.569639179946904,-10.694516502982454,9.402702718717833,16.741511250725654,21.81627748792612,32.28462357531543,41.391338823952296,40.58828977886663,35.47197383218477,34.978453801221264,38.47850136850064,38.361052299323,32.67043025212896,26.77623754561991,22.261585655423396,15.51733939801273,6.599059915980602,-0.44976782471215737,-5.105932938771631,-13.668068782107689,-27.353230388384603,-39.018223060651735,-47.0455492979024,-58.50615906277201,-74.02978462070335,-79.4868733935593,-61.483872704437005,-28.01407198213525,1.3422712946563502,16.43478166646442,22.138475859916817,28.314048286046674,34.790188727621555,35.25100730930548,33.39717098707428,35.92830892123929,38.77239818465843,37.24359250640562,34.99753054586091,70.0,122.0,82.0
25.292324079651642,26.77006603031422,29.204913904398374,28.85116733222855,24.273224063703296,15.427419227186666,5.75687192777466,0.4250732673044857,-0.6583164106833901,-2.9369363841440324,-10.957176192110051,-21.737319112124755,-30.401349616895363,-39.234114852483195,-53.004280583924874,-65.76739384405062,-62.75427530655347,-40.878160136452095,-14.518798130000624,4.363690980610304,15.043577756926917,21.073069206801932,27.909966601284054,35.168931767471165,36.92320227688368,33.09024711167456,28.678246225862722,27.26703499642288,28.831819450827318,29.828677494030117,26.66414299882736,20.420539730839156,14.933274455593752,10.242237334914904,3.3845513885348524,-5.9458381527833986,-15.672637839107837,-24.679251900345623,-31.795801471651295,-36.987986981694796,-43.951026231298314,-55.939999707027035,-67.33835178126175,-63.72259557798581,-39.92806455135909,-10.873548948472354,8.136528914274953,17.721828768749578,24.657280152799842,30.765251040838,35.63376616364495,38.69961204894141,39.13222988974496,37.57056519953577,36.14535039446434,36.38359868728663,36.166300977456345,33.73924504036488,28.63164234829777,20.306550178166475,11.08859105652598,3.673695192524375,-3.165477170893333,-11.793989426637772,-20.762422031780783,-27.154324857756738,-31.522467714173075,-36.54311102694933,-45.10741174996122,-58.14997245395408,-65.70696797528605,-54.375436536310325,-28.243385256513292,-6.5371414803387955,2.571843444524492,9.401447485862878,20.30583386326215,28.239496982093065,28.948589334681266,26.88239661347492,26.476053769666095,28.23983470619937,29.440464492027502,27.287320789120447,23.886763239090225,20.7666417384472,16.254087447395413,10.226910225592382,3.4894214105897974,-3.1917816218003026,-9.314348881574398,-16.964974836705363,-27.090547642818354,-36.76380670595864,-44.637958074138595,-51.568043612666,-51.471348079659656,-35.539573441729644,-10.198508718006106,8.206152254326476,16.224409377628646,21.493235160224955,26.835294616781468,29.578434806370776,28.797707093113825,27.238731452017152,26.909491112797042,27.37206434112127,27.934134011866284,27.069533168608842,23.892812547387788,18.189488487039416,10.455404992246683,2.354627119801325,-5.330776646742861,-12.103424396497743,-19.22990026940796,-28.19332767107021,-37.519029958051085,-47.070105055086394,-58.12499115404288,-64.4665823894515,-53.9125360955975,-28.221863455926126,-3.2642861836018517,11.878603094273501,21.070021579772817,29.315632156715463,33.74185068983008,31.788527329900393,29.28121772557765,30.49572452119862,33.279304831830636,35.61038354225819,36.18135264775714,32.61083803249289,24.454133641525537,15.404971507718864,9.298200652342391,4.2536570904488515,-4.016087560617089,-14.328332324545823,-23.268918582850404,-31.30442026433311,-40.220955528660035,-51.091462185654876,-64.31174424031852,-72.21857449766273,-61.15185073951968,-32.34158498323588,-3.3622819461871467,12.50501803641363,17.8893008804561,24.30585081085345,35.62835431947532,42.191958704433524,39.05732023531651,34.659628854690965,35.88261281110204,39.107940976087114,37.105290586593846,30.75899632462107,25.470991906109454,20.659828972902986,13.012769857759732,4.198842302202575,-1.8361382711788745,-6.90078318269947,-17.3487701433287,-31.228140911353105,-41.47260137833416,-49.70025819369348,-62.95890239234457,-77.48222477519064,-76.80979111213522,-52.5276029991205,-18.373302694586442,7.211583819621822,18.551971108990426,23.614283986030895,30.48170064615204,35.63474452990742,34.5237133956232,33.651343344851,37.07835230918542,38.73274769661083,36.44005079478259,34.70138446108145,33.62509461395525,30.074358676363097,24.576670311119695,17.407236057189603,6.5763972802103945,-5.819579643574781,-14.686554669740927,-20.7604770706025,-28.32699524356986,-37.328858420296235,-47.511692498959974,-59.33894897939401,-67.75359852152967,-63.02735611470012,-43.11345186829874,-17.83773088895764,2.5235859872388464,15.559605273384445,24.04584349854337,29.893530388721185,33.21157801557516,33.67411446645285,31.90175976270661,30.188064274871024,31.111396148071247,33.61297729530944,32.70958177258255,27.224255725474737,21.021251888800254,15.971964429367855,10.106697521379731,2.0641724688791405,-6.818479832628864,-15.302982025238254,-22.891104805016514,-30.406691957703732,-40.3579623199394,-53.50301477073436,-65.86217554621064,-66.28178284442933,-46.88334986013521,-17.261727894126977,5.383892039413956,15.792689242232472,21.046600343254056,27.096397977929673,31.33721400806317,29.721410863197363,26.704144631083064,29.072051026134076,34.213339398422086,34.99309141274119,31.4753509626422,27.445763172667025,22.24245142066253,14.202192707457908,5.108431091737016,-3.1203869274127256,-9.15425032303112,-15.48096429359413,-24.962055401817697,-36.09344623199277,70.0,122.0,82.0
-5.453486373857115,-14.50460647856924,-22.936947113337943,-28.500973106365713,-32.80325313290319,-38.495078418560155,-48.60415736805609,-61.61734036830117,-64.65106132026865,-47.58571085737592,-20.72766205732527,-2.8496317886094418,4.1997575884883105,12.29107678684088,23.29067341029686,29.094161788170474,28.367503005928867,26.505673928521528,26.823754554294208,28.82999476628249,29.16155277675517,26.272344008785822,23.01804227238044,19.6590280094487,14.625697730578738,8.329819673140037,1.500817794114438,-4.974493203472401,-11.245650976243693,-19.716651724532607,-30.08265241311109,-39.15809532038637,-46.80978804337263,-52.759964119126195,-48.60540333341254,-28.429191407344728,-3.650250526216567,11.300289682667401,17.73217633784906,23.114181074593223,28.01368880837934,29.642387103314693,28.277208491493138,27.01534644228484,26.989177072728634,27.573963649277403,27.90200488175686,26.394111295907127,22.517447050870555,16.089786133823498,8.099013022016823,0.06719567232398695,-7.3810661741931085,-14.010618527829356,-21.656325246393244,-30.93019874814036,-40.16512549689665,-50.16289753938833,-61.00706309669609,-63.499168491970444,-47.42944785673256,-20.259171605835906,2.1341093329246137,14.811043382236036,23.53131455791315,31.240634063160535,33.704505384734,30.780798740590775,29.27786109517113,31.2698871640114,34.04272345936764,36.04791881483702,35.67156869245453,30.632520079925616,21.69817633743003,13.294854193990144,7.956907229359084,2.279216441017973,-6.981757358058347,-17.1078308845776,-25.587412465281528,-33.74396204757723,-43.09942305519294,-54.77096660446363,-67.79012241844009,-71.35488862779764,-54.02891146183165,-23.13960789623464,2.756171420982407,14.666279885101462,19.17982945325388,27.32289139201494,38.53121381159642,42.06904331472546,37.4425294928579,34.3974550979092,36.985238403010484,39.22899020727182,35.45104153679946,28.991245617095828,24.227397682428116,18.776589483388445,10.392232227782538,2.0738283846731513,-3.092977580583633,-9.220912680260618,-21.360674107417147,-34.723785872777405,-43.70900197630092,-52.85977188645268,-67.62147744727709,-79.61367099263153,-71.97687147776178,-42.72682530702367,-9.542523915690321,11.789100011065653,20.1445021702429,25.34111835586786,32.51760705105123,35.84934075912104,33.84179072995526,34.35795365958611,38.03828540768279,38.30401742959915,35.72820404464837,34.48822431981516,32.90682459073982,28.603197027250395,22.7674979259112,14.68659611949414,2.9097677621770703,-8.875228703594324,-16.505291866699537,-22.707543967758994,-30.849431496338827,-40.08967092794508,-50.83439518839512,-62.54002773616337,-68.09205991104635,-58.55576005870423,-35.80159086094501,-11.177384259264095,6.952063651945391,18.350757648939137,25.977093539912033,31.132774638047902,33.6384440475263,33.32240940728323,31.264129239831767,30.12533626891426,31.865727576557322,33.893810016339835,31.466047496065244,25.329440054411407,19.487810857657706,14.475033664229228,7.984869474321022,-0.5000533079254111,-9.332345226634676,-17.602046340638747,-24.961970176857463,-32.94250048117962,-43.87771775272203,-57.525621358630225,-67.7948501360255,-62.646137537047615,-38.55909242303205,-9.438678618968758,9.458380401292626,17.44786207153016,22.663054633224714,28.78679006603087,31.453273145804808,28.610429983689972,26.72638057572564,30.63743662930537,35.05820560735281,34.224810053126895,30.282654701223613,26.202665703097363,20.168208069346843,11.592717298472786,2.550356145094338,-5.06903916983548,-10.75313744695125,-17.90184703860883,-28.108367877206042,-39.39599774400156,-51.133652382046996,-61.64414373748721,-62.91903987662008,-47.0800466109837,-20.504989116225477,2.827744595573003,17.560205529432768,25.700378912028484,29.751098592697854,31.435437584978043,31.915744507323275,31.63889342332156,31.04378832244172,30.854228846359877,30.92093976470097,29.027174261702612,23.83221611192301,16.207273345310444,7.133017239740133,-0.2886340312529751,-4.997728361396899,-10.425685841053252,-18.255055428498398,-26.009767807164813,-32.760997619950565,-41.96400482522042,-55.14545769954286,-66.9226115964199,-64.72758783713901,-40.525448013410106,-8.41743796302696,9.83077955406385,14.590760916478995,20.741092137759818,31.881450640970918,38.29318064293403,36.715157339916914,35.249719607081204,37.7621377304445,40.134845466453136,39.07682255172658,34.14895762799089,26.1731384575448,18.492958058403403,13.914364375617318,9.090235899614395,-0.25911017090671157,-11.839507269168356,-20.502126577292625,-25.25377574578338,-30.053852899115892,-37.64924024905423,-48.08770474086795,-61.553755990704,-72.18624311172387,-65.22368027847486,-38.55842869937165,-11.505547252138038,3.572587579693212,13.980438999732934,26.085920859273685,35.677532254529,70.0,122.0,82.0
6.639031269232568,17.441197444585317,25.973528725204826,32.691751231708665,33.151892567836036,29.941298145428583,29.601705730840624,32.0915360678883,34.74346691013432,36.297766469883676,34.74818311611542,28.299987372939817,18.998727286349478,11.490110992701107,6.588296413216964,-0.05018675300070792,-10.011667367486881,-19.717767817894988,-27.882840204111638,-36.286669022194616,-46.172048594533734,-58.644980947027044,-70.50133525493476,-68.59125383703228,-45.690762874192615,-14.432810311613922,7.592604593454336,16.175243210858685,20.86262028107837,30.69056129418009,40.69689321516158,41.18482862712315,36.01044345774732,34.683652831980595,38.05796899573459,38.767929630798946,33.567286727981795,27.428527193019058,22.919514016484094,16.60530693330366,7.772467915347803,0.2736602437580857,-4.414955985923141,-12.13287356505881,-25.48128038043875,-37.76526092807743,-45.94745686599744,-56.597357510025276,-72.12770278078877,-79.99265417898741,-65.180509520511,-32.62766216043212,-1.8054417931796074,15.198396641763317,21.511121375866303,27.331746815395853,34.19293485244755,35.52761325353508,33.44097349615975,35.39343422316827,38.641065897583374,37.61009901822329,35.185500156310965,34.24817225803118,31.924328011073612,27.026787458409256,20.78222816973932,11.611034179554004,-0.7656264203837647,-11.521110126484631,-18.202921061027993,-24.85987412898264,-33.44139350175938,-42.98002900711698,-54.28844021974567,-65.25161184343555,-67.08410392090069,-52.90878671713804,-28.362021112319738,-5.121666573336588,10.799564264209604,20.843394049137633,27.71183252961872,32.149888046462486,33.82187822897443,32.81271214566212,30.70529779315971,30.33715590743313,32.668111059235564,33.75228981775594,29.887808536972535,23.491680630596363,18.044970803608834,12.838421050501244,5.6779757805429085,-3.0813701348265394,-11.801628586147825,-19.80881791005891,-27.07771442574227,-35.74254856935572,-47.65980859188714,-61.3233752686163,-68.38223574968514,-57.28750725146932,-29.8075235173065,-2.587699401634135,12.56183579218278,18.907387590405474,24.424639261146062,30.16829761366355,31.03643909047449,27.59006917465343,27.321111832728626,32.24546358326498,35.39412683267514,33.195038023795405,29.125003573682072,24.780068783046488,17.859957807030042,8.951021912239469,0.11324500995864639,-6.818178608484297,-12.490801358900566,-20.610928453894918,-31.32542376862111,-42.73919962351514,-54.511684730910815,-63.45572255656341,-60.14975926193631,-39.847957585618175,-12.969045312638206,7.94019158510203,20.45510310508097,27.211405535308934,30.410674459391597,31.67045665896592,31.90079101119308,31.46863286315234,30.92224040452856,30.907211640748603,30.69805407657998,27.8351406338978,21.850848770336494,13.640410782767155,4.665743106561771,-1.8217466633576826,-6.327412383381876,-12.49789112190518,-20.640156040912245,-27.960655430931673,-34.99860743467776,-45.450897792328306,-59.1393865265415,-68.35662930459104,-59.84728624407933,-30.92003943724265,-1.2007609188662265,11.95269533090982,15.703261670067196,23.763805465210098,34.65699223062059,38.39983762642675,35.908088514141355,35.665570634030075,38.68992708336466,40.2214714726873,38.052672321576964,32.057837490125415,23.728657497153122,16.867489343298352,12.823049477323817,6.880541283035598,-3.615171008310899,-14.812349576454555,-22.150391669482445,-26.441313935216186,-31.94010241584185,-40.36671548215484,-51.70717844223711,-65.50018102370686,-72.56257319879187,-58.936796497091,-29.81534328019377,-5.986506563496736,6.556208771781627,17.35455983604474,29.38942189507755,37.323918395468375,39.66424321976007,39.439535693023224,39.243490470503424,40.19094078120756,41.447732564789995,40.20827935490334,34.50440677986038,27.4209753308698,21.56478618922155,15.436903328605371,9.516545633224736,3.920720251323916,-5.375499362696258,-18.367918804289165,-29.265688382639144,-35.52431271263511,-40.35013394898421,-47.51959705055969,-57.71226484192537,-66.41367929952848,-63.897110194575724,-43.492933961920905,-13.388337834028155,8.838438701427078,16.433129020210405,19.09243647067188,23.544036367820322,25.856326217841243,24.992975264475003,26.667041618443754,31.613072187437723,32.46008043220736,28.169209351411816,27.28626538299085,30.319585104449832,27.513372020292678,17.019106575739396,6.305332891723779,-0.8588932229851391,-7.187702457929446,-15.080611779282433,-22.40884415564158,-28.01065665013436,-33.788418624633714,-41.94908195774942,-50.201205253581435,-47.978841598408195,-30.61687715001673,-8.092414926864683,9.125998372963084,18.321998620572565,22.53814968221508,26.24458692647818,29.48616209714506,28.975536645059375,25.706529030914258,24.708614296714508,26.287318550843423,25.077759537623912,19.930417273243094,14.801749991128498,12.53059466296579,70.0,122.0,82.0
34.82180552294664,33.87040147352058,30.70330821795651,25.369913636698552,18.543957179781064,8.220934987005613,-4.287974295915031,-13.766458720442923,-19.925078861205133,-27.198843364572582,-36.0873205526743,-46.03899049601658,-57.769202335563975,-67.19399492466881,-64.6374941101483,-46.354730789608546,-21.077735154634983,0.26625185487661646,14.154102604248777,23.086458963120904,29.251312487816048,32.93229591049449,33.77113182636095,32.20031366419024,30.302438876523933,30.814916005784337,33.36796248064556,33.14429794801131,28.091342573239945,21.769920068525725,16.632600202850277,11.01603090064975,3.2276409246786386,-5.646472991821732,-14.214398065288835,-21.931856477377988,-29.314678275077096,-38.83290015327836,-51.63588338561555,-64.6103676946989,-67.35103592332348,-50.44174754783334,-21.120000160310894,3.1352849314531857,14.903946123317155,20.350693553425426,26.260621409155704,31.092731280292885,30.20011339953608,26.878649414132713,28.428198761440488,33.671008646617786,35.22413888195672,32.02915069814704,27.983448091425878,23.107398713675742,15.382618327833915,6.312910265804294,-2.148147029122242,-8.430382316956724,-14.469373723716533,-23.549805172322394,-34.58190878638134,-46.12903224200198,-57.71090419691859,-64.21849656667477,-55.832567928049265,-32.0575271265935,-6.01789439089588,12.324108564101193,22.877791630726822,28.42623737495061,30.91540929540455,31.822669014242994,31.82894226328679,31.286476013817296,30.853295293267998,30.962897289648236,30.232720568589418,26.37436972311273,19.686339141789432,10.984746171934948,2.440442777816509,-3.16286973429379,-7.8251439127832745,-14.762570935814365,-22.927411232187474,-29.85932654689496,-37.55290438850492,-49.256834110019504,-62.811254405895056,-68.24708086041268,-53.07341355859304,-21.264160587377607,4.42567690476431,13.248765079779886,17.302767529882967,27.093970864173254,36.736393034900196,37.92431556812778,35.35926005771135,36.39726642274498,39.46265287754766,39.989964779263964,36.69912854358914,29.752309276926535,21.42031321183536,15.53319599348526,11.552835373056627,4.239162626591677,-7.034553323971595,-17.42018552398879,-23.5172922292895,-27.754485963859505,-34.08437138006874,-43.314712243434435,-55.59812628373348,-68.9461722375115,-71.05612760172465,-51.22218397430681,-21.647986221611276,-1.5336956575253102,9.464028439729121,20.899684990587648,32.30903607032191,38.469768136995754,39.72164155831533,39.29844820014723,39.398870492682,40.60966803191257,41.5044892033923,38.97443768238082,32.39079845366962,25.632213128855827,19.880168651215516,13.6110960466521,8.007772779052052,1.7717773876569365,-8.961154763838472,-21.980405545860368,-31.47796592624643,-36.8680318071103,-42.06933711757271,-50.243666702978786,-60.73038311717477,-67.32283455013975,-59.80224661729494,-35.03949302383715,-5.480386363739529,12.303046373017343,17.1657653270065,20.25346206778501,24.652613364430454,25.73612820553789,24.977007700398705,28.016206888998703,32.588631713706874,31.431315780783322,27.238538925112344,28.139475089472963,30.471313249135953,24.998032338553426,13.627559873666007,3.906542671002165,-2.5831488051422524,-9.343012268448764,-17.378626607704994,-24.157138263386305,-29.547695452248004,-35.84906765548077,-44.67183528474725,-51.14566430167549,-44.27311043026395,-24.04863878012012,-2.3088802782648123,12.5525127138115,19.8306315180719,23.536578182009055,27.377317916414892,29.812112819240888,28.10300616566479,25.00912788629164,25.105066852234675,26.42687409018347,23.856534840262473,18.260894923818174,13.819547113223912,12.33141683663326,10.97255210123123,4.686842990967418,-6.143044617677444,-15.316523571367481,-21.10751538854476,-28.12102218809542,-37.80033591552001,-47.67001552503766,-56.59662254983836,-59.108733202822066,-46.11267427300314,-20.624849920766493,2.788543223172449,14.795327350922785,18.907390739114277,24.211886413519746,31.595636508005136,34.1953424321166,30.578075070884495,27.20800842508224,26.770112193462925,25.692060417211014,23.294115000344195,21.905800067243252,19.912738333828344,14.67276736153625,7.717379252097378,0.5505102587031724,-7.363265821786672,-15.34810984489321,-22.96644651080433,-31.67170400761037,-43.21914354617739,-56.22163952167517,-59.69383403011772,-42.94983450601397,-14.559713799138274,6.488197986898152,13.730525049614435,15.79980574329387,21.202862361028725,28.673621973936175,31.746907188324187,29.962988640563317,29.349771683796035,32.08011594339929,33.269708455514,28.46455121518877,19.51537870164012,11.577305990555661,6.089840457585049,0.02334569326952829,-8.259287702542247,-17.0577820519359,-25.021470597260052,-33.53318257113786,-43.59659365619767,-54.20822589460656,-62.79955945153388,-63.476974504106664,-49.27300137761005,-22.515756082401353,70.0,122.0,82.0
-37.86895486714356,-49.55394970837833,-60.53609970886366,-63.669540099966014,-50.11453708215133,-24.115186342682968,0.21327205171640945,16.04589652699892,24.893400862719226,29.384196512911696,31.295797200168625,31.901793677746063,31.708083332167273,31.11406477545894,30.841783233169085,30.961548272746676,29.477642724322823,24.681816741545095,17.343688549459163,8.32860513964599,0.5050839043672775,-4.417042687395757,-9.548708628158959,-17.14359115314745,-25.071207702840915,-31.810876711799963,-40.48196431797154,-53.270014959424344,-65.84129973056281,-66.29762783380103,-44.746625861103865,-12.222035683727832,8.457833268723943,14.171562107212358,19.515901170300264,30.430848205458823,37.99331486303654,37.12079933702704,35.18896247329597,37.31630848985451,39.98980619773587,39.439085226458985,35.02337164799128,27.3142553641917,19.348719745837005,14.403570245592924,9.960483102785803,1.2267850712849253,-10.369209568914103,-19.621982015801905,-24.71969888991653,-29.27194802516486,-36.47151635571393,-46.517269888367295,-59.66747799565588,-71.46285836566052,-67.5223021685776,-42.63735757965438,-14.4434273452276,2.0931844660036907,12.50362032047258,24.475522985029308,34.7379244698177,39.18925761621901,39.649572812318524,39.21054369847273,39.65989984896082,41.01721967734329,41.25959790570261,37.358774955298976,30.290612556656246,23.953920491349876,18.116631690862814,11.864715639806251,6.475345906022911,-0.8065323106366826,-12.76797434010601,-25.252285495599565,-33.315773170675136,-38.204222026316515,-44.06191040517095,-53.196731806759786,-63.4613444274679,-67.00735072478301,-54.14723142443427,-26.14790199987445,1.3206263340713829,14.588436183140473,17.829292015392276,21.58799181148362,25.425460389870135,25.42309757764914,25.346354947315028,29.541922279153187,32.9974435893093,30.097783295151576,26.838417489191595,29.16163564531305,29.868951420007605,21.951784295909174,10.427195524227788,1.8150828396404788,-4.35170532628357,-11.637074930429408,-19.547472050888693,-25.77274227460902,-31.16194650439703,-38.162209827183155,-47.26608817998717,-50.881174813263456,-39.35991747652085,-17.393409249044666,2.8476660550336614,15.314933024823546,21.039883644488224,24.591804747626874,28.403536733209602,29.744690093055052,27.097475970297328,24.633137783415794,25.63279273145012,26.185360462538785,22.36245478120427,16.705997959311002,13.115929138896192,12.165341866673886,9.809687177709513,1.7905710766589271,-9.214711448788538,-17.179938869079493,-22.812783598956962,-30.747941357194126,-40.70337909723235,-50.427723194724756,-58.43014650994493,-57.16372133988704,-39.46081149074882,-13.012313875801103,7.511818293651688,16.368843461681102,20.040818067431182,26.391412521429256,33.10942227891051,33.57028022495522,29.288502838834336,26.896714747742138,26.6675444483965,25.02380340761495,22.753060713144738,21.571119282797476,18.733764643897025,12.718011063161805,5.682200989147452,-1.6512588495957168,-9.724358999543592,-17.54310934934403,-25.290714900824582,-34.652814083781294,-47.11090648236571,-58.88650701270825,-56.989616738572174,-35.07009139409332,-7.072976027067496,9.801011183710365,14.337940867338062,16.880886225316225,23.431584355956616,30.226021069815108,31.504931603955008,29.413987309494587,29.917633576583526,32.870012068315916,32.54021603522391,26.080586458058235,16.930475922385256,9.839877983687735,4.536429506398425,-2.169641664247709,-10.85792175760955,-19.424531606523807,-27.335983139059895,-36.2989020537518,-46.680854032022424,-57.07953891338003,-64.164170544189,-61.070616933811024,-42.36035832149816,-14.30208268969986,8.460982369722963,18.304054873376266,22.124586011265997,29.21655625724103,37.98369495113441,42.36148370413086,41.89443892802195,40.40822371785346,39.38558280942483,37.83923012547662,35.931417952671026,32.44035757696381,27.15988711916217,21.2800865733128,11.988210480218353,0.08704571220351556,-8.434826161742157,-15.39390525876484,-26.35809785758721,-38.69689941282265,-49.08985382337572,-61.2521079407321,-74.36187636497445,-74.323425901221,-53.577676004281635,-25.918529877126304,-6.160194997009196,5.93335930042492,16.913792623607392,27.154839904212718,32.121909985848376,31.823340131644464,31.89824782751583,34.58380508568816,36.605696510105076,37.15459812781988,37.84780264901902,35.48669070760255,27.519892318824674,18.89261856706173,13.136625559502885,6.999254040013848,-2.568242650875012,-13.622162468649613,-22.305634723155343,-28.727732767516205,-36.28054636551727,-48.727450665354546,-65.14525890086047,-76.35578185929594,-70.42535150938797,-45.749731087914476,-15.373717546224135,7.093239015941293,18.825405777494115,25.694514221722393,32.79523962066799,38.378905437436934,39.55781359332725,38.389734982634536,37.87370576442081,38.243505690214796,70.0,122.0,82.0
36.630368514367234,39.573998351123066,39.5108025704444,39.2090860299532,40.00858454713501,41.3458552518427,40.63604414336563,35.449930176639256,28.29374959406408,22.32160586379515,16.288361503403756,10.232598401339443,4.788489871813682,-3.8368695561040402,-16.623606071839248,-28.101928215425083,-34.87169188122344,-39.634404450149,-46.35818267270934,-56.28190282727013,-65.65777429615758,-65.24133772933449,-47.116239243293776,-17.30978166627983,6.788712419592795,15.98930136871978,18.638945013092464,22.95211826324379,25.807587683154882,25.09587158387521,26.154461243042157,31.017282815452774,32.769431223251146,28.732077844505085,27.022605621559357,30.04475819058298,28.44038067895902,18.601869948123635,7.526918689917861,-0.04801132857474334,-6.252818401203173,-13.995688764848486,-21.54713082299243,-27.31060877052188,-32.916008996925,-40.713104696756254,-49.436640323912734,-49.22573853594995,-33.52456475262438,-10.937656798958363,7.309513101778223,17.48950440987071,22.081194707579105,25.714335650266726,29.21366113768247,29.294905783329604,26.112196407047687,24.60963116285232,26.12211661596118,25.521439336306567,20.711424775977058,15.346398485162608,12.667304839469981,11.888721678829894,8.117250188120193,-1.386050589665492,-11.972185553589268,-18.81712269893188,-24.757686849115046,-33.55583839943041,-43.56500579627505,-53.09828801758559,-59.50227588216649,-53.718910389600694,-32.03133967035983,-5.96390505696036,11.169956772726666,17.496964345712342,21.48417014679518,28.636564206436816,34.03027234868287,32.50721809753476,28.214546046297095,26.79656294060221,26.40521750652757,24.29281665603215,22.34884286749814,21.083924688102066,17.256672536589768,10.69571708203303,3.6323866945443903,-3.9325850319740097,-12.051322328412198,-19.722300242880483,-27.748340794457892,-37.92100541491851,-51.03046695249699,-60.36880507491117,-52.44429695374488,-26.664193202629097,-0.6419437195485823,11.997958111653086,14.82059778031364,18.369603105744275,25.699027929990226,31.248894774380854,30.952501157309985,29.132852686831743,30.73352317024417,33.361585883195595,31.250580218416733,23.46088155961111,14.560543920524339,8.272239827306795,2.8449113437996894,-4.551296279738682,-13.432006599375129,-21.715969958678905,-29.753215208797528,-39.19340454317042,-49.77570661527665,-59.70297495064984,-64.6798928673839,-57.26888045770737,-34.60187457076389,-6.582319995279973,12.575459314190542,19.480910971266034,23.688312087902162,31.87883098566921,39.8653150360665,42.57053561296019,41.42191169607395,40.10544323814399,39.0064774209059,37.32795762628126,35.17383100491805,31.003248198780675,25.57955264533523,19.085061859383117,8.54354250367483,-2.865779512991132,-10.279659993853482,-18.094372100815843,-30.05317895715438,-41.835547372975874,-52.211058999736544,-65.3728319944484,-76.42718306526045,-70.17836903307673,-45.41101033872871,-19.130140493456324,-2.186826251048383,9.029215210108648,20.143092041581355,29.280253527676237,32.372957529907985,31.5669976221476,32.49829036849249,35.388075636341625,36.80898518366979,37.371961484063974,37.7158921252638,33.661066599541115,24.79681598748706,16.989807846642506,11.61048664192493,4.603332374158723,-5.8098540598086625,-16.465023216877377,-24.27762085175527,-30.608528752322314,-39.266226270663715,-53.32251658302595,-69.48753311583799,-76.78925272145678,-64.85032496861284,-36.81136906177821,-7.716482387022089,11.423370020075701,20.978394221971183,27.67588849127768,34.75873809435208,39.17496554495164,39.28306051541284,38.120869632407306,37.91069749320719,38.478179540465035,39.55523087620638,39.88072629844511,37.35839171943896,30.31540367663658,19.99745294027174,10.747912449415532,3.096129095067132,-5.750521775262923,-16.455856705902754,-27.569590735556396,-37.083814156519416,-45.58714042031022,-56.54756500719066,-69.43803346039627,-73.12539647990685,-57.16182715330046,-28.176772439888957,-2.1787760638333973,11.757300094537676,16.73845661427515,21.21588880113274,28.004086515237127,33.12629819125404,32.84814636468565,30.52091248983449,31.83768104552343,33.961967576822914,30.73146218896612,23.807502326868356,17.85190944893191,13.897880712532,10.784714751974583,6.631330609842848,-1.3575647176091699,-12.499445604830079,-23.042003956220878,-32.069146607237975,-41.42064027467043,-52.25727430923262,-60.54500131698195,-56.200807436076744,-36.02450259709249,-10.555632887848303,8.856523979638206,18.58695013347334,22.071839044255853,24.404047283838754,26.733934980481838,27.61246120040829,27.63059203560349,29.530883202529527,32.99404121050259,33.892058746423686,29.71934833750254,22.488904859755632,15.379053037438249,9.228122014676162,2.2706751775091014,-7.491348250494321,-18.990783075494466,-28.595816949688572,-34.91241143153551,70.0,122.0,82.0
12.411260556885013,11.349218899514996,5.884331848888054,-4.656882201255799,-14.348565358268408,-20.374301248977055,-26.993206201006675,-36.455082880870634,-46.383345233877236,-55.57137969723922,-59.52481804741615,-48.81604666247682,-24.231374218055628,0.25331371289087473,13.846732724586477,18.453701238865786,23.27882479065214,30.73628086200043,34.29219273252433,31.20283556807133,27.44982239971669,26.78253197818124,25.95689089922595,23.588141082149605,22.039419956290562,20.35066733997365,15.531787740369785,8.656450550829621,1.5384759806601738,-6.273569428122499,-14.321371471212533,-21.92813327217147,-30.383645304884272,-41.485852678124154,-54.70556990647749,-60.31203367758105,-46.2574287157577,-18.278228710338556,4.538647045524909,13.327302423752958,15.426887319673039,20.238427353291048,27.80776150060146,31.711021868511942,30.270107406553922,29.198009608907753,31.660520712687063,33.41778194875369,29.44617030833456,20.753146132076285,12.456823573683302,6.779703420370386,0.9628480760178837,-7.070067201254459,-15.934968098131682,-23.97520672006912,-32.306447658819515,-42.189805623472736,-52.83069165303019,-61.94227884229465,-64.13677057979014,-52.09065170021199,-26.36413894553447,0.31769632832296635,15.561895059576353,20.46098727386516,25.674982667016778,34.52465788899624,41.25102140907706,42.443631096649504,40.9646614225504,39.83036803893934,38.56176671107342,36.80329144251837,34.220054128696056,29.463348781922917,23.95150122711989,16.493306865253967,5.003841913130503,-5.395078484544448,-12.166950648927756,-21.217887726118768,-33.70018933111048,-44.802542573169546,-55.63451548605811,-69.41918250137537,-76.93375975996686,-64.335280529039,-37.18154331474578,-13.233825653696377,1.2992516471188627,12.181840330799952,23.22258177763964,30.85129869111782,32.266382632107806,31.504100946061428,33.29404797261415,36.026259427598006,36.9396135889178,37.62068021899464,37.185027247884676,31.374525536399144,22.206887068338453,15.332260446006527,9.927177611572342,1.8837754242614764,-9.070427143662613,-19.033773710151113,-26.112798784162006,-32.68264361684143,-42.74873533684765,-58.15027412954135,-73.0950870292928,-75.51336686653599,-57.838240213758006,-27.824710111016092,-0.9721203697722531,14.90773311999539,22.92096579147375,29.743076872184645,36.48431328444694,39.57029833681477,38.91440455228887,37.952117661587515,38.00546742782007,38.766301212099485,39.810637815602426,39.54255171607951,35.816540384208686,27.494048236339378,17.062994813638802,8.501132493710221,0.7481523798912102,-8.68987192751845,-19.721144774141603,-30.537010583293743,-39.512819475993076,-48.36018111381269,-60.367695291409966,-72.12226760582831,-70.60070913998935,-49.42718337675883,-19.729179708763013,3.164070189202523,13.73388552343618,17.793696755088746,23.031248239431772,29.901954202649282,33.611591340195126,32.062425512222745,30.44953856578889,32.714985027474754,33.67470672162164,28.86714907160109,21.86337086132082,16.54425564798364,12.970413635892548,9.818448662710692,4.7966907923012885,-4.4198156008574365,-15.729894173827086,-25.74705903093525,-34.64325048686772,-44.43134649782856,-55.30208693532516,-61.01251896448714,-51.723827728532285,-28.589273198756423,-4.012978612947091,12.623957166040174,19.96808268499896,22.726566993382022,25.130410436447427,27.183496864380675,27.58615007400522,27.9014621125071,30.516543301504445,33.7112802290657,33.19116345535799,27.785209761333412,20.325009383222405,13.545671496839315,7.412326804744759,-0.2238663948176244,-10.793097230785323,-22.090724070818077,-30.722369051904824,-36.441276548524144,-43.88234175593439,-56.562623512910534,-63.66464109631944,-51.49526112181067,-25.51203174226342,-1.7384352679231327,13.114602716551417,22.736673158167022,29.74013455056635,32.649755082513416,31.62546625630923,29.948776283189588,30.357396014815688,32.56491967554284,35.41834675997257,35.065001920372254,28.20840815498546,19.398927781096102,14.174722413454699,10.514325990658238,4.22127600001904,-6.2731605083853434,-20.436775373108482,-33.372111663229205,-39.59595408715095,-42.2032582918142,-49.66686866323268,-61.27546894939651,-61.873231233137915,-41.31181361440049,-11.800585604383144,7.98347329834111,15.131858749253274,19.35572373329548,25.361958573436922,29.377308635385774,29.22693021644115,29.59605714693832,33.595152171964905,36.61465411484455,36.27155003850288,34.942085105771426,30.68364225305648,21.298515216039902,12.649323286336749,9.554552448961482,6.051402537628399,-4.122847091101043,-17.35070112406819,-26.766512461996324,-32.15913401506097,-37.42200290089547,-45.60461037513284,-58.764450789542934,-72.1109311712878,-70.49469155650935,-45.833166722261126,-13.947630804779994,4.673036192708824,11.031473185541223,18.149005930004044,28.273567047759954,70.0,122.0,82.0
-18.049807854167664,6.16129367235217,17.60545989747837,21.535268803140735,28.035576170505532,36.96932229684125,42.12296061010594,42.09690541982421,40.56742712900789,39.53755801585724,38.072329467222296,36.22918952421912,33.0488051036567,27.887219838084384,22.179065530453343,13.49250314482837,1.5765211856286643,-7.54055548077903,-14.292342732073559,-24.683780492741658,-37.1730635391126,-47.71941715522843,-59.408457707974165,-72.99685865774468,-75.59583498871876,-57.18201041670257,-29.32395859964818,-8.211021969362191,4.501431886342334,15.41131047418762,26.007667314255208,31.847073623018392,31.97250123548862,31.708452312025884,34.17902550542736,36.465534717232664,37.07518672950276,37.81330259579655,36.148820639390784,28.773724985465147,19.86931738302913,13.819474416365175,7.993148445307329,-1.114560496044361,-12.228829071201334,-21.329768568604507,-27.896726128169522,-35.0567659251469,-46.734247315424575,-62.986980763688926,-75.63336698602926,-72.43975640997613,-49.737674515794815,-19.167443908159395,4.778316180739256,17.710358672768653,24.810213795159974,31.842520122781764,37.87188031124236,39.62357677219517,38.54303235726611,37.87940437666143,38.155149715768516,39.08921814085732,39.96030502275822,38.910080759480046,33.86543370546972,24.477028787892227,14.334231615393763,6.326693235045501,-1.7618407752962846,-11.771810411083335,-22.971687250370348,-33.32275805639777,-41.91497103981693,-51.44108296401893,-64.25302614615195,-73.65062854747679,-66.2928652448357,-40.95908111788353,-11.92411692950877,7.3965552402156325,15.154154446699613,19.00596602734887,25.02057899185108,31.51806850039669,33.5952044559855,31.278353315818194,30.78316519749223,33.475396132275215,32.833788989981755,26.82616533625446,20.091186377606324,15.38740427005322,12.083447529525376,8.704474907699792,2.5718199850483647,-7.665800215322392,-18.821290696859606,-28.347477760864596,-37.300747561234424,-47.5779607017726,-57.95783594094387,-60.138911148782775,-46.00219825662776,-21.069074209299384,1.8145520879559216,15.569135243899401,20.974390433150052,23.384156809516615,25.83860885767373,27.46935357225346,27.543362747924903,28.398549323682808,31.57142798674579,34.09306095060564,32.051147281888454,25.6823341529772,18.238868500548577,11.781374515005446,5.467182539806125,-2.99248448617888,-14.164543835082558,-24.94541438387472,-32.570594483628014,-38.103897626234996,-47.16684441382448,-59.9935674990331,-62.31713480645297,-44.68446729930513,-17.843964625152672,3.410013736626097,16.20833891387612,25.06463625925062,31.06348610706139,32.65703177622507,31.028507658990037,29.826906099321132,30.8465416664043,33.42226992974846,35.88640722782588,33.7118574297581,25.51117468768533,17.471513943695378,13.179258259524296,9.08099245369721,1.6443394126495192,-10.102890638883643,-24.625376847350815,-35.92669686983741,-40.34160445923852,-43.58589602372095,-53.06861024738728,-63.37360424325599,-57.98290643679404,-32.741431343350364,-4.572690850083067,11.002312427949487,16.230091052974117,20.98487180513754,26.947012471186206,29.66170798105545,28.99711649156915,30.474792445975083,34.827081237414475,36.760992487861806,35.95084596999229,34.21797535280683,28.39327260387895,18.33561856482534,11.267323475765068,9.00176057525111,3.8299315218911887,-7.993974211844137,-20.623738045114354,-28.577244073992592,-33.53696666885854,-39.36236858719451,-48.89437324571372,-63.12887585809704,-73.91769505622418,-65.47463473353378,-36.23104087518561,-6.766331800942549,7.179166645928758,12.597501354718435,21.04905383876482,30.65568677981694,34.299655384423964,33.55807911765349,34.09554540352617,36.38429564489065,37.67707716498631,36.73954523512921,33.85647475734369,29.594854052150787,25.106411152475452,19.927145883232715,11.725614066298888,3.789542259846171,-0.7091172478954288,-7.18586306053689,-19.492138060317945,-31.6187854101081,-38.808388794233885,-46.91870097409996,-57.964380833907725,-60.75342727002081,-45.602102204621445,-18.636542158930226,3.8026445913181446,13.611113173062293,16.709922705008154,20.624467342950094,25.600754132855638,29.437217699050244,31.69968010528546,31.52469771515254,29.012736819684065,26.696556307687985,25.422507766226516,22.269530753151017,15.828824440925429,8.298824732371356,2.4139193446034906,-1.9055516699786066,-8.342194097552582,-18.395223784332362,-28.305575606194562,-34.75675267584796,-39.34468116814716,-47.19186034064165,-57.42418436120893,-56.64501331844221,-36.62480101023761,-8.841156434927937,12.107854193126464,22.89937010946341,26.058941157267935,26.358835644196624,27.44649951740921,27.078564948907644,24.72711264098471,22.934532524075653,22.696250703449106,23.54193352477626,24.552954705229695,22.53930363207128,14.629214882274292,5.4427435650094065,70.0,122.0,82.0
38.362752261974926,39.41507480378256,39.95259620392123,37.93469115411552,31.51828179663622,21.39925681450387,11.832845183956675,4.134509785802433,-4.450855851043547,-14.961081085097433,-26.147087036862754,-35.93125822379799,-44.391038751307946,-54.863061168435486,-67.91947905597299,-73.68299870718735,-60.36331842346088,-32.197339568400864,-5.0150222625671335,10.592775424930355,16.265752125986722,20.45847514783423,27.073366026527147,32.72927471743196,33.155570063100704,30.68648448642838,31.453933653204675,33.91366468089298,31.490325044154122,24.74689913603051,18.51405628661163,14.347278100321292,11.202026683875587,7.35575517936794,-0.03808696851534857,-10.97906370865361,-21.747592721155147,-30.896019750706614,-40.08560578774476,-50.78943988810793,-59.940783512972544,-57.788263003328844,-39.32739287000419,-13.773093229129733,6.830971113453323,17.77995597572864,21.754130216275833,24.07438520689222,26.4773150137143,27.597287137777634,27.571025837343136,29.12649757858932,32.579546005088645,34.05994044038998,30.52857719551318,23.499845849359602,16.256575846961322,10.039483318128823,3.3326776143317827,-6.02095445169882,-17.496379520182042,-27.51376480482714,-34.20354586048993,-40.08842536466934,-50.89767335185786,-62.512044949686356,-59.13404895451754,-37.08576400602314,-10.740118805868555,7.799960178964277,19.009298338450016,27.174198595794135,31.99517718869224,32.37508969417125,30.483233814577254,29.910743250388464,31.462801021723262,34.30030921319415,35.9486612594365,31.785306024414,22.853342950569594,15.917027296160892,12.191046510104412,7.349726768320209,-1.301211123239753,-14.205524153388053,-28.531761836101886,-37.829696793856215,-40.970679938837335,-45.58639208511928,-56.63698577045335,-64.06769141918355,-52.262287295128,-23.946654911999,1.4629938584421138,13.10186108239108,17.36429800901255,22.759992049845067,28.224934070830784,29.611944321940207,28.987490582970857,31.651267710524962,35.80327782818611,36.659338739811524,35.60699836914311,33.12819411718806,25.67933181436424,15.668570726050488,10.368517442028068,8.169946613625125,0.9748547719173564,-11.9259860518573,-23.446278433430376,-30.12747512700023,-34.99971473316523,-41.61213312100823,-52.641599642158006,-67.28172350253561,-74.01491324948122,-58.534017244781246,-26.651880173956336,-1.0697267103974082,8.948018930560002,14.533480049207714,24.084389590539892,32.460243382451175,34.24282926727602,33.441024982547006,34.69201844688522,36.96145066722152,37.63470378515618,36.08629293120173,32.72618492581034,28.273745108176364,23.80379876469256,17.871662326737784,9.122520767552782,2.239892082244307,-2.038130865006564,-10.247283828211769,-23.40854319338529,-34.10502732869619,-40.70443961245864,-50.117702385611054,-60.25057284838755,-58.294582623944116,-38.338887451899126,-11.03450137006833,7.873491244980648,14.75692148882513,17.611406735750023,22.078218138643873,26.864362597456942,30.272489062376977,31.944194501520577,30.959099900010024,28.20073672582855,26.309481775916304,24.84596306215115,20.697550026844503,13.624760428176465,6.351749967592564,1.1246120580469345,-3.3702282902488125,-10.973676584589208,-21.486731674305396,-30.560966276887093,-36.068870553372925,-41.07840716864558,-50.31469476361905,-59.02735939022906,-52.66566067331203,-28.58062780887595,-1.736829420941952,16.202501398407858,24.430522246939475,26.183787102584763,26.60436488953029,27.626877013811193,26.488573814399093,24.06909679561698,22.710016594546026,22.860654679555292,23.891059540367078,24.493584177009833,20.819478384969344,11.727386697562045,3.68324571726198,1.26457989791013,-0.9620993849713069,-9.033775125335625,-19.48310514394642,-24.959632948766693,-27.53426914479566,-36.118375083061636,-48.48976441196354,-49.94713970879198,-33.483711926958975,-10.724369392438275,2.922020069393634,8.434920041492697,16.507915834395472,26.458079712228294,30.14126771387585,28.664484167942685,28.36860076275301,27.828469407057504,25.142429871319493,24.53995889742473,26.4182069240142,26.417879890891555,23.95253639382221,19.51629587674046,11.594184223579191,0.8267157943796767,-10.166392655693045,-18.994173128260854,-25.83106207843465,-32.70959770564346,-40.556575281310614,-48.711650895727686,-57.209720574665376,-64.69676777060805,-62.306634804801405,-43.25290195732068,-15.784280677095444,5.5021367040938385,14.959062283592973,17.980836577534074,22.844304849421913,30.43634824909467,35.76561109825104,37.48044074806375,39.068694489938466,42.09119912205883,43.30195708671945,39.49704135822068,32.427593494248875,26.717573496371948,23.705889232597944,20.386782633564295,15.07230322326039,9.41806922172749,2.3712598608232187,-8.28466402777864,-19.423846347515674,-26.789567027666585,-32.865858157162215,-41.845732882175106,-54.10174792847527,70.0,122.0,82.0
-35.730982727904006,-42.55562330808813,-54.80675872518038,-63.67811398280532,-54.24588634296952,-29.158314920859468,-4.388816229049214,11.55578190214119,21.60145200649136,29.006025605833056,32.53070015897949,31.88979431847787,30.074774061919737,30.17928448874767,32.193914240126965,35.1054144771991,35.48158557865836,29.40733722645666,20.41425440263344,14.673028274136145,11.088639882973663,5.288422716378183,-4.620112882720981,-18.464074929144065,-31.977558778291584,-39.14746265640719,-41.736455433364924,-48.24265278923535,-59.958584089544786,-63.00916631148654,-45.029665642905506,-15.470683447384747,6.214166590075163,14.577127408008336,18.675477647319948,24.561595854228038,29.110740069504747,29.362341029990343,29.315576782030686,32.980318532742636,36.440110664911394,36.41056538268739,35.18803591133347,31.572293008940104,22.701227766445275,13.474309603288336,9.782331137130042,6.857300370093013,-2.4198562874288387,-15.707312299695104,-25.81467440367868,-31.53109540720075,-36.61189976148293,-44.24451978380826,-56.77266320913066,-70.81594532703693,-72.09845956138199,-50.08376350041135,-17.712510933372723,3.1628761125422984,10.381144669381744,16.913283148737747,27.019622533816364,33.62909485639913,33.97413284603379,33.542335902721135,35.38170850312419,37.38717747891547,37.40102908486769,35.2826666792259,31.497065587121572,26.971141871252133,22.39026544800646,15.514763725199332,6.712530048792644,0.9730889866865394,-3.7423864389912094,-13.796912436586332,-27.070343929926462,-36.16590485830897,-42.9161250600111,-53.46515084075803,-61.47423691183144,-54.20407720662274,-30.424641449963293,-4.2297881441116605,10.851182749205828,15.593793493880181,18.704152067427824,23.553815078936008,27.999853191437513,30.973780166521937,31.95224535206753,30.227211868302486,27.48779634336289,25.982008166622645,24.01882527926211,18.86013220155408,11.407270390358887,4.601311695069006,-0.07915879907934331,-5.129027934815029,-13.881145881403699,-24.439445329518215,-32.48060708790314,-37.32000041921258,-43.23204998901471,-53.48708290573742,-59.277927698669494,-47.05906047987555,-20.350468582413054,4.541077907636576,19.47124237433574,25.402857068734292,26.217803821712057,26.949431056522688,27.58300690514144,25.786668035450973,23.513847652719754,22.620236684806212,23.096252767516503,24.231500741761185,24.060672103502185,18.58098167807536,8.924793363185977,2.4804759520041135,0.9877008045665634,-2.645858708689024,-12.185493522956843,-21.742284200759094,-25.592622715097633,-29.15073099087132,-39.853376101224626,-50.678824746477055,-46.833404909698466,-26.72478541917961,-5.492351910165272,4.842718061521387,10.224142382360082,19.57926311886711,28.37227019976602,29.90505045764109,28.350434596368306,28.448905675990368,27.15046997218951,24.56840063791042,25.023665355899833,26.735578993467655,25.889178704907327,22.932829707971372,17.622742766924315,8.673857805500894,-2.4538598352533056,-12.997395627639449,-21.08771590823292,-27.737842026076496,-34.88591131709853,-42.91704483331346,-51.09408415643358,-59.721062302828436,-65.53196091852426,-58.447609511502534,-35.49215317336528,-8.504516885893029,9.377251887830154,16.079103682744556,18.963929186966936,24.95346686967669,32.39988723018377,36.51927064532359,37.79040433536982,39.863141693800934,42.83322369601141,42.74727893036437,37.58555795614615,30.475047461836006,25.65052730447349,22.94145642596539,19.001803016756757,13.426987079077845,7.674159539524938,-0.3524690551634081,-11.71990671731447,-21.966055875964944,-28.437631166726334,-35.07652962499688,-45.108157252289075,-57.998214851275044,-70.359960251775,-73.67751578338647,-60.307072589655235,-35.581468245231065,-12.393406784291887,3.180695395951792,12.426105192847418,19.661460199954885,27.911712941709126,33.050526961028794,31.07144637714015,29.080361830083216,34.14919014539893,39.343247233207364,37.70644177335033,33.77854556611216,31.457847342326424,27.873737166992086,22.078511443706855,16.64747641797112,11.518758090359963,4.437464332131405,-3.87727229131248,-11.525521912468177,-18.85598978730861,-27.759134278783353,-38.36815486103599,-49.898518399512916,-61.26311571956953,-66.31788837813075,-55.995226329303726,-31.232834430746834,-6.20098335210944,6.320293215867117,10.190439104510808,17.60738327824319,28.715115571973257,33.34494252557734,30.210985420922228,28.968373249347195,33.46223397876909,37.79024735140967,36.39335505782598,28.968140761977956,21.083961421844617,18.968429823150405,19.529913215948227,14.750352216119497,3.928044666730345,-7.205244606034039,-17.70344242027619,-27.2370986202614,-33.313191785335924,-38.605733795547955,-48.83046591543485,-61.826717745303114,-63.30930283507754,-44.642669790798244,-18.17021865702151,-0.6205092006922875,8.144428602527878,16.04102438127134,70.0,122.0,82.0
29.621997987631808,34.20328336784008,33.669725876480214,33.87347958460824,36.080833657884405,37.63045175099309,36.987265059404585,34.33725396868601,30.202830731457226,25.693375669009036,20.768547332892386,12.943126283699836,4.62551051936288,-0.16904450776635027,-5.965860927025511,-17.664054266698088,-30.30114968902621,-37.985453704885835,-45.55642353921526,-56.65072636207501,-61.336138470672736,-48.6141230754579,-22.315490757877228,1.5332778681288701,12.908506797457667,16.34466515149515,19.984184222522114,24.977231055600594,29.011201519128942,31.51414201811981,31.714388523937824,29.401700203828653,26.91351799386463,25.6247527144663,22.89338324001041,16.818492415118914,9.252273921128516,3.059532436325292,-1.3022478837973859,-7.243432446153367,-16.956001944300606,-27.154205832324823,-34.095867921443954,-38.656821276073764,-45.84627645248494,-56.33724698996067,-57.884358546038214,-40.14000274980367,-12.355013169301115,9.92690626106351,21.979321588267368,25.929388910118206,26.28937522668663,27.307744148295452,27.290508380859293,25.05489732416059,23.08549409728151,22.64892298580807,23.390378203835713,24.48990110108855,23.144488236189588,15.937110429715059,6.436364592613131,1.7656503695532293,0.5039941462899492,-4.901897932738635,-15.340823318918286,-23.430718150667506,-26.177583711203038,-31.48419981193481,-43.663090298905814,-51.54010078435563,-42.23057000471807,-19.894706062692478,-1.320948805636436,6.329166412835137,12.465648109498254,22.619121714720194,29.580615328629165,29.410204946177018,28.252334943385428,28.376541838245167,26.32252885788022,24.309050651983892,25.625794349698165,26.796443040737884,25.196850670868436,21.72886623331158,15.398812931815236,5.565873620609179,-5.682579833090497,-15.598905601999183,-23.05597290557006,-29.698007788690596,-37.147855665209484,-45.273572179329285,-53.534264571558936,-62.065925317031514,-65.23709724528953,-53.144137599981796,-27.38995405627442,-2.0709083388386262,12.253169229138122,16.881833747845157,20.278525611095677,27.206149820381725,34.039425195461135,37.01059781569529,38.196597170824354,40.766734690330935,43.3033282505138,41.729014157880165,35.50219236712643,28.74924980513713,24.78675587615432,22.046411034959416,17.461639727121685,11.804227889907775,5.733076794264738,-3.405107795999779,-15.048025717388315,-24.133982886185642,-30.113210590092915,-37.59854008533696,-48.62001065657339,-61.89261380618424,-72.72840722168016,-71.5870626629906,-53.753955850846495,-28.257426822187956,-7.083780923842207,6.351189242623965,14.497985381141309,21.977837254070682,30.035470757695386,33.11802281424745,29.97911432361033,29.87724079643919,36.15186317656096,39.54023876503929,36.4849203887062,32.9940012503938,30.708038313578882,26.322159369379737,20.387161209031476,15.246084886876709,9.717149250863397,2.0540424232670347,-6.1918795456058335,-13.595114513876581,-21.208561525441915,-30.697365201273072,-41.61710200003868,-53.33233734411574,-63.815472634149366,-65.16688115943252,-49.88082252149841,-23.252563978359877,-1.1121834414039198,7.7498046198096056,11.618123350822005,20.85605990391534,31.079518425348446,32.89105144621434,29.24536550274287,29.833401302031497,35.06023107221047,38.09356267701755,34.732336474806566,26.371382252292705,19.80190046442188,19.232102289036938,18.947650155586075,11.995498989411725,0.5734296451927456,-10.234452291823262,-20.69128126425285,-29.36497734166629,-34.650833443972054,-40.89225065094955,-52.77090685760043,-64.15717997605452,-59.81996423367221,-36.87438452540682,-11.820883306469048,2.411862744637737,10.3256640303472,18.37946599751121,24.644981662856143,26.290835966044675,24.353644032820938,21.86550234324856,21.993342873900815,25.428007841513445,30.189334915962654,31.524259942665317,27.327496357755603,21.184479927242847,15.02997746480125,7.493942703589109,-0.6196913191860987,-7.5955440296741585,-14.918322033003601,-22.988238952084018,-29.301193038701534,-37.086040475995596,-50.137240736274116,-60.68109423545697,-53.87863627939267,-27.098232799106214,3.0119923118351926,20.32528629179215,25.864523271321456,27.79583506376593,28.698497489776184,27.353461358434398,26.14085087447639,28.663298961228453,31.8229622905136,30.78865874306169,26.725814047323123,23.630301043527208,21.33022091646217,17.374823860754667,11.455042276354208,4.567193906267006,-2.4935584061386598,-9.83905981912786,-17.823622876237533,-25.18640597945651,-31.08963801560698,-38.62197843239418,-51.737277667333814,-66.25712457176036,-68.90278848908633,-51.91180863878665,-22.634168478344485,4.399656424281027,19.2989127427742,23.2272713882947,25.21344995468474,29.900344439968002,33.076396130647595,32.8782780548088,34.007785581246324,37.427371839295475,36.68897280915152,29.899435926268346,21.367159495033825,14.636066395637192,70.0,122.0,82.0
4.424818052509708,1.384601533060356,-0.3802098632956369,-7.646303203290056,-18.26739227199784,-24.578112702473987,-27.000542121802418,-34.52092980075011,-47.1289671349939,-50.83255672969299,-36.44102773513775,-13.45414910737775,1.7973131800526543,7.730853509817134,15.152218510125667,25.36072923220097,30.101397103457963,28.8752287078945,28.316068851152327,28.062596081011034,25.486825442115506,24.39489581366284,26.1995529994237,26.593108677268592,24.373993394355836,20.281241760099952,12.860061926397046,2.337006690588177,-8.790841406525319,-17.970974595872036,-24.959467005933394,-31.73802814589587,-39.472385303664936,-47.62467232770835,-56.040566681475006,-64.01257502908459,-63.57467879114785,-46.601962979054576,-19.35824636762381,3.3580320833833146,14.2678362652941,17.60996896702938,21.957724158817843,29.448451367678807,35.30645022883163,37.34633609938467,38.75456469898564,41.69018605832625,43.40178346210703,40.285217507312844,33.381803497018375,27.2948195184935,24.039654189205184,20.959127907619756,15.833699644188759,10.182105909866173,3.508869744201,-6.709824917595773,-18.122108958858917,-25.999242187775188,-31.943149722657264,-40.43577095830614,-52.33590976440897,-65.6291017496498,-74.06869511184819,-67.99015626633587,-46.54219838767737,-21.36893369824658,-2.4521413279293234,9.06304517928972,16.533876920301783,24.4056079334618,31.71325570232019,32.56862990262955,29.18912917551062,31.320984261040653,37.85556449205122,39.11704222864369,35.27428680587553,32.352705428609035,29.741394573621818,24.628853476712,18.79383248529912,13.817597789788085,7.705142619326073,-0.3727882310946299,-8.417860441634941,-15.674530957767828,-23.739923528667614,-33.75119393479379,-44.93582549453244,-56.71275422830143,-65.6117733644959,-62.52861002543762,-42.73654698992424,-15.697386064185082,2.7301444028427797,8.745175180940889,13.621207069962631,24.226278583290043,32.63608421954057,31.92628979555935,28.71691328323476,31.137069479178994,36.44806612627408,37.82920857271132,32.610071550743086,23.937346632235332,19.10584470165919,19.527643258042406,17.731218833645897,8.84500555662998,-2.6705996729337356,-13.26227016674182,-23.536504333044295,-31.156724214351087,-36.06090962201545,-43.729071267673376,-56.753958342541445,-65.08114166226295,-54.61745271203539,-28.963416312538566,-6.524037311343469,4.916041367073883,12.593110129071915,20.567426108958752,25.61051482105081,25.99030079866394,23.52803744054284,21.547409989702523,22.678268684437448,26.843794399734776,31.13941343360462,30.792295066371032,25.562449059547216,19.45925285385656,13.02706781642299,5.098291508925943,-2.7505825843355622,-9.561890348446868,-17.300494619436915,-25.000922568886843,-31.10836750945909,-40.39075245668695,-54.106135797017515,-61.01480002918946,-47.73638429034494,-17.77531341585537,9.608440062215665,22.746219927146477,26.539860067254498,28.210499274070457,28.54977548485912,26.7577712693564,26.4814846141914,29.789070328741783,32.035757405880084,29.7261435303854,25.634257871904502,23.006351303971183,20.421839111302017,15.824494148479742,9.522568788942621,2.5244345964681765,-4.552696535524536,-12.103759157094292,-20.09779977375051,-26.993921283432638,-32.86490856205655,-41.80029327588817,-56.27837697534684,-68.84848885596003,-65.95581473105935,-44.0919408582899,-13.986000466546159,10.124907712324413,21.22897926336965,23.59438172258886,26.376223440905687,31.206312370201832,33.22981569992583,32.84263786408421,34.98338478203403,37.9080127742446,35.203201248505984,27.406530272603888,19.14933866878162,13.216707451320971,9.658525544285627,6.203173172629208,0.25344502524386264,-8.59619675701371,-17.433824494982947,-25.21901540279421,-33.46768521563104,-42.79612163781263,-53.75913463551911,-61.57779510457734,-54.71152380944397,-30.408258646378787,-3.3304044698428545,11.482518093695697,15.819024166356517,20.473865472863974,27.34870986303326,29.447833285334546,26.420498842735554,25.654718642269692,29.39166190210176,32.23740185577331,30.47312433584381,24.703145448960353,17.204208010590584,11.157088080059387,4.938085773205514,-3.817636471611715,-10.98572265796462,-15.409748648890384,-20.662353439141683,-28.69367750543317,-39.85644613003547,-52.51509425126915,-59.57020833859505,-51.28084524185513,-28.125626523242946,-3.784369875302115,9.17974428878339,13.667594317297292,20.499082736730266,30.998004072480988,38.62382199580904,39.823226908560336,37.16024120423246,35.77704631569195,35.88963643335251,35.10628736237646,32.884425729380844,27.24266977688908,17.95102659376734,10.347931416148292,6.057104572688302,-0.747810966447486,-13.162872044963189,-25.930949910795867,-33.88875630752091,-38.063783614966425,-43.85595076915968,-56.36131280778755,-71.79628039479707,-74.8309566908044,70.0,122.0,82.0
-56.19452732334795,-68.99892034974742,-74.13129380078857,-63.0083127296117,-39.04067872583432,-15.072808705100847,1.539776509882611,11.422838956474441,18.64370860249997,26.835472988154056,32.786299499022626,31.591630181758763,28.955832909019634,33.20836405994892,39.024025886132456,38.222832026831334,34.20543507295139,31.75328747235028,28.51997986069484,22.88045281901868,17.305647712845804,12.28192241481217,5.5032829933487735,-2.7837941202111733,-10.560011452515532,-17.824526471228406,-26.452412544823208,-36.893897397071854,-48.320586053994134,-59.905925342901185,-66.37934344516562,-58.386569072989204,-34.93372213561169,-8.953799513517462,5.414386173277683,9.68244359053332,16.228768302284433,27.401984462187333,33.31481151322163,30.744368364103966,28.752789876090354,32.70498660550006,37.47276294150755,36.978988697485256,30.15995059373515,21.86930741043055,18.921921599300124,19.618165034074927,15.838579057438977,5.4924713106530065,-5.794799341143378,-16.30403894459248,-26.14040548745082,-32.67493745263823,-37.71553390539578,-47.11340497452483,-60.389566288674104,-64.29453137940146,-48.02560538057438,-21.413938377613572,-2.2692517916916897,7.147785887510563,14.945397483130286,22.490171941703544,26.161287780588708,25.443855398167855,22.74526076232234,21.511724902518296,23.630467069387,28.292115092894875,31.6660354748399,29.613553214229746,23.761684860533787,17.718539767362962,10.87217557949478,2.7142301269008513,-4.764239780807687,-11.634305299597116,-19.693622115590735,-26.815596055786305,-33.205308220012135,-44.16580411201379,-57.53160769004368,-59.534637026392815,-40.074247369997664,-8.733439733197322,14.883270959548826,24.382203531803114,27.0919281251228,28.52781093180058,28.17777289498858,26.30006064935047,27.181041845861053,30.81402383027212,31.816366101929173,28.512093429916586,24.70763037043813,22.38637984697192,19.325008198111714,14.130177249115178,7.532884882612176,0.4848918477134545,-6.65420920891025,-14.420248656810472,-22.269945337831643,-28.681083260596623,-34.90288855904477,-45.51478924945313,-60.71804387785766,-70.06752291944689,-61.31925930106162,-35.565522662969,-5.888196262048692,14.682928354726108,22.38849102633454,24.060241958431114,27.764391469042184,32.22939097131984,33.139467666135445,33.07610602745076,36.06975343389206,37.850822414398884,33.2679593988162,24.89258066573913,17.142020679473134,12.013661173455707,8.777972557547567,4.824763620095547,-2.0901687231875457,-11.290729395212322,-19.720642637480292,-27.517218719795068,-36.0175229465471,-45.82863309964463,-56.804331088702924,-61.56257198524886,-49.09972159539573,-21.992046888344333,2.488341898424176,13.32584959040852,16.776938803328136,22.49528655279185,28.70123190947499,28.8109471167671,25.678459269366872,26.42834203000922,30.582976443086707,32.21586683178674,29.153174652023775,22.556549749738036,15.243118606965696,9.593203747899695,2.569926209332608,-6.255645649881653,-12.403378457753067,-16.706927610905826,-22.664474909557708,-31.60704405256581,-43.54313754119234,-55.60273598183037,-59.032054652251404,-45.68701677772049,-20.46856244560718,1.3376787930250353,10.836276234782629,15.081192511452121,23.40882727862045,33.76711474069249,39.630732545787644,39.20175233985805,36.48915791422355,35.788673010031886,35.79608052103218,34.65154334753363,31.72679581692219,24.763305627058923,15.335242664040427,8.941223032458936,4.645736492801685,-3.8666695095339234,-17.143911327732972,-28.794029467847164,-35.30082584260552,-39.27945261043206,-46.696339000133634,-61.04419070499938,-74.71438526924656,-71.4126144859631,-46.153474050144425,-14.774831906875043,3.5512207568995464,8.2190781360776,14.305662219244653,28.238468721337952,39.24405739866703,40.000267081944074,37.627790416955584,39.902111536498566,44.28428698643737,44.47693283204008,40.19796558370545,35.07793995783142,29.335000513704557,21.462510592295832,12.674426434876555,4.923115610478103,-2.3289100948997885,-9.934933443683951,-18.38111002894703,-28.88011547890956,-40.75010462065588,-53.847803941599324,-67.86041227261819,-73.0821708399504,-59.46313641555382,-34.204429853271826,-12.718470841798396,-0.6720350492544188,6.884494272177969,17.12463004011801,28.710951657858,32.98291573860938,28.924983862629887,26.736059239161506,31.042433134953022,33.76224635198529,29.87165526744858,24.082478297020298,20.080677430546363,15.449319016471286,8.860192638819315,3.177726613536133,0.28137868057337495,-2.5600104030756254,-9.845751621757216,-21.67003225884987,-31.782106475070687,-36.52413259871794,-42.411707583958716,-52.30943744317097,-53.54970847127241,-35.231970167976904,-8.336524299761333,9.64436777834242,16.486936131386443,18.245887685143575,20.768126109295338,25.935967180880642,30.338688519568386,32.27180808070828,70.0,122.0,82.0
