17.227231707493516,-181.64639185620757,-218.76602961871356,-164.85786754307424,-134.40074376007914,-132.30525078634568,-122.89402754338712,-104.1786200441345,-88.61076932415521,-78.98325110097889,-72.76954952672449,-68.72338212799285,-65.33776589098731,-63.268714662804825,-65.81572991932974,-71.15405591584206,-72.96584872721104,-69.9954926562468,-68.18674270101177,-71.28530457308759,-72.32295260664421,-58.42715220927083,-27.281700021843424,6.928918240883412,30.172458264835793,42.53054601008868,52.006582248242,60.647622362611415,64.97766193951676,66.03540173229436,67.05049138490898,68.54690278363509,71.60403914104683,74.00698523323769,68.49514064672603,55.839433962557656,45.51810910288898,39.243309761082095,30.5996949618776,17.187414973431544,1.861826334572936,-12.551583136049658,-25.65478012251242,-38.40908591305545,-50.06667133458407,-52.84548492381878,-38.33428496549324,-11.69873088307726,11.518601175521919,23.040760436323435,27.920120367171606,34.280536885961325,39.2479858990682,36.59145412172895,32.035378434874524,31.068465044386688,30.164194512398574,26.908513045910933,23.20472519344163,18.48804436385909,11.046480676108342,2.368208520296235,-4.8384825306177675,-10.191794462917326,-17.974128382052236,-31.958841177810378,-48.059352707705585,-58.827530075682205,-64.12157149749332,-71.92933649326486,-86.54734341610248,-97.46364720763958,-89.05170165343024,-61.89513767727567,-30.594728629059407,-4.7760075767162276,15.043044019013267,29.753615173539636,39.02874456608953,43.20240488241695,44.1934479157385,43.76098182937499,43.227894175308535,44.447292510512774,47.36375738902696,48.05259652568856,43.01033235091078,33.73413254748497,25.382174841280058,19.213528043554163,13.243056588404466,8.664263323759362,2.8127403703584286,-8.452099031323305,-20.554284101339714,-27.98889704495821,-34.66782745258124,-47.61199509799231,-63.353083217971175,-67.7778610731247,-52.620189929759675,-24.547069461877793,2.416531386260254,19.808104857244384,30.200118986575227,37.11764948854717,38.6517080970275,35.12647586141218,31.81859444443188,31.66799925649517,33.0952301813237,35.13003538719874,34.35632663379538,27.115826139599264,18.590534438947863,13.963123511222442,9.97877988130282,1.2106660472379103,-10.19650780347447,-18.92357181874999,-26.06915208659129,-34.529126546919535,-43.563721873498274,-52.054516932817876,-59.935760505978436,-67.12895442121338,-71.2540976020541,-63.83187954810033,-40.37930609237415,-11.78388540415766,7.835566277581841,18.715031153677096,28.218058572065058,35.837337777869415,38.66301210556434,40.51696033147652,44.04612042179365,45.45555373126381,44.136619481421036,42.43309048356187,39.88607738866735,34.09207101524732,24.946390624565634,15.019017696827229,6.626427212006747,-1.528236721252841,-12.143053877461838,-24.14087624604742,-33.01600053512442,-39.38338536192938,-49.417769212827835,-62.607415704021946,-69.26230353804738,-59.81930007677107,-35.5922582069717,-8.318996407834673,11.773909219628985,24.187516087344186,31.455013738451672,33.07039988296409,30.84991636158093,29.618324986516093,30.023117468505532,30.87709250625436,33.144704720674014,33.210392653100165,27.619835057435818,19.950626002639396,12.919636584267185,5.603293780625479,-2.162586949085761,-10.796031247249372,-20.581393379706952,-30.329976332319912,-39.43839481926498,-48.07646722057909,-57.04020298358976,-66.6013325945217,-71.25782323237874,-58.41776306244965,-27.215879176195468,6.090552120267093,26.809743590569706,36.08970539794067,45.72106892832033,58.3395141350415,65.64946264460129,67.42158175317383,70.93139840519349,73.15518486823841,65.46083638518562,48.8347655136505,31.78118597209518,17.65191296162804,3.3886490012231065,-11.271045720779721,-23.635191633956488,-32.416137097652914,-38.53034243499268,-44.6882677977483,-51.20831228942151,-56.28532476535614,-63.641821219354455,-77.49651284236563,-90.39214680774019,-87.52167697874401,-61.41083808129703,-23.936925439706073,5.247435384143796,19.549519531709425,27.518647347094216,37.88465077828645,46.57138305370414,47.37795353432488,44.66176121828062,44.73593516048199,46.55510104010528,46.44899657427978,42.34225874415102,34.85226539040074,27.761474935047193,21.895642061635147,13.501352110786794,2.5302243654289214,-6.27000070596177,-11.148971106280626,-17.211636066213718,-27.207893803000324,-36.080636547094436,-43.50044602807675,-57.990785986956155,-74.67260880659495,-74.38132448402968,-50.84813731370885,-17.877633396700904,8.591106503173924,23.613387720153693,31.775068652960897,38.96326071259749,44.907654443276954,46.19573459306157,43.175489324704024,42.33154071496,45.7970281910534,45.71866592816541,38.65899113508742,30.574820700399307,23.963914621121088,15.83640062296338,5.694548751250111,71.0,123.0,87.0
-6.471788086143204,-11.923762249132114,-21.39443856549692,-36.75542684611645,-51.934482381591096,-60.650038858610294,-65.72657402654437,-75.60973794570175,-90.88367046478916,-97.41674915326985,-82.58072646451488,-52.63056761839323,-22.444033162033776,1.5028448790538522,19.816631088061126,33.01312983653684,40.69150386523116,43.72146218575843,44.15949856377924,43.54273245751816,43.32958700751128,45.228062306858405,48.01353878330186,47.226982969756286,40.55838873178247,31.029145681235075,23.4944440611824,17.45773608255839,11.745576861294989,7.387542932332182,0.08774760224997129,-12.228281778350155,-23.19974625376751,-29.620834736262385,-37.62568248212133,-52.40906266082452,-66.4210565772997,-65.38208018577565,-45.24289799068574,-16.0584746777698,8.482783849856832,23.26781619152758,32.573218142148065,38.22290358731905,37.965911816831884,33.90719320597148,31.480203200472353,31.991092414929994,33.66738136423125,35.46613270841255,32.8672373743905,24.418590468947517,16.8453667714746,13.047851315129199,8.026758639185013,-2.111030196877432,-13.083842547399557,-20.963219010333184,-28.3587303215553,-37.153549211094614,-46.0860578279887,-54.39250606927682,-62.1015610759609,-68.89980182013593,-70.73865834793614,-58.50282892354599,-31.880311816934917,-4.874216037286643,11.50101329763868,21.439525281534824,30.823850529213694,37.10390277852451,39.032765485510176,41.47820027774466,44.82196072075633,45.24380905630626,43.623971338104454,41.89887049177327,38.61254425788416,31.717577239273112,22.013110611111863,12.414283884646634,4.38964398763868,-4.286481190095762,-15.65331681957648,-27.178302538516785,-34.8487878439767,-41.71279671348858,-53.21342103383581,-65.73373473075816,-68.39535275965555,-53.93898296983688,-27.422253948043927,-1.5737935208030007,15.98829699770586,26.803510640491815,32.522649352503514,32.60917312248658,30.23891541384906,29.673531162572207,30.174708652491624,31.421549478286813,33.665050060118,32.11954431579791,25.396387510310493,17.871673459216858,10.86948579191155,3.399040815494909,-4.5263517916150855,-13.541589121771883,-23.453684039864658,-33.02851047875097,-41.95912001328463,-50.58919279754711,-59.80073300039357,-68.96907281694145,-69.79745521555796,-50.76772473193785,-16.95300223739773,13.669154335998744,30.184873493352402,38.398697806084485,49.36776603742637,61.29827019748874,66.37981838365623,68.10767330875034,72.1524144745463,72.15268855469402,61.23138693091673,43.619281081608406,27.48989857695428,13.667685570372702,-0.923321795147922,-15.176755522865639,-26.546402709535553,-34.3485722913775,-40.20242557096504,-46.63868408678643,-52.80723044176679,-57.85745916144905,-67.05502254347417,-81.93674666664914,-91.80949800850212,-82.21712619281502,-50.81218983984178,-14.007834224631166,10.735060734517237,21.943412988545948,30.200361154412732,40.982285632430234,47.62291688576186,46.572386700641495,44.307460355101945,45.26021680267226,46.85039118882121,45.712446536701755,40.39762234323573,32.594134774883585,26.085188212675614,19.861898192636584,10.428399774327808,-0.44980675698993683,-7.951411026991679,-12.498338666517993,-19.821083812186433,-30.14370388082515,-38.03413457154503,-46.716819582537475,-63.38859377320897,-77.05154124151781,-69.63572781403624,-41.44160908296632,-9.112299863299,14.035634975363138,26.345113129244133,33.83434724109899,40.961320843358074,45.871161012947574,45.55765460110352,42.39526687756029,43.124112361495726,46.52218053987576,44.2191402974516,36.15354758993652,28.613366980163647,21.888369870837973,13.026481910729112,2.654042790139412,-8.261719380010874,-20.605208255929043,-33.46556710728062,-44.14413586816129,-51.6876346253783,-59.44669777390015,-71.38831839424883,-83.39503453633876,-80.36818378448174,-53.996471264016776,-18.71875963982672,7.634511283777794,22.721907371242303,32.36694513059853,38.55860462730697,38.01998521127866,33.62171725281401,33.21321496337247,36.481042135518535,38.98222206010531,41.11963875047603,40.30785928798968,30.899026978113653,16.66946078299282,7.826999082439865,4.8532398339378995,-0.8243743305840963,-12.485254321480555,-26.468578036796917,-38.920699716680986,-50.09754582952793,-62.408190894872575,-70.05994383386961,-59.27143148231485,-29.499958843789965,0.7230920195285094,18.725618597828948,28.98901415019611,37.596505881469895,43.569023413063746,44.065232314029345,41.70170572344587,40.64311501610028,41.10060084028088,40.18567902905345,36.0243544012641,29.369895315521955,21.865940979411373,14.673976122163012,7.685554812952949,-1.554625204331841,-14.69776789932363,-28.806539841531226,-40.98988687373454,-51.70419635284434,-63.44098580916707,-77.98073489016251,-89.18644399048951,-82.15563429368305,-54.16795715405914,-22.154267323089513,0.39692810858349176,71.0,123.0,87.0
-64.21120768956374,-70.31301396655222,-68.98025312396223,-51.85597408564441,-23.371933110598196,1.0172276841582677,14.625528283930196,24.19556832563397,33.155999362233196,37.9466869081667,39.489450622380595,42.55469398875146,45.303016650103736,44.85729476400664,43.13296970233577,41.23742374040381,37.01560193580369,29.09195095865713,19.09823754350469,9.972759626401585,2.096546836713737,-7.304486104233679,-19.19619246118496,-29.831938293198416,-36.59033461352601,-44.50435016423131,-57.14645347368801,-68.01482831551134,-66.00501104961774,-46.99513778017167,-19.349423339333658,4.404718253662339,19.649095177820517,29.017670334161895,33.085229999866314,31.929343333382963,29.82931932103016,29.80606261015103,30.373690077304758,32.104945224218184,33.83737788279683,30.544278009645023,23.14096926405878,15.852737832550327,8.764782560395323,1.1684788554719638,-6.988672104630477,-16.373027649981506,-26.286597311128297,-35.67186699889452,-44.44882852435745,-53.155048063917825,-62.61179209985592,-70.69041314237566,-66.53766531288505,-41.788590359156814,-7.012292874146511,19.94278288719369,32.82276416116867,41.04949564644035,53.147932345032245,63.57781909623225,66.80961929920798,69.1006460913131,73.0333617135622,70.14773562299679,56.41280993616445,38.59293050056716,23.422267829382772,9.575140943912123,-5.212387734541533,-18.826591368081445,-29.146040733495024,-36.10669974434552,-41.95334020822948,-48.57381493912112,-54.251880752468914,-59.80085567685502,-71.04138669273715,-85.98751325106193,-91.51946183532513,-74.94267915567758,-39.75862151123625,-5.209734682905358,15.003604480392225,24.130450903444164,33.200174262251565,43.702321340472515,47.944676977357865,45.690231064566994,44.279873284394355,45.83393580443083,46.90645080253605,44.60785972102362,38.21987260239159,30.488420075471883,24.454596408102805,17.514361677766082,7.20911734759568,-3.106954537419157,-9.337368437876034,-14.126371161849331,-22.73719028992502,-32.800660155525975,-39.99806187075233,-50.764674864696765,-68.59151217524506,-77.52269242682425,-63.03242482455303,-31.728240880657275,-1.1970076352412435,18.52130343526549,28.688105340343775,35.91571070059506,42.78059737686003,46.360167307226234,44.63694317657205,42.00618426565783,44.20481652825721,46.69572128764408,42.184787320982444,33.75209796627589,26.743934175542442,19.596940479205752,10.091687044337009,-0.4126304077505905,-11.661457201905874,-24.381557432404335,-36.88198780304405,-46.58231926937538,-53.67328342853689,-62.420344353179956,-75.36652072175825,-84.80922715315839,-74.90249077932434,-43.71766326697357,-9.782973186578912,12.923430599785627,25.83292692006503,34.62959317815539,39.179677830804714,36.75928243260808,32.898007564753,34.02503532850021,37.34534800927278,39.596710177880794,41.49371850092953,38.555442423764795,26.81442838789645,13.247946804813575,6.7090733580384105,3.8159775600403014,-3.663727645269961,-16.508762853517865,-30.30632310021627,-42.15091801119545,-53.53791262751724,-65.69511538426364,-69.30836485049002,-52.01816930554658,-19.892868520968,7.211937412230595,22.103654637429415,31.558714311668382,39.77431697486415,44.27434645424292,43.44921206725175,41.162504735691456,40.72055008983651,41.114442007437155,39.320780774034695,34.28791686510123,27.219074515341816,19.73021211016333,12.69412677918569,5.394456673284984,-5.00504517287214,-18.86347606029837,-32.56140746918939,-44.14882920000789,-54.85990019176094,-67.3918018752779,-82.16273065180236,-89.60227038536893,-75.70425259547736,-44.45142047179637,-14.485358008574442,5.047898197129583,17.78539643892997,29.755987295984752,41.6403731160817,48.24652497774631,45.59438195735233,40.031128257591554,41.325176748692044,48.17588630818445,51.286054548031785,46.27950424958065,36.513179946715795,25.389113804083195,14.622732028499101,4.367555733571212,-6.699948730002956,-16.580453180169577,-24.66733261110451,-34.619794258903205,-46.8636396184784,-60.35764458644252,-76.2415596460012,-86.3809402082309,-76.48241085787403,-47.89215703831141,-15.906984996333694,7.3473354401342705,22.049609090129028,35.26217942858669,48.411952455318605,55.0323656127356,53.950861066614685,52.66496742085277,54.25459090963015,52.60695050435432,43.06891385726866,31.64009089087372,24.348425081287772,18.556919533238936,12.106121036261529,6.447739314566277,-2.961069906933955,-18.23877934216644,-29.944324762835954,-37.31351056443678,-49.612984873602805,-65.58575880821721,-77.13729433031905,-76.83514349796856,-59.64551712539714,-31.593985902761027,-6.48265228257963,9.680950229852145,21.940476530114893,33.876926513010545,41.521022680148995,41.42677480733887,38.26989002615541,37.743942107213655,38.55180380925503,36.59467914287855,31.63604998697803,24.761221952011937,71.0,123.0,87.0
67.19558061608407,70.33175098988721,73.30177184653148,67.15034376028997,51.256373884928834,33.85755859086742,19.468436467153577,5.3624938638840085,-9.397344956874598,-22.18797358407081,-31.4472587184312,-37.77137041629542,-43.804855031319036,-50.41197682603463,-55.630952791295186,-62.2848047828394,-75.41910660883164,-89.25797440577534,-89.26371842590768,-65.98889089152206,-28.808763879716018,2.2656298420720504,18.286327105244325,26.39301720938481,36.39888998934289,45.83038461600989,47.660465550648134,44.93018578630293,44.54071519680244,46.35617850419863,46.66917968334573,43.136966504884455,35.919559146895196,28.57897192813167,22.7447352814223,14.837463791090975,3.9808271362740593,-5.367161282663208,-10.577222724098494,-16.141033225163767,-25.79953460233485,-35.11680455183889,-42.26812828253336,-55.58010467889066,-73.03369668781355,-75.87153069559456,-54.94804059964563,-22.147244468719638,5.738718422008403,22.16897079241414,30.82177241545151,38.00884591863794,44.31942009529521,46.35572524024768,43.61899650717964,42.11227802937228,45.33411494845553,46.18982837409286,39.810166573798696,31.532791155475387,24.86361430305194,17.072770954129055,7.089757122447697,-3.5320991086378073,-15.206593471379694,-28.145612225011064,-40.04699453197885,-48.76749193567575,-55.8063887377705,-65.81543421976355,-79.1321245586811,-84.5039803794356,-67.4879745943298,-33.262262137184706,-1.9046656873591392,17.37194187741957,28.64818205127918,36.568986364047525,39.14009360032269,35.369218017368354,32.67481548423466,35.01884431829219,38.07127729636692,40.23913249042826,41.466023854007325,35.97500829702109,22.557495034848202,10.51934541118337,5.929779126426184,2.330096844157114,-6.98633149446621,-20.597566820577494,-33.94789499125039,-45.33376056731906,-57.12963807708557,-68.30781019027867,-66.66505650836679,-43.40920238082761,-10.820126444661552,12.574063198207881,25.06227328166099,34.07737285260951,41.634710908766806,44.48526687183023,42.72055039929999,40.81032958898439,40.88239094702578,40.928291155661974,38.169749035762834,32.379484525486134,25.039507389106333,17.638841441134147,10.714960993956144,2.82549035239035,-8.780375757797094,-22.996328591756313,-36.11904576248951,-47.22514754550324,-58.17433299880449,-71.60375857928149,-85.78923617933397,-88.08818247984418,-67.68550573221191,-34.93426892977397,-7.777123943325755,9.118424555218455,21.15519772427903,33.34806414568116,44.38867490664064,48.37872442733112,43.75816346427233,39.494996574867514,43.10259951406085,49.84321208261033,50.60659986489082,43.746857683815655,33.34992165847997,22.181635445712647,11.681210529219712,1.2416120475867796,-9.817100711879327,-18.961200085367665,-27.22582468172642,-38.01859927151096,-50.57603841356714,-64.76573651836222,-80.48131615521295,-85.93236926695927,-69.58071545209876,-38.27078540125657,-8.058080327830197,12.182840255459535,25.757574889675944,39.28240309698907,51.27604596823544,55.248526565951636,53.274254025624224,52.96391797035336,54.48710348382939,50.579502168633525,39.54255065807455,29.092872184342976,22.73481219255964,16.684655181824887,10.431129490482462,4.447867757584537,-7.072127741994388,-22.382237998093238,-32.09301702949457,-40.132945086893685,-54.20756695981548,-69.7075780855487,-78.5997154704196,-73.60544244433238,-52.06491788786573,-23.50532647448355,-0.9911131714706015,13.324557904958551,25.47883527445461,36.80258285448366,42.22661218816113,40.49016728742421,37.7604116579638,38.05235135800804,38.36605533922567,35.40288998471784,29.817701868696588,22.54510095584,14.377986944057433,4.631554112866622,-6.451473072834081,-16.0694508337021,-22.881100754634183,-29.088458375615392,-36.03897397747847,-45.52468093026782,-61.78263961080453,-79.24189880478009,-78.40879086314,-51.35981316837516,-14.92995916335444,11.626951075946232,26.224660293535212,36.14704065966042,43.33443035718802,45.290863992802144,43.673070789693405,43.381786688340085,45.30770558378852,46.7490164364921,46.41107459320431,44.587481995650805,41.007009540482564,33.51808651975787,20.00029814930893,2.552662653200267,-12.68012243887675,-20.835069623533403,-26.277503174314347,-39.18569626703273,-60.49968486684918,-79.01442826668337,-82.56216751892967,-65.80997343033265,-35.052032056127295,-5.837720365413562,10.790704517174659,17.803578990717526,22.48252815302749,27.247286987983774,31.28408464114616,32.79721038287575,33.108740139435746,34.4172060719385,34.698722948153275,30.548333357073084,21.683070056384313,12.37264539820146,7.2300025971379105,2.827566214176034,-7.423790702824539,-21.91388980205218,-34.03224067532027,-43.281154709614455,-54.644997661372486,-67.62375098920357,-71.28554463939119,-53.6431794961324,-19.464600961996798,9.795412623725447,71.0,123.0,87.0
4.058194920213684,-6.741636870553062,-18.879760613920972,-31.821319067386394,-42.92136383658247,-50.78358068832176,-58.21488880714429,-69.57287102168027,-82.27917366290151,-82.17031707330958,-58.51506160089864,-23.14994825975472,4.8697106774091035,21.154356936579415,31.241477228378592,38.058755457222944,38.48906855977882,34.10258316517006,32.94503532727847,36.0374998245493,38.703226492773595,40.86607167017083,40.84173588245366,32.642533877716254,18.439912831410936,8.52178116237355,5.224635906264496,0.3016213621112764,-10.686656778235607,-24.642688868353055,-37.391171264835144,-48.566326623408195,-60.76977865679891,-69.83395400258314,-62.04440233830709,-33.97002150062648,-2.6638667068772324,16.966758286408673,27.78064116723143,36.517660738555826,43.07104867416038,44.2741166407253,42.001789629521,40.654597328673674,41.047531041392524,40.48559918712134,36.75579245345269,30.34133710813683,22.862393976654424,15.598257015481284,8.671984842785005,-0.08690609208326355,-12.795767146639559,-27.011203982864117,-39.490470225016026,-50.28216435810158,-61.71652095595741,-75.96992176615471,-88.42694606334484,-84.49962632383763,-58.58123208931726,-26.001682566686863,-1.9895191942712023,12.78810657338471,24.586473318816385,36.8791683090704,46.522251358595796,47.70109673611866,41.96266868756806,39.71608150566859,45.17356340209343,50.946702496475424,49.249819879634224,40.93796910198186,30.127092228915952,19.044958820718538,8.75180807901775,-1.9748790737519148,-12.738720068622289,-21.24549286858034,-30.03892358549016,-41.55608609485098,-54.401840399799326,-69.41010158792814,-83.8708449858621,-83.50954130785998,-61.37053775471396,-28.797643444238787,-1.1324008653494018,16.437713883650893,29.527134417569133,43.22236562141806,53.39364896507765,54.92232407097962,52.79873681451562,53.478658874324054,54.221462618539846,47.87292657058601,36.107350949676466,26.950918299233173,21.10879244675598,14.777934238059318,8.852768608869424,1.9212754758570727,-11.583063136748763,-25.928018547489174,-34.07061661115038,-43.573792418151356,-58.9256528779338,-73.27467967641608,-78.88344462859159,-68.89485881315383,-43.86953520522157,-16.01097733421971,3.7527039967613476,16.83134251383671,29.00154065273943,39.20446541703593,42.27066913035765,39.490428375920246,37.56180449221169,38.36166540685368,37.86839017954743,34.0015917908175,27.85083265716322,20.273363763672386,11.771160067848792,1.473414448312781,-9.516699774336452,-18.269691434954158,-24.624927378394833,-31.010162606932973,-38.32764862809836,-49.434351044931205,-67.43633896733564,-81.72048463363828,-72.9192696788719,-40.71934080946159,-5.798975723335088,16.76715302535868,29.319136697772283,38.616440495586886,44.4886854665683,44.967283857006166,43.29550686079609,43.81426147440184,45.88151302111589,46.82999657192731,46.02449680287514,43.78505648032494,39.38523927249636,30.236869556654902,15.143727184747581,-2.3892713617682344,-15.791731341049047,-22.222764186652597,-28.9130337059251,-44.82311079790264,-66.7549560153021,-81.98133574353521,-79.78250143286944,-57.761290100715364,-25.736467381340354,0.38061177727160356,13.421944155287324,19.198301283232976,23.841468092032272,28.581325929431586,32.00565702225377,32.865410376662005,33.38461704241381,34.78454586506259,34.04321712098987,28.37269175861624,18.75441441973895,10.42514025676293,6.235942240116996,0.5989233582796487,-11.482705514471332,-25.85778583827088,-36.80011188508468,-46.170434400253455,-58.54020972093506,-70.29432334401405,-68.62195744452046,-44.64919952489737,-9.57962229602535,15.128274128221381,24.468239555475407,29.167712329710824,35.964669513134254,41.67757412348788,42.497498298979906,40.65280109148074,39.85878494529525,39.09513009662739,36.16050676209189,30.775561661450137,24.26785027609904,17.085101925444917,9.183356921339877,0.04835697427201016,-13.168035886395025,-29.68267360038971,-43.00838390384327,-51.943133208357075,-63.464532080137346,-76.21101095232862,-74.60403542270247,-50.22729623623746,-15.97804577787359,9.746722099762136,22.91956575309031,30.918267205640994,37.60879124611348,41.05929034087588,43.13640831818579,46.29961504107508,48.79940615679087,49.520332934463376,45.81993414901061,35.50312372252845,22.93778088206215,12.444267207297518,1.8235420568365055,-10.071838819991715,-20.86518616858299,-30.679184935245313,-43.16258842090302,-59.07482312989808,-76.45814754523188,-90.21005188879991,-88.43501000210301,-64.65071529584365,-30.622992913597795,-2.867068144953906,14.701228313450896,28.80070717560982,42.0760430595165,50.84723440139201,52.57264442369586,50.76208348904883,52.22971008390208,56.43559630039879,55.16797785828637,47.252906660536446,37.70229207948132,28.422237757731235,17.848965594357608,4.012918054057621,71.0,123.0,87.0
2.9862830503195705,16.23144322276867,28.107577329173914,40.21382353661976,47.89587734459847,46.366171574662765,40.51280572453066,40.66995557455455,47.27310310460457,51.35131117376003,47.324225869546964,37.940330174286416,26.88205384864707,15.998420005452305,5.772219970160056,-5.219677030138763,-15.421670016972772,-23.557898815083455,-33.118393287409134,-45.17533257337788,-58.41968479669145,-74.12397510828505,-85.96255452239475,-79.1229426390716,-52.26803524439555,-19.81223165789595,4.869373250083954,20.324104228781156,33.424779636737384,46.8806936150957,54.69792817233424,54.28394702258587,52.62980149036234,54.039612635654215,53.288523192720035,44.658255663408745,32.95942011028799,25.122301084041407,19.388935052229275,12.923373920618658,7.248257457853706,-1.2641381364230697,-16.18223013112001,-28.8133728461516,-36.200367668624295,-47.59849888848789,-63.545394487379156,-76.11859730732291,-77.81713819780165,-62.83291391242041,-35.44748969424214,-9.294461707712534,7.909348544220434,20.320524989153355,32.396491923805044,40.954325363685115,41.78259803553369,38.60327562349131,37.63883023924816,38.54234240754086,37.06170344545838,32.42084311926742,25.758825724943282,17.94384388337319,8.995341658409627,-1.7593231967057066,-12.37196178095541,-20.246109720214978,-26.394478016162388,-32.99094819106604,-40.91358926321876,-54.02617646334803,-72.868252860781,-82.11701676690544,-65.30992295168464,-29.908863977648792,2.1638287633950335,21.046561245136587,32.20590973306175,40.8118579186632,45.14581257323446,44.45536562351189,43.14490741613699,44.38845220477672,46.34292221776562,46.75880232672374,45.52507962686791,42.81960519689624,37.35688597592682,26.425089809652054,10.059896834524706,-6.965542547040216,-18.24044894415006,-23.613073228073937,-32.41587476862394,-51.033076862565444,-72.42669298399647,-83.44462416396709,-75.2584394129496,-48.82932755536429,-16.978049696213052,5.4009312957165845,15.459160229916542,20.534906885177666,25.223668265731458,29.809642786147013,32.47828745593076,32.914366087575665,33.77109664148479,34.96729787481896,32.95250913290052,25.83145319973468,15.946224167641281,8.897021747886699,5.11606480116208,-2.2458070302052313,-15.743560341959817,-29.45069862234208,-39.41364752307952,-49.37294822650894,-62.454934380580895,-71.82716090875653,-63.94116064562095,-34.63926867772501,-0.7006626139038323,19.05938471921793,25.78715591587825,30.924197244905958,37.97845395457476,42.43874717157196,42.01670707089714,40.2709021785438,39.75915014219046,38.524142591709115,34.8116232518379,28.955583905794988,22.278334548349356,14.857820413424507,6.771523628641132,-3.242883370013875,-17.839424415658357,-34.12592722881318,-45.797386036254764,-54.73243795188599,-67.55692626772361,-77.9608165189348,-69.70121399191056,-40.40302374075098,-7.146235473586349,14.599164672651025,25.421283795840154,33.04402322913351,38.97932589667539,41.60213507949086,43.97636025346026,47.1685776419772,49.240013652998606,49.08886017995856,43.45410460443803,31.79483061447091,19.7021436210638,9.533734808738165,-1.559881379923211,-13.40165711989792,-23.65483301754333,-33.88364365663251,-47.48061288967027,-64.05668815355524,-81.22097157932683,-91.87456599251684,-83.62852294580532,-55.03110829121023,-21.47174750801407,3.0301227736898553,18.843213853937552,32.82323145726075,45.270276428874624,52.04369539010362,52.10161567587,50.63465859578372,53.506789001436644,56.90409632537214,53.35533795150953,44.48312930914887,35.01930505672201,25.617459090496506,14.194230847640098,-0.389191559957129,-14.777625769701862,-26.710420133750066,-38.59680085909087,-52.02812781868375,-67.72770355119502,-85.42564056236951,-93.64742756464496,-78.3262129161695,-43.767297094974154,-9.468896254538622,11.455565760861298,23.573839712279913,36.35776777906178,48.97935339982787,53.53185286810182,49.588459384888786,44.508368204110546,41.60692160806188,39.37307261743828,35.78594008655535,30.421065732979148,25.35274580711475,19.799058429206543,11.21656774838833,-0.5379785921872207,-15.448841382552615,-31.93642221998375,-44.46802874588968,-52.497616212358245,-64.1000935855364,-80.44137452388406,-84.0196243895606,-60.81329935235292,-26.01695429188771,-2.1116738776687165,12.04215690173678,27.977070288657124,44.15538113620377,54.500451412352255,59.39335022475396,59.95571621826345,56.91171659926551,51.874803838074044,45.76120418471145,38.658461327766474,31.538146617128735,25.30478598407044,18.263460090068605,7.188752816332254,-8.53935627226819,-24.375019365647226,-35.63592525881756,-44.72631563556785,-58.27729034313537,-78.60482010673437,-94.67209943213359,-87.49887002656033,-57.31173555745561,-26.002867753518366,-7.013543400741824,5.9611367720122095,20.7254636564065,71.0,123.0,87.0
23.574585174493407,15.530027509771188,6.045310502522927,-4.98837004374852,-14.966405679695624,-22.06946212532819,-28.223123189987383,-35.049424525926334,-43.94086068576743,-59.23171960827758,-77.52155330844337,-80.14368055047774,-56.03703588809415,-19.48269857137735,8.908815444289838,24.694918363584076,34.93988133706702,42.63924058838858,45.337500852493726,43.903030621377034,43.250697659436796,45.02004336812493,46.65769871677124,46.54984732662851,44.91137997161693,41.64111851732484,34.84944931974168,22.125711427097848,4.905210966096422,-11.019671424984336,-20.116146062173456,-25.31121221456119,-36.84473077708629,-57.51452970337466,-77.19697242864002,-83.24408240033365,-69.12164515492364,-39.426137859223076,-9.104131542005046,9.312899686609365,17.117607332909948,21.864387991748746,26.613014850691712,30.86863157129124,32.73429006719946,33.02312877692747,34.215735089119434,34.864968506481546,31.409996820979117,23.02697790203396,13.41400150917382,7.706373323847258,3.6604224037903506,-5.675036424224442,-20.00258920330726,-32.666204051599,-42.03032651292,-52.913037626999234,-66.11403656680783,-71.86096464573313,-57.30135257618708,-24.22567928498116,6.828456702301953,21.830781869895084,27.046013512971335,32.900705929544976,39.75431232987496,42.74265378652416,41.43528551643383,40.03308975494623,39.59051261147757,37.73295054475372,33.27366674644921,27.082088695133056,20.221917180797018,12.582703317732351,4.219705325316423,-6.962511009565334,-22.688211579383623,-38.11369799945547,-48.30826535235509,-57.954129758361475,-71.53414273983938,-78.04422599716031,-62.88732437947047,-30.268227471321335,0.596366246814857,18.49056962774858,27.7144825309952,35.0572541238563,40.01851704755128,42.14956251085568,44.91101342060834,47.92321630829359,49.52409467807912,48.180684189598985,40.52859806460165,28.08093732771888,16.674253328616242,6.512941512222187,-5.025034394709471,-16.563983364744168,-26.425021652657648,-37.40714742921973,-52.050210986164075,-69.1175331253175,-85.49761985939463,-91.88021595330109,-76.98587657968721,-45.01572478243448,-13.18876032181686,8.153754619624333,22.894507482252077,36.7480902199161,47.96689084561673,52.63198027765319,51.490552481081934,50.950383463942856,54.86194098233123,56.70766379163817,51.080728795959345,41.70089451020077,32.35733939567349,22.642889086584393,10.232227674288646,-4.7642859865225144,-18.4294550166989,-30.01333113524454,-42.32247459156844,-56.24214365743719,-72.87540639496703,-89.5651388425784,-91.89485167660398,-69.57853137926631,-32.9385277343453,-1.9490280810495222,15.35585547949551,26.98208994951505,40.36486726940476,51.37908957601883,52.98379729858137,47.94047415972954,43.47986834236007,40.98439091252695,38.554165363361435,34.343130582825,28.86347864141217,23.93975205448552,17.676772150926677,8.126307079639064,-4.511444025653918,-20.25352804328392,-36.19115678393821,-46.98273643747955,-55.11324964559015,-68.78970025886092,-83.82190918853512,-79.95926407576347,-50.70930483947421,-17.521899018639882,2.368197912767972,16.2344917322389,32.99444047525558,47.82020664213314,56.39251255838478,59.98384806678236,59.386381581546146,55.59083848621535,50.21522305106635,43.79448356112578,36.532690826408114,29.663434277324512,23.49582486019573,15.59569642828572,3.012357109492773,-13.391490644630162,-28.14945573832847,-38.19840135582488,-47.926644743572396,-63.61761949490424,-84.5771977994221,-95.55865515242047,-80.3622043070071,-47.374873202708166,-19.248096558170978,-3.1668035958017,10.002588841250503,24.951313861525097,35.15209684614435,37.26472118928619,37.128837166262876,37.93873384503123,38.799017780450114,38.4325378601548,34.24996574892878,26.117067653084412,17.051052085478705,8.840099817917762,2.519308797850642,-2.393160785250525,-11.016867077679017,-22.86416216881794,-31.83566432689013,-40.181849166812825,-54.8502713504019,-73.9969811469367,-83.26057856109763,-69.30513217976743,-37.990583145191735,-7.981739785281495,11.657406632430984,26.11567644469675,40.85983582669817,54.83227147694596,63.65248593604693,65.4497454469554,66.71627083143487,71.89394796485793,76.30761905485807,76.3461534773068,72.78415119100544,67.72073418571863,63.37617345758348,58.335196131090065,42.5105379292909,4.302005569168405,-49.80268062836818,-92.51047369101764,-104.14748861581957,-96.17210360408194,-94.12007552985894,-104.05935536334499,-105.0731780682359,-82.05901844744803,-47.478313466233054,-18.774990342551416,0.6770322619075029,15.724293230070518,29.63917988505971,39.21741899193383,40.05162408149229,34.31693086714542,29.191890246781234,28.932592684413272,31.633537094724367,33.08271807760837,31.87596713942553,28.754545666643548,23.830814921200552,16.61502875932682,71.0,123.0,87.0
12.85401516924447,23.763870716184286,28.444445384216365,34.99636942789484,41.17006453402039,42.647804710094896,40.876632327693756,39.901596924382474,39.2908685078551,36.70976686051887,31.589020008607903,25.166331920069478,18.09142994108611,10.267483564429435,1.4366386611862905,-11.118369325622815,-27.518905516604477,-41.58049368858168,-50.76363731885621,-61.638515189266315,-74.95451594942334,-76.16908401525119,-54.498960290693404,-20.350174620401823,7.1355694326222,21.6462328967018,29.91824835975308,36.86740090566192,40.77676752535793,42.79379558351142,45.869989225988185,48.55195431710192,49.58941021050196,46.705478219949164,37.16028206078268,24.51019583601863,13.770482469331508,3.3393695330551267,-8.494209848885712,-19.544567865331263,-29.292544060620433,-41.27087938626022,-56.82053407029096,-74.16918558098563,-88.97454612233976,-89.98371986026687,-68.81685991995904,-35.07068271616699,-5.89468783908471,12.72089608815436,26.93615882973474,40.465795121322465,50.08209266626429,52.690215870026044,50.94086954115899,51.73223234669976,56.03022006040641,55.807907241603615,48.50250701242368,38.953145325257175,29.67777070884234,19.428150548661357,6.016241172670322,-8.99809517913287,-21.876435635551974,-33.403279164771114,-46.1730014928166,-60.69432612585985,-78.13659012812042,-92.47958664925645,-87.92076856246898,-59.56496795322183,-22.675274641832644,4.302241625493863,18.794176362394893,30.630995211853403,44.199061017954385,52.907799522921074,51.84630177586508,46.39886678349998,42.63006634322361,40.36795231067446,37.57003920300125,32.776430014935045,27.391752466530175,22.410653327898117,15.259495557000033,4.788607739916498,-8.764852954016167,-25.105884417317203,-39.95116440535278,-49.22089957306051,-58.2817003699832,-73.7382456090217,-85.52148080385514,-73.543509255091,-40.31916905062328,-10.34675951000506,6.34864923678154,20.793424042285363,37.82878585132129,50.91624647519814,57.88352995321378,60.22112483439042,58.54251480790973,54.14931595646691,48.47100154054644,41.74647663252554,34.44622388673662,27.869001948193194,21.54757119549423,12.510025427018693,-1.5214843082163811,-18.089451311794782,-31.470208953846974,-40.72269615189399,-51.66409733172218,-69.513922665512,-89.74272145598323,-94.05844629522564,-71.62802684686585,-37.977736894102904,-13.625456952847854,0.4823456886644373,14.288189688427751,28.751183662576576,36.424611930078186,37.177472479704996,37.290958084609976,38.218343493402834,38.92227765784821,37.70952142319818,32.1960395623789,23.46343198081696,14.5648360575382,6.751273430085032,1.1355814675816736,-4.308790274125831,-14.406441716714939,-25.875792372913438,-33.96321195742626,-43.59679963607258,-60.36422807346259,-78.49275073496362,-81.79598479608296,-61.254161728331226,-28.455780161908805,-1.2901969261175807,15.999106511993135,30.29345826952034,45.1332455737153,58.12477031273802,64.74694365343018,65.4858957839812,67.90337894127244,73.51689101543386,76.78473361150658,75.60351022384837,71.36973968191059,66.32608286913023,62.262471063757275,55.504986517625596,33.98775642521791,-10.663738409762033,-64.6503604770704,-99.16620291246842,-102.68052033886853,-94.10265701550814,-96.3336891194171,-106.42188316726204,-100.79427401998521,-72.28915789133643,-38.16106543386598,-12.358254108324143,5.2291394869080685,19.88519130541134,33.110961287339144,40.4167153448901,38.78259774226209,32.46898164223185,28.59596878960697,29.60697746793604,32.31938136090585,32.97933171758008,31.14555229652989,27.539276628871175,21.984780079970765,14.176024821522162,5.266618852062983,-4.8650806903596715,-18.33050371238701,-31.526245171780225,-39.551742653071756,-48.426500747362425,-65.96969331128864,-82.64295761049111,-77.59645218296143,-48.19896446415016,-12.79563223117202,12.296240112693567,26.334159623016166,36.651999816551864,46.44351092528922,50.36686728694954,45.44863841131717,39.526860481421956,39.45222782745773,41.1832083920445,39.17507780704253,36.98250848599595,38.2649405065326,38.384628994629914,32.03866174545629,19.713553921255894,6.301510203354696,-3.5088115336180397,-10.487275780739953,-20.27814971856751,-35.208118378415215,-51.594550367467015,-67.41810088274346,-80.7087284114124,-81.37321497332825,-61.414057762201196,-31.3332159226806,-8.50223148217106,4.739457634551804,16.59159770910527,28.437401188523896,35.49223965789673,38.13402476408636,38.04896100210175,35.64624414925253,35.842738322276396,38.19211491055108,35.51237101544898,28.224915631484524,21.97714714176703,16.417446299904846,6.6022935757444525,-7.116883696717853,-19.017007341151878,-25.859635734871738,-30.964056214108062,-39.66364245836139,-53.46742373547351,-67.23601258440644,-69.74717449575421,-52.32699127277433,-21.29386656431521,71.0,123.0,87.0
1.6446877585112205,-13.01166889106851,-25.19648566867534,-36.92497633190405,-50.14749173367987,-65.43858807243211,-83.23448967278973,-93.73043988932503,-81.80358960867211,-48.816289541640614,-13.365999253382137,9.417088222028994,22.05943482632437,34.514761960655015,47.61271138297227,53.53271818377543,50.34256785636002,45.05367120685337,41.90961932268218,39.707101905239554,36.39364005465644,31.160873779655095,25.99028350702874,20.68154630009897,12.554991896515045,1.2023888841838761,-13.286527927935351,-29.841447865122838,-43.163542459416036,-51.42216476763082,-62.113470113334834,-78.48206672154046,-85.05236404000422,-65.17039051798427,-30.330683573378444,-4.455259921530227,10.212901733395032,25.666916332139802,42.27568332156521,53.48096892941628,59.0005899373603,60.11521789920148,57.46981951040113,52.6121563908831,46.637501409006106,39.63991598137248,32.43447720874398,26.115613516186837,19.36954509144476,8.97225710868753,-6.296974140842668,-22.483292042828243,-34.39254279717611,-43.39485026536292,-56.03538093127722,-75.73023358110889,-93.5341266558753,-90.10525695740228,-61.92622548517902,-29.519832744660352,-8.93745973952566,4.186489377160327,18.70119342178227,31.915240522992377,37.065761757932364,37.089692532427904,37.5306041961886,38.48080575284465,38.89839548512182,36.59694567138171,29.857519127335063,20.81744024899611,12.161705871304802,4.866203906431282,-0.19570597616197757,-6.6905017407976395,-17.926147546038347,-28.515894607960817,-36.21715819456249,-47.68983698239726,-66.07679498730961,-81.70450912414643,-78.17555864391798,-52.135165720764334,-19.5036800565753,4.491545908479846,20.13126005501971,34.555856322023395,49.27013537064418,60.85327724296665,65.2806263876781,65.7185543944771,69.41740445169552,74.90376354357984,76.8695047148731,74.60340910686736,69.88518387736211,65.0478443575787,60.99313078679858,51.4310227438692,23.362972387109135,-26.53193067798007,-77.7440443339497,-102.99361077992583,-100.17982831766659,-93.13135382818481,-99.37748969050017,-107.33088071001468,-94.40690624767716,-62.099915311686495,-29.64565639492865,-6.656767034991553,9.564736222885772,23.975897675219713,36.07764043513936,40.812069077082626,37.100826896134265,30.862887099240908,28.449546972579117,30.42592456187918,32.80450892024398,32.66305378568111,30.27402798990504,26.16547533030431,19.934498302168727,11.653367448022951,2.571345336146808,-8.4079258999327,-22.507726582930648,-34.34198405620071,-41.53014819573792,-52.58747214426668,-71.83663385754667,-84.07319147668782,-71.02299441028376,-37.61766410946315,-4.165094899926799,17.199604061631277,29.390438344877396,39.64309636544318,48.50480284550386,49.67588821139649,43.3642062945371,38.88938448159474,40.13189206099484,41.000842931329466,38.25775904612166,37.06747723029869,38.73778505453798,37.307983709357664,28.93091088610244,15.685521666939803,2.9984162308316895,-5.608560155897313,-12.781334501001549,-24.16315635379185,-39.97680831503955,-56.20996351067944,-71.80409987565943,-82.78145365015331,-77.65374665712535,-52.87648370411869,-23.521308022372377,-4.022271863067485,8.016844772152432,20.232030446495177,31.088922473170854,36.56159403163283,38.42350652943885,37.441661602078604,35.22736216820717,36.62094401045362,38.13600921871959,33.610574271806094,26.160409721155926,20.520064000955806,14.16499237412593,2.8245419751661185,-10.999728439353621,-21.479696098276552,-27.252728803385608,-32.93573192897488,-43.21319417062584,-57.867200784484425,-69.6632338664285,-66.85150504905928,-44.00243341025531,-12.481713590703668,10.593718356759414,23.310450122283843,32.74284965414888,40.63167418060618,43.43262860361766,41.27847886423249,39.278962268577665,38.89612765018661,36.54957280839919,31.493299518583186,24.92862560702517,17.41613100094316,10.671167444957154,4.712308234145847,-3.918515068251061,-16.93207862211441,-29.273039891150994,-36.32896062234975,-42.033751234887255,-53.50455900648844,-68.96879405051313,-74.91216629805841,-59.874692969228704,-31.592835124145424,-6.005318119589255,12.481544424729538,25.556280574150865,33.05634636856363,35.26031836871915,34.85830793000912,33.73070919360436,33.09247855428121,36.39649672333683,42.08918515874221,41.12142370031045,32.08470335555841,23.513241209892872,17.936227215111966,10.866300618680286,0.9388901909676375,-9.294987213107209,-18.64465158727766,-28.413745894078936,-41.21452634798521,-57.119264644796964,-69.13935964144211,-66.65499576119504,-44.062269451012256,-12.18167820429295,9.756360605384902,19.586498407464198,29.3972500239841,40.3881152300292,42.52018095826303,35.47937770615841,30.08485868515581,30.49888412807999,33.11420899260556,32.69586821183591,24.436702844521125,11.967976929373217,3.3282574432036984,71.0,123.0,87.0
23.04138925304112,34.314046047781225,37.26488292021593,37.08993378361289,37.80757647930228,38.71110164558241,38.64740126677617,35.08013002498919,27.324492374312292,18.223342669380248,9.85888027287953,3.210110536708955,-1.6400325856850784,-9.554305047527219,-21.36101949637496,-30.836626451550057,-38.81527530180193,-52.45428348714583,-71.61881074218117,-83.22139636845752,-72.52075585561033,-42.47900340928453,-11.396235475298425,9.527398488996234,24.217552880484007,38.86970580325054,53.15847380114104,62.92708783965247,65.43884994585878,66.30539776349218,71.10626341202864,75.95314110482114,76.58839614472127,73.39613610104624,68.3935432989671,63.88585517909488,59.32390020403314,45.75386638262664,10.727860251928902,-42.57132472958202,-88.47544522168967,-104.2774907747982,-97.37640242342263,-93.49647611456946,-102.65914688638216,-106.29061794799279,-86.26598094212525,-51.995578565116915,-22.005476070113666,-1.5326355282424635,13.792691658691949,27.91125697048915,38.397073447648424,40.44804668733193,35.2059598460378,29.62044981039766,28.70363604094387,31.26831239271105,33.05149364209239,32.16223278808049,29.265864299491675,24.61261468380727,17.698763415762432,9.083644251726257,-0.2696209586443861,-12.277780806781971,-26.475578361479368,-36.67217462228761,-43.856427153054575,-57.592351514035784,-77.15336971893154,-83.19939836238538,-62.640381231955175,-27.103399001198955,3.3424286264180787,21.311717517005967,32.33553634037949,42.580691096405396,49.869170116112805,48.28088537386165,41.480825476580634,38.81199516359844,40.75536122106075,40.438741470704,37.509017641970296,37.45180783796165,38.92849034050713,35.60944619126986,25.39273748543249,11.716689625327326,0.08196853153984957,-7.560755739066077,-15.473780563895145,-28.454514463730217,-44.742141047239755,-60.79166395025838,-75.87695679500295,-83.45802511066108,-72.13562912814851,-43.96707039286464,-16.671776326854623,-0.200795714025073,11.394481478973871,23.77578954371692,33.230408094158996,37.35236438210717,38.47384929677452,36.68486471629758,35.18933021293685,37.434068443983314,37.48887726146249,31.456380505237785,24.309373347306458,19.018526821926645,11.43621457238077,-1.1829643482068017,-14.569721321643586,-23.502350667590452,-28.640746705757227,-35.325029288098776,-47.17510645926358,-62.066916701881446,-70.83246107468086,-62.1546200706022,-34.8984975302432,-4.511398738479821,15.026600374875326,26.13178852064051,35.309840081407266,42.094807086254384,43.128435453123224,40.478028816213886,39.129237367606656,38.55224292545833,35.2984827697774,29.72933395745835,22.80511147540092,15.308328748353949,8.97941207496776,2.671075028057761,-7.3301309751103485,-20.890336835117033,-31.853431771421697,-37.7520651020116,-44.58210881083481,-57.988821116516405,-72.40429770425087,-72.79511968685097,-52.26988753613697,-23.465507136651414,-0.016382210448212173,16.785305432139506,28.32931286880267,34.15038842607414,35.28014746041033,34.58365918223895,33.371978340346644,33.51348864309637,38.14537242735314,42.84258353554408,39.019031258378476,29.22764665978396,21.75866172414402,16.222630721033973,8.20557666090709,-2.0983537270513493,-12.063813415422349,-21.32384680068323,-31.68736587857937,-45.6681713162157,-61.444568087088406,-70.36248029994694,-62.08524551669472,-34.88725240066318,-4.247763191924447,13.348288538262567,22.00609712058584,32.857137137939304,42.26275873143739,41.00616406051384,33.333624133568655,29.706891714978678,31.232890254456247,33.57961166192942,31.17338700733861,20.851593661821813,8.899347916585626,1.6326131464582136,-5.110685934236416,-16.05754903437307,-26.789031793030908,-34.13020474614229,-42.567450857149964,-56.218613092831184,-73.82939684183305,-84.15883568151195,-70.62537031899794,-34.51914937393165,1.8786226637092738,24.079350256094298,36.522767435800496,44.97473877837073,47.570191880720614,43.958472950463324,39.5174828688806,38.68624050379677,41.4500260941368,44.003466667763405,41.521985703335915,33.68140868340061,24.701691608401017,15.083584021114781,1.7749159825892642,-12.404617480501676,-23.187059344518516,-33.77919228626588,-48.405830326030575,-64.9395004218286,-76.67353104495729,-73.8734521264495,-50.621782188142184,-16.109230404948278,11.407043736762557,25.797278847890542,35.16425364610402,43.63184123981479,44.997651789438265,39.21395617441283,35.54220339829422,36.41903025883726,36.53780602615461,33.519980986952795,27.664635781346107,17.808024602310912,5.693990658089084,-5.928476990996222,-17.878432808124458,-30.23514733069662,-39.750938519558616,-46.25905077579139,-54.93617885175121,-70.32374401033486,-84.02677872923601,-77.16677638000643,-45.996968792331636,-9.254306072561056,15.789354068988203,28.268733278119235,36.047335933891986,43.353441582694025,71.0,123.0,87.0
15.313590312929966,6.481280460915297,-3.3455356011754933,-16.392173690111164,-30.04795970887328,-38.67392517877354,-46.802372894059864,-63.244834956900945,-81.29314997974514,-79.90664228086877,-52.951007952526936,-17.119862461015966,9.71679282006927,24.84285709192931,35.280632527669304,45.310050887858715,50.40866264094195,46.4022929180049,40.0187143990005,39.18085020079236,41.13091933211253,39.60509329816802,37.06487160794928,38.00268304769224,38.67991202358704,33.29824673166933,21.549098983212392,7.943729832001087,-2.453644207945456,-9.527602347894375,-18.646642829052652,-33.035418256831626,-49.44828787683859,-65.34253724359868,-79.37631553744733,-82.45430254242055,-65.0773506574843,-35.20167455248636,-10.85361800810736,3.2237675394289784,14.9236512898767,27.055574401268014,34.879083090016614,37.93145925158211,38.24785316442209,35.93765215146634,35.55660157751721,38.04208820637997,36.255191633214274,29.230592561907628,22.674470481990337,17.313512701274323,8.22754811882379,-5.25991464441067,-17.721525735967365,-25.17339482678696,-30.17222775636225,-38.18344002662863,-51.441291353656425,-65.77708749467315,-70.47932265084245,-55.77005196931604,-25.544954383615426,2.4130858253230794,18.736487174563102,28.85225926219965,37.700525186483524,43.03093427435945,42.489467204384376,39.835154628582615,39.070637624613326,37.941855203246064,33.85814242234279,27.85689517218113,20.617632338354696,13.324300469930696,7.31021680980167,0.2963286866688764,-11.095383366849328,-24.600264154549546,-33.94306823035617,-39.25326549153214,-47.76291615477293,-62.63371868763344,-74.61694238706349,-68.766325780887,-43.976875185924214,-15.894336886997122,5.413930102176052,20.668520200583306,30.61212585661076,34.83456972798473,35.1656893544932,34.26296598289945,33.10161803684606,34.37276228766865,39.94443770815105,42.785972015435256,36.37128412292758,26.645732433939983,20.191995903726788,14.259936100601417,5.336598008519386,-5.0858275881906465,-14.76184046326031,-24.085258649480455,-35.29245509547891,-50.324066076261644,-65.21016533094664,-70.1004536705059,-55.79746748336488,-25.405914323498386,2.4202482506517096,16.140840946297683,24.74113237628998,36.242064490664546,43.12953255687408,38.90623618249233,31.614764384972066,29.786871889150127,32.041300484780486,33.64427069467588,28.90634431550428,17.128931685660422,6.313416060998717,-0.014095916702860992,-7.890845770141442,-19.478927725066725,-29.157427470426747,-36.19643883092504,-45.9057674583155,-61.1579922833352,-78.3591044726251,-83.17903033882756,-61.732854577435816,-22.984981940835528,9.809184420201282,28.274674145253606,39.3541510163532,46.46986196248122,46.9947673922424,42.483926468461526,38.826572235375444,39.22130588714975,42.44645922494959,43.94752947706549,39.648847111083114,31.042641086554053,22.143764369300023,11.648061681185197,-2.5144630797653464,-15.87398961811982,-25.989457926401958,-37.56530545053302,-53.21401097803924,-69.21474190330034,-77.80002555793027,-69.19465976387907,-40.98736306688858,-6.797238060468326,16.697448230703433,28.59610563094606,37.87288283377065,45.03802067170102,43.689727660665504,37.5967164450686,35.51177522861616,36.75841546482275,35.950802940651045,32.169089198470324,25.235042479668298,14.375360328393912,2.2530314956824973,-9.258649259592467,-21.532471850579007,-33.392076663899736,-41.798342486645886,-48.230428244451865,-58.7258273447814,-75.2636589115554,-84.84181295634586,-70.10748131477878,-34.92729092261322,-0.47278664023289474,20.379125195947424,30.66661632639783,38.22526019912283,45.101221024295924,48.04060105205711,46.25987997418694,43.227555773374306,40.80995899709125,39.34083816614848,37.644553889237656,32.60709158974042,24.438781648944484,17.015147302601143,10.416719430873721,2.5522823529712757,-6.673287063202383,-18.603605278386688,-34.69891025961383,-52.10545731381058,-67.96681970409301,-82.72936049527166,-87.1287861070671,-66.4383680761943,-26.085768757153026,9.612112588681006,26.028857950364753,31.165940182243304,37.03542897704875,42.84674862561327,43.47899953796973,40.305835680245025,39.64671981033487,43.39105912552425,44.56812760491832,38.41538997342751,29.26397459867725,22.70794062544682,18.414352716571972,11.480918968035361,-0.15564013423018253,-11.636942245290344,-20.925582388190133,-31.31448908341005,-42.65083715586113,-53.48656896331669,-66.7930732607469,-80.70448736114693,-86.06398306698802,-74.26803321666404,-45.27788298984507,-12.454241624571946,11.034444771201015,25.39621581575037,36.70629069045223,45.93185477004058,48.45403019527236,45.45750685714953,45.24897178444446,49.98178076454024,53.06011345283312,48.65512548932937,38.46920845594222,29.940619409939476,24.454293965962638,17.092130822646766,7.258172607296612,71.0,123.0,87.0
-16.458402921103808,8.248861212897474,21.943942776202086,31.526686264399466,39.79718984393391,43.42417645503889,41.67138990582907,39.40527790241755,38.98176527055173,37.049631941991784,32.26854892374286,25.876769824315016,18.41752232718623,11.479576045725725,5.568978239407274,-2.487545110385761,-15.075019606050956,-27.90994057553513,-35.63778963927832,-41.05147583141282,-51.56755287672839,-67.0898486022441,-75.23785158623929,-63.01437894555563,-35.47103792301819,-8.974366226495775,10.354421626516958,24.118268006516463,32.39749960340918,35.18626858049163,34.968655025433655,33.90326746033783,33.02743620913402,35.671511049345675,41.518114698539804,41.84361958122691,33.449118672191034,24.42020309837239,18.666105693400258,12.004710996039321,2.340130770778306,-7.9885953381096275,-17.420831886964756,-26.998305328731526,-39.263387347653456,-55.0087845487593,-68.14369642687338,-68.15412397538839,-48.03432674402316,-16.192649373527296,7.736106785073128,18.522482942266333,27.854817192182672,39.23082249697378,42.94052238775936,36.555433327226396,30.43754629230983,30.215535132327734,32.809383866100596,33.1494735925523,25.97100945833973,13.526884585284417,4.185399637819788,-1.8263023739843576,-11.052761974591172,-22.692569443570896,-31.25567232215835,-38.51163742555896,-49.74135727951758,-66.3443096312268,-81.87161374925768,-79.82445788788995,-51.277973018003934,-12.081105604223438,16.426500954006393,31.897252390994446,41.90787180148712,47.373171044018356,45.963910532034824,41.107109536591615,38.50148659277468,40.016870394567135,43.29925431967185,43.363160950502376,37.39199870793516,28.42933537081052,19.46354015688241,7.840756068722977,-6.717830035455497,-19.00798640065753,-28.936437850218887,-41.7389728638009,-58.07306714020054,-72.89218447342876,-77.44863031574046,-62.751486053207024,-30.82500149560938,1.49070124854586,20.943719286176552,31.252805645613922,40.47136394220874,45.63658759414731,41.945090158748016,36.39896924718333,35.793552171299694,36.87881220510406,35.116713762153836,30.567562019922274,22.442312489635313,10.844980060499783,-1.1042869070546266,-12.678191875432377,-25.170420170415422,-36.22396853761286,-43.644843966075115,-50.56014854946531,-63.13795390902884,-79.67361252725382,-83.45368026402843,-61.20822840422047,-23.995058928998766,7.054231642895585,24.05860188343266,32.88458332893929,40.38781260741008,46.499548662180835,47.89011304155011,45.36608362952982,42.44959123583968,40.28313700919546,39.006594150142256,36.63767978548887,30.404969809537633,22.09788449289254,15.145964739032195,8.301435696554329,0.03476153311686266,-9.729937601413543,-22.85881355755689,-39.80856387008319,-56.82104778697694,-72.44912759971392,-85.84011169769069,-84.03082048223717,-55.87015311994131,-14.214141954045392,16.341516543613753,27.977520594324282,32.57106022329148,39.00656117927728,43.65247458301453,42.707078589254934,39.5932830510841,40.46291056346365,44.376833785186854,43.493474932677756,35.75864100743793,26.99199651918051,21.403834297541117,16.917625954645462,8.469316333067367,-3.729969853830484,-14.430892097129039,-23.700672523881178,-34.62700823210669,-45.757228361743266,-56.95919995081529,-71.09272578124619,-83.57491709117411,-84.67182918999848,-67.28206967219131,-35.414098159135634,-4.4618130281931885,15.842033659906955,28.77893286898312,39.75490026783935,47.51307007443024,47.817381653220956,44.80029867446884,46.30247020026731,51.39748746193916,52.65185074941811,46.00675895779657,35.5593997276773,28.250717740723996,22.67392474769782,14.385804054432123,4.355169489167867,-5.679814810897767,-18.093810982790462,-34.18448986423738,-48.73289867053681,-55.853857588925884,-61.79020215810134,-76.93565702123391,-92.09656451633506,-85.31650362602025,-52.37538641224014,-12.381563281232014,14.87930988700341,27.521304998058927,35.66634775682923,45.8700810726658,55.30183552674755,57.91088658113824,53.31812252952172,47.5495795558977,44.534404588734304,42.716749949222304,40.20063854455064,36.30733331520766,29.29193246315747,19.067283549479676,7.621109887358991,-4.217508585523018,-14.610071943070501,-23.500405898060727,-34.6966042979597,-47.55117993997518,-58.8767433280072,-71.38815429394363,-82.11136241141605,-76.37978568103871,-49.15085398133298,-15.388490968791515,7.900749040206086,20.016570707036262,28.816493152639435,35.87513996580599,37.52188839800986,34.46140465988988,31.93670913187337,33.61936300102839,36.15550787197533,34.055468443180914,27.995712859062582,21.85668694663047,16.24723452591049,9.546470131833274,0.35614054853568156,-11.59095467577282,-23.409477048590862,-31.891736543053522,-39.308582192534324,-50.109978384680026,-62.157757152015876,-66.33891796181977,-56.333415594585034,-34.05770022207727,-5.832215504089508,71.0,123.0,87.0
2.3950026523205463,-3.976595277097952,-14.457196195054767,-25.580742433371103,-33.22263903575551,-41.188460291632005,-54.06932434732081,-71.53117889650603,-83.87255995719451,-74.05465547315431,-39.893078111506696,-2.2331979910617767,21.88792557989015,35.13070219901438,44.10825034036179,47.64920621127471,44.62932016738534,39.95116582232481,38.54640847787623,40.98042034716024,43.87032026588636,42.22586404144446,34.88422952330412,25.870512020238177,16.54107586868177,3.7335196678386824,-10.684592889516923,-21.897927807016575,-32.167416190128826,-46.24319750955182,-62.82966203934791,-75.72454861497091,-75.41515269625971,-54.74739443846774,-20.65882495518932,8.566825575160209,24.39504294792067,33.918193597567544,42.752225999322526,45.38246656471825,40.05533079414446,35.69918715527314,36.220885771917885,36.71416169610978,34.070278153212556,28.660545116689327,19.329917110930058,7.307839816924224,-4.408120522656668,-16.213373276072506,-28.685279419021853,-38.71315406722087,-45.42022969017887,-53.4120445988683,-68.00620578412158,-83.00494622565733,-79.69233076039943,-50.98884698444072,-13.689510595219934,13.310531128592233,27.054450870352888,35.04841050902136,42.45813714430374,47.46825076264272,47.38973434616091,44.46684147975484,41.732399191047584,39.84890563960992,38.59172239609888,35.269504989677245,28.012524976918936,19.917536687628427,13.28109116404762,6.051092225157518,-2.586315089552214,-13.076336166780338,-27.47312771346715,-44.901169992964775,-61.39515966665134,-76.85902901460234,-87.68106276359612,-78.53869189142841,-44.084044067731625,-3.4044180638715567,21.337395910183893,29.37351148114229,34.235924343819164,40.81903557997078,43.935397115840345,41.729752364148744,39.2682117761091,41.595118490773324,44.90940431782226,41.78499508246614,33.03290226450074,25.031852138105034,20.217499017114363,15.048354765686817,5.096663141039491,-7.127165160247003,-17.077982217632677,-26.663980756543552,-37.94297033571064,-48.829501461899106,-60.74823404811216,-75.28476584754591,-85.48215895691514,-81.6607004935572,-58.990957829622545,-25.675498978446043,2.5368226719905596,20.027778841512394,32.050152994434605,42.56712505661298,48.39687779775258,46.87173195412762,44.594472449274825,47.70396203329309,52.464466419560274,51.52550455731121,43.0093306964625,32.98987757951542,26.72592083350786,20.616728100887297,11.529159201636576,1.4908646347183336,-8.867389966550164,-22.46748303657265,-38.913902540437476,-51.57359574878719,-57.081488901241926,-65.1309078742749,-82.31066367832783,-93.12355372535532,-77.94107795620297,-40.449140114593575,-2.7250805764867625,19.660983972339167,29.878760150770926,38.36366285687962,48.97299865859666,56.932317123886484,57.125775265669155,51.47845635583462,46.39337056410778,44.01030966791872,42.08796334543731,39.27377486282593,34.67883299157583,26.57322289948529,15.834732876558506,4.193012582466446,-7.466725327899402,-17.187615239271956,-26.374704911922084,-38.44618338768532,-50.96200629696594,-62.219731113697335,-75.21327643815371,-82.7686136622521,-70.36689287266515,-39.11972416564102,-7.208882481491788,12.200504240298041,22.64161245147964,31.19386115882094,37.007331777876104,36.930859880582545,33.42026151028134,31.995386681237875,34.5621618372099,36.140233741981376,32.51988444370839,26.124863760852612,20.2426656763117,14.495602356554635,7.195961221532233,-2.871098670013844,-15.21686677331148,-26.2288349300744,-33.903856597871865,-41.99921843376114,-53.79147082780603,-64.60554902722704,-64.95767474102689,-50.92226456607227,-26.185605298453535,2.3295864079868727,26.57187271529658,40.0840359378615,43.033930072760526,41.84124613143177,41.55378279481874,41.830399621541865,40.93265198951432,39.33218103757733,38.224507605249336,36.34779095158449,30.785730502239105,20.906645125394146,10.080538293647123,1.8781339208934187,-4.782240025190359,-13.863665548773442,-27.25281835139061,-41.44302438040123,-51.961229424456484,-59.59784703034281,-68.38212117997196,-74.67301527515879,-67.02177997598392,-42.73930403588007,-11.927481911900932,14.51524392359708,29.612603006494094,34.17292785259394,36.00293567987855,39.25047430146293,40.376301288202704,36.86715490297252,32.861210779809355,32.48538848579107,33.618959081952184,31.59929986153639,25.172558023354476,16.163745886522417,6.801274824213116,-1.7458227520598955,-9.763468229240559,-18.684181331655406,-30.07265722101009,-41.678163643549226,-52.31576633169761,-65.16856263779373,-76.14616351143238,-71.13673177262301,-45.92206819625114,-15.172951830253787,8.019090973819697,25.174047437511973,40.31381839776574,49.759543704487484,51.01577597678521,47.95850543953017,44.43412943748082,42.09493706008425,40.11992939945099,36.223849217365796,29.675318022630183,22.904255152845277,71.0,123.0,87.0
44.33291932801136,47.96735354824194,46.65006895691648,43.60605159080998,41.08297551171391,39.49124926351971,38.00160992147259,33.52718808144277,25.557595649018708,17.90102487823825,11.346678767608804,3.680483836539644,-5.342508853086559,-16.77173997426735,-32.373407393015505,-49.87175665496298,-65.89755371562069,-80.99952499433599,-87.78112747946746,-70.73631337691494,-31.75672449364258,5.902753516906903,24.83027214036535,30.587365627702834,36.12309714517971,42.30669080857222,43.72266841309174,40.72582271808774,39.41564972395088,42.84273471370537,44.83245282500359,39.56531238932361,30.40549314470698,23.378807911214146,19.015440283172616,12.7181465822971,1.5164778407336128,-10.273889644941534,-19.695609685905602,-29.813517249238316,-41.18852767833197,-51.97597111110895,-64.83579051223313,-79.12349063475041,-86.19565688197312,-76.9783233170304,-49.74553073238607,-16.450424102945416,8.559148880164724,23.772332886023765,35.254841500810635,44.99009274197496,48.5812219351422,45.86964454255869,44.92012383393291,49.26594838698704,53.015551182319626,49.70504803057174,39.887248908566605,30.81691000340339,25.200314501083064,18.266461038976324,8.607220479957137,-1.3657272813466088,-12.352768593232936,-27.129787614555493,-43.31295484893059,-53.70166965843232,-58.53347340235213,-69.42041609995258,-87.19049048693736,-91.79311130469603,-68.56877684782647,-28.55635394691566,5.502792009945332,23.382990745204395,32.14406993340723,41.30498510233368,51.85446780718927,57.860714929919396,55.81507490259858,49.7251523062169,45.49588495304431,43.511195263424526,41.38052316913077,38.211721696000644,32.73195432080708,23.63002211692979,12.539579122780424,0.7450117491311709,-10.526518563743183,-19.69453748066333,-29.548722475452657,-42.227786329465275,-54.20745426716317,-65.79600203837488,-78.65861374670514,-81.6309012504582,-62.64862603610785,-29.074787631406,-0.21016256994324894,15.733922545055227,25.179465662627095,33.35846890717913,37.59811037044181,36.03338897482676,32.575844488920644,32.44641948548012,35.415302066701365,35.63357293454971,30.750986215684232,24.3278608333116,18.6462176170516,12.609961608013512,4.6069369099804724,-6.3171659221789485,-18.72149966251058,-28.719855127017468,-35.95360769730963,-45.05961096482031,-57.43231806161458,-66.13237572287129,-62.32132719435842,-44.601619281484915,-17.98955898110599,10.128625447273585,31.73309207438603,41.80425206921052,42.79364911085621,41.592310578923104,41.67678547067773,41.717340261383484,40.471880300474766,38.954198598031425,37.8924075765062,35.22039997072154,28.29525199758062,17.660779876396987,7.39192563557649,-0.048013627617424476,-6.982263681816503,-17.35199442809884,-31.51661001330023,-44.954131564433844,-54.267908168758495,-61.94109069078471,-70.93107863503472,-74.32074803948208,-61.41343484738655,-33.96119935846393,-3.4415921330153987,20.197718673871144,31.72831647581034,34.63063010680955,36.85341713910958,40.01946414941306,39.76293435222267,35.48987344767996,32.3504477227269,32.882987650045,33.50411672372815,30.143127695990355,22.72929390823561,13.413470892610537,4.23788780585221,-4.078379582097507,-12.14762706031255,-21.736200194734803,-33.56681907610398,-44.73384053907418,-55.71872141027217,-69.08144778327407,-76.92027001303775,-65.5403074858152,-36.76618557325062,-7.529064902407685,13.311608783996203,29.780536560211516,43.88912181906962,50.85686933101599,50.36857493086036,46.86768175146122,43.629928027908086,41.57623567022147,39.2876863132844,34.54239890123497,27.601333441197063,21.253690429538832,16.11792727429329,9.21859629770667,-2.0239501115738308,-15.039733176487964,-24.939611939595753,-32.399754821602485,-42.56269907113021,-56.855118539572175,-71.06071604417237,-76.93963987221025,-63.58971333854531,-32.142224702930996,-0.7690367445026562,16.376642159505565,23.200228646877218,30.20363417962365,36.631590575287895,36.28998196201708,31.90335930032548,30.622849036290592,35.06455276574418,41.25479358749062,40.90623948742637,32.40354976528912,22.765897060391193,15.008883252441738,5.8354253505326,-5.326591897404081,-15.922032644022586,-26.94367300669103,-38.645343809584695,-48.81297994141191,-59.589282473466305,-72.0217509064881,-74.90258482978504,-56.85234450404123,-24.56666729985944,5.93895291772686,23.143819444653836,27.1824650318597,28.80813177959817,34.01062682510697,37.798205189532055,35.706778474984276,32.08650045830265,34.0316307321407,39.231760623000575,36.89207755018838,25.83862940944129,16.69699825544848,13.419678293153334,9.69336959619648,0.2600075143073402,-14.780248713811496,-30.623409694083346,-41.05741975489401,-47.66121639470656,-59.38851809374679,-69.58626412830338,-58.18088564036159,-26.50431416281959,3.3757815200493035,71.0,123.0,87.0
5.688588569097361,-4.2858870217503435,-16.195926524845607,-31.95371110021345,-47.176340982839754,-55.25864367008031,-60.572314873066716,-74.46197149013913,-90.92768037114334,-87.93663095080973,-57.71407849687796,-17.25937523480521,12.247585613639389,26.336059529203887,34.50788627943289,44.415045165450536,54.33633716767787,58.05817691721069,54.1513591027081,48.175970217654246,44.804018046433015,42.98140640053895,40.592897576921736,36.96269140788048,30.451122322569354,20.531830068623773,9.186154084861425,-2.671375776426047,-13.369078189378717,-22.260803047681346,-33.016914589360354,-45.911502042853726,-57.39100403136441,-69.59585353630288,-81.29436441051669,-78.50329896956853,-53.61962724957921,-19.51699940757107,5.596559118786656,18.74318012289206,27.68094400005058,35.18192491472109,37.657576129192904,34.96798171822388,32.04918040528349,33.20414923402336,36.008735438685974,34.650586560547254,28.870933082083507,22.618517522411594,17.019988841092637,10.557397397490144,1.758659673226297,-9.910980084850667,-21.998180810098166,-30.935552723374364,-38.18508284734074,-48.45671518320453,-60.784183473614355,-66.55240159358506,-58.48256027823564,-37.527265146097996,-9.661419894364618,17.368157802500836,35.87425796348476,42.73247546159382,42.40039126323208,41.48805980770667,41.79167502017799,41.47802077424566,39.98939143989901,38.63794291110869,37.43057265098338,33.715061564334256,25.465639971374504,14.457841172610241,4.9778243724731945,-1.921103459493992,-9.4948203265016,-21.19613226178458,-35.71155101339687,-48.07401209584672,-56.42586787411934,-64.47605570839116,-73.0505607738073,-72.50428380972387,-54.5194314694331,-24.952463306149884,4.44835340336458,24.80294131079674,33.08653727131816,35.086060448940394,37.83044719606125,40.47090277863449,38.76440267312257,34.230173188054835,32.19597258395497,33.2889095931208,33.02304376859631,28.33635415340069,20.128163223388395,10.684763662385455,1.7551342440104425,-6.383531378745515,-14.658607206120378,-25.016365953311055,-36.97225086113706,-47.745659847455435,-59.406569829878414,-72.59184262029387,-75.96628691193541,-58.36643366148192,-27.64882972420074,-0.6880911079404927,18.262714894145873,34.25731131119061,46.8188718546535,51.29825252633848,49.483825027410454,45.814085905168405,42.93992536139687,41.046434207377295,38.230502451342566,32.656025501096686,25.595049442122853,19.73172837674081,14.475616989433998,6.421460130761733,-5.850917856437157,-18.339489938740627,-27.13200122321303,-34.86876970342917,-46.37561295681788,-61.24328554045225,-74.11294141984547,-75.40303888014546,-55.76016569414484,-22.152884319222462,5.812157520494766,18.869197070161892,24.958808992118556,32.46251115172694,37.31616790847014,35.0953578410808,30.981679639546535,31.35934779607195,37.02672328919209,42.126850121636416,39.04801331791985,29.42610819302645,20.43056014894757,12.645948286721286,2.6916010257939487,-8.487973994158613,-18.95696569857963,-30.373408145921122,-41.75387219590367,-51.66702571684574,-63.25359700958579,-74.56840668016143,-71.91194870738896,-48.29133003511352,-14.908324174507454,12.543681009914222,25.291842205673962,27.398953274876863,30.01845804406073,35.581381491001274,37.774947291957204,34.44399542847421,31.919919056021378,35.641973592134846,39.71767556548812,34.20300837765306,22.561354025406942,15.323737279452867,12.72487422291414,7.641938941467078,-3.63525285811213,-19.588225600354768,-34.35768749729081,-42.96324087749285,-50.31250933892164,-63.42731335701289,-69.07081989347621,-50.28755140313226,-16.683688433259547,9.063158614464394,18.141955484640867,20.491182030853683,26.423827772369215,33.91612878016745,37.79128575953676,37.654289900538664,33.78346910062182,29.526782830379666,29.782784657321876,31.49159044577569,28.92895743003104,21.752457602617593,12.026315536391476,0.17385898595135874,-11.6825303431345,-20.854531721472174,-28.082701453779375,-36.41624915778407,-48.85874304038432,-64.80322186876091,-76.18641200290156,-70.02361955848309,-42.56352638776945,-8.784567018781237,13.557248254858017,23.595603159259632,30.642724159750834,37.06247360983043,37.73285599918228,33.23586146366672,30.410307242891967,31.507881107194873,31.8166167125301,28.579678076306035,24.5192748156383,21.05346844072205,16.23391924630981,8.57104891817649,-4.061640173603299,-19.557199948192373,-31.11750992303113,-40.749568079766455,-58.48515477587934,-76.51198348379957,-69.45811901443486,-36.129416012376105,-3.5220900964193396,13.306798724717696,22.214262180007555,30.89869845067831,37.15375569012446,37.21953811333154,34.676919221306356,34.80703472027975,36.763755619390594,37.41086861673095,35.3587183315364,29.803842761089133,21.27947291017876,10.731796211403697,-0.7097984124383988,-11.827310003726003,71.0,123.0,87.0
-1.400455229613141,23.867599335780962,38.98439416847837,43.04427803807067,41.99951228608159,41.511788530456805,41.841470179944345,41.12550724166228,39.52815626187092,38.35641104283953,36.7541557733184,31.804023716800565,22.38278706881782,11.409838306440582,2.810519664485202,-3.846403883087864,-12.39046969772705,-25.303784149902885,-39.70271673569769,-50.8119878109221,-58.574757598580675,-67.14634761378618,-74.40193451190157,-69.11336031998827,-46.626430871789765,-15.982506546063288,11.551063020623857,28.330311058387842,33.90895525418004,35.67138459168939,38.82436737880777,40.51012601588691,37.49886749135971,33.21843994123395,32.34276314359559,33.5674545834461,32.14138998594122,26.22950698317784,17.427273416495712,8.010175769412095,-0.6550786491658208,-8.68948321252747,-17.360424664801368,-28.458466207097352,-40.22922237495318,-50.832920505272206,-63.32653364938123,-75.29159295153477,-73.10532337568682,-50.025666728274004,-18.95895558429181,5.415757729931845,23.019562391650794,38.48970292602597,49.00755306735151,51.203832521556045,48.45684461688088,44.84460996322832,42.34550037441638,40.44220100436195,36.91717241733954,30.632062586980094,23.717486025678387,18.28021955378671,12.588672789484566,3.226227491784663,-9.696831166254714,-21.275921979371486,-29.219166033683337,-37.69592479658414,-50.499825498539536,-65.489858608587,-76.21973206966044,-71.9892851065048,-46.6616239984017,-12.720385466053013,11.014195385081065,20.77999770154298,26.947056501512815,34.49742282393867,37.32507182732868,33.7423306562432,30.47571821360734,32.58254175449342,38.96492284277018,42.2379640058943,36.59742337819299,26.563142969611263,18.227124950953627,10.059569065466299,-0.5646232949940188,-11.547259629363165,-22.103184538592306,-33.80664959623593,-44.69325460143778,-54.69155445315308,-67.005006216158,-75.89711372223098,-67.02140208116191,-38.899648926145716,-5.789101846405127,17.82850612757847,26.490444749735353,27.73501362003381,31.543499052975058,36.8334968370913,37.22276513253519,33.252490598488585,32.36413169968888,37.32513481632102,39.285852724030754,30.944681938679512,19.74473436723073,14.39085705277381,11.787320437369841,5.041915230350756,-7.953143834381287,-24.297536230635025,-37.50191074765193,-44.720320351104114,-53.62576291879928,-66.88664402690348,-66.28677405853225,-41.068018588840864,-7.629152637425732,13.214664715349546,18.859891964836734,21.71200388340767,28.7243551294387,35.50214646457313,38.131947651908035,36.890951962849364,32.30111413622135,29.098217361605556,30.43572441054199,31.325554197079338,27.2138479103583,19.170757392654394,8.786395036743253,-3.4099845188554476,-14.646268197715688,-23.032225690002775,-30.217740900119978,-39.5125407978195,-53.29600793841556,-69.1244495932652,-76.70490035454654,-63.938399561041734,-32.47871533871431,-0.7451581746662999,17.333889896523946,25.60076555135355,32.759350581943515,38.01431807180194,36.69632525202887,31.974749870835982,30.460759673048575,31.91760829647023,31.195471769081713,27.331799255168104,23.52693133609132,19.87334733428622,14.39423038508811,5.495452058614057,-8.550323774380566,-23.494762458352028,-33.6377188610259,-44.81360294444198,-64.76385556688894,-77.8856530806366,-61.560740419335986,-25.42158110600887,2.8739781275728413,16.167155743196275,24.686600806175175,33.20326686752252,37.808864542073565,36.4370560151477,34.36134296395667,35.34013846207567,37.17938799240281,37.13248948384656,34.127742649560105,27.591537078489733,18.405321738270743,7.454251110989416,-4.000090074137995,-14.814979239634518,-23.835145045748348,-31.395968533201074,-40.28554301187992,-53.469174175264854,-69.47185623251015,-75.29944829558615,-57.39534238030249,-22.9172575395253,6.756752842805156,21.82609204721583,30.499791945394037,39.85859723512977,44.65818923569494,38.817961293320934,28.205449738196045,22.836838444678683,23.578480915735938,25.02297679266141,23.47509586075858,19.714606635969403,13.983616579340127,5.251470804380895,-5.694741672705354,-16.864597771581284,-25.832602219893413,-30.48954414453362,-36.3410182102109,-51.83757028095806,-71.54688311083088,-77.1894895280613,-57.97496645388629,-22.130597772472072,10.107879055262853,26.748650394446877,35.012333945480286,43.106248644011366,47.02076617853731,44.092019304136834,39.94764043868113,38.58473022674853,39.24010544485929,39.19822375898134,36.460647653879874,31.061338585401565,22.738497846027663,13.024311585051446,3.325222848732561,-8.378673680551625,-21.269717243469685,-30.33200863581404,-36.42805219791596,-47.23193152369193,-65.11271376328631,-81.14285358980635,-80.48001286845603,-56.2236450008509,-20.57556059426832,8.101724398435396,22.68176063052284,28.9138060680719,34.34223706065807,39.59956973083045,71.0,123.0,87.0
21.996208357306987,16.8196534690311,10.370557591143516,-0.3082886797424835,-13.409681824766505,-23.854608677502185,-31.355975326815752,-40.93197167821982,-54.826869174593014,-69.41668509429606,-77.06291668923343,-66.66021443144258,-36.79583246447776,-4.259625676521264,14.938437671910572,22.440201801915336,29.14895596019817,36.092259423151944,36.729085022990546,32.43750627820563,30.45737000306818,34.21205300910811,40.63870655771242,41.51546478330622,33.77041765782486,23.910599195165,16.04270376953312,7.222513221540986,-3.8364242644095503,-14.542871654737736,-25.387664874681597,-37.152462843004685,-47.520383747217416,-57.978008686779184,-70.55644209609552,-75.63448449223647,-60.4035949226161,-29.104366785412253,2.4824775897527056,21.76440061771493,27.04837436880199,28.380215673032044,33.2311739822818,37.61887566491295,36.25057750366247,32.35151515275935,33.39352254061619,38.751763963016465,37.864488454425086,27.442640904100383,17.517670689600884,13.708498436030585,10.46278992709875,1.8912885545627216,-12.581503313606284,-28.724041942360174,-40.055008655615666,-46.63885626862999,-57.49824620203714,-69.12682747771375,-61.22355922141243,-31.14128365279889,0.2329951014286662,15.981822709403385,19.39756602746617,23.372454281302947,30.991372750412562,36.70174638094337,38.16778269107521,35.80338361662955,30.942371204998317,29.123185645092416,31.04074055675825,30.69377678003724,25.173396980756156,16.407351073007078,5.370834310849757,-6.906456414596534,-17.34359166469285,-25.100471808642425,-32.53319399135568,-43.01303415217157,-57.963498633201624,-72.78032733044344,-75.42627928159202,-56.15557875343202,-22.409247278469245,6.010481177084505,20.260774208630455,27.59630010514737,34.7495217288926,38.34647819657377,35.34751072270215,31.040588206220896,30.79839073385739,32.107755651301126,30.275406458658225,26.121559795570196,22.56094369989775,18.53097376900811,12.284133312613484,1.9372750218733816,-13.135344139284726,-26.934321816094773,-36.205749177472214,-49.80803352032456,-70.55224303194508,-76.52502267731649,-51.86920728233178,-15.553643096747088,7.890903177833771,18.688387946045523,27.225885144182964,35.16591209086947,37.89791604606345,35.614622749576874,34.3491860366793,35.94374890491167,37.421248714813544,36.61181036978183,32.58360165168447,25.16551005775958,15.376496812947032,4.139268689192009,-7.2411896123203645,-17.642640995675425,-26.079348909360395,-33.67810416700341,-43.56609688079687,-58.13406928442336,-73.01855898635124,-72.72834801305453,-48.24351693731997,-13.004413314624315,12.47379827169603,24.463064423194155,33.160430766375654,42.12875558017198,44.05996930722133,35.71133075420454,25.87205696039336,22.620133643823955,24.178040976766006,24.90623866610122,22.5500290747892,18.316455406812295,11.780957000238528,2.2280117677678963,-8.981521067284907,-19.830357338072325,-27.574522195133,-31.590134105527248,-39.69527041265712,-57.815053203146775,-75.41662721509846,-74.19305639372375,-48.520121756171946,-11.560672082984997,16.504190383443355,29.417443249867304,37.3639433186691,44.96928087205494,46.72192291892888,42.72820571086474,39.24405805101174,38.66170124469332,39.438291613775014,38.69498274255354,35.1825228149408,28.94366425807039,19.95430934549394,10.264592178068108,0.24170593903985133,-12.191920401691817,-24.44050737856178,-32.10149837929643,-38.753677377244735,-51.86796104615057,-70.55938062462819,-83.28238892678097,-75.7060140346322,-46.19643785458165,-10.96874704956722,13.688185279638551,24.92098829989527,30.392213007671614,36.01265105863141,40.624626120326866,41.6535353363928,40.25528079966343,39.626921781324036,39.53731496217898,38.19199143180573,34.802675794149664,26.729869676475516,13.045788775381109,-0.3612117780167522,-8.489160221316032,-15.383978703998633,-26.35097680436086,-39.23856386745958,-50.03684396757895,-62.13731893160363,-75.13564833279906,-75.20586268247067,-52.59853369711011,-18.554980901467104,8.730476990002343,24.587065010028045,34.10202837191651,40.853525426392764,45.308278798163805,45.98307235836877,43.42128225383089,40.23345211791552,38.142949356343024,35.97323126268434,31.027732043294325,22.555298776038114,12.521835862441684,2.3834423422332165,-8.938259876312806,-22.016613061840456,-34.10892273997763,-41.90578854271449,-48.85141391682893,-62.87152597946438,-79.56235184572856,-79.44152553897909,-53.87046812413312,-19.844997850643914,5.155361178447729,22.39602264136424,36.670327076601104,45.95516159315761,47.96229380195149,44.499810670025425,41.393772263551654,41.71276173626342,42.77002018811483,41.74961936119388,37.68562641652731,29.946358436384383,19.89507790570103,7.600046170926282,-7.854358990949558,-23.366942989567438,-35.60985903385404,-45.823402486770064,-58.14542905726364,71.0,123.0,87.0
6.635233121564088,17.646629335681535,20.071422459608,25.401786818507443,33.062354785223256,37.52718569269834,37.892016496977355,34.45783991664165,29.879923571850753,29.516898210858876,31.426729233920287,29.588326345949188,22.880108556902943,13.454268775226929,1.8290061931806438,-10.228316999152272,-19.79524392613437,-27.13403122334621,-35.11524994387369,-46.924498825371494,-62.6793531408019,-75.4145343936377,-72.18752989747387,-47.061531112684065,-12.877720065805333,11.458189339543601,22.621602726881257,29.665567881639912,36.43557171843442,38.05671483629937,33.8885225038379,30.51307019147945,31.28083863115867,31.988141571736243,29.14327225612519,25.00196217071862,21.55148132199468,17.005154172347346,9.83533436592802,-2.0797793367076887,-17.598225352411493,-29.887019698871374,-39.16412687339158,-55.6216770953647,-75.06808374290286,-72.31202404781058,-41.17127297169661,-6.976793883710916,11.793300102732175,21.098533410926237,29.762597246726838,36.654022978579285,37.51407776945631,34.91974202693198,34.61156937419338,36.52529819541367,37.46327638709841,35.82172074325877,30.74318239024627,22.547354804810503,12.22022227295801,0.8173585416455325,-10.404498705814223,-20.290015009156196,-28.238148645874112,-36.154244622811966,-47.27443234495576,-62.926961440059316,-75.25597062664745,-67.95793185801757,-38.13942723139266,-4.0445285831112345,16.956541491210682,26.887247250793507,35.934616262141624,43.77781255832899,42.500111581557704,32.4927757486021,24.168604005008866,22.82729282179451,24.681590699328755,24.5012859790547,21.48979396386913,16.727258436071885,9.30827007919899,-0.9348448088658785,-12.243884207906774,-22.53431181671002,-28.928748286368887,-33.03804616964457,-44.01790242375015,-63.810831415392194,-77.6163021106657,-69.02178631074885,-38.066053728952085,-1.8390178126807548,21.4970986953553,31.73184530699688,39.776743058607416,46.28493352615431,45.89249717707503,41.44771428758214,38.80582785941752,38.863595313064245,39.49486144942624,37.94959466780917,33.68555389210941,26.572663872730242,17.124818757027597,7.506464904505374,-3.086787275752124,-16.011392298305676,-27.15916123946052,-33.753448063482715,-41.68480145131591,-57.044059632097614,-75.53536766942307,-83.63927967211488,-68.95633806305652,-35.70319123109238,-2.3431832960559973,18.075977754792714,26.698981445011835,31.939953751200697,37.60601388781564,41.32074090894202,41.3481083330921,39.910635402083294,39.65430905029886,39.304298715619446,37.496634029797534,33.09710513509074,23.21300984617701,8.78392745331558,-3.2345306997251884,-10.281191583910196,-18.07119288595647,-30.142406017071362,-42.55894919508815,-53.166908188217434,-66.21224250394698,-77.23037457628286,-70.9075671846645,-43.023578263588625,-9.44292047047726,14.309119598039107,27.764262490556376,36.25729678761731,42.43579057902526,45.932319038047595,45.4742845150504,42.445793775916435,39.50990546290103,37.64405804996801,34.92548202299472,28.889537114678983,19.70536945707593,9.614861274624463,-0.6947526507055268,-12.589206143774721,-25.806253885355893,-36.83353606667368,-43.61728797962176,-51.98954570446777,-68.13311779619872,-82.12973501827966,-74.30508338088009,-43.833288110771136,-11.43131659283501,10.590334962458973,26.82755833903323,40.01429101197932,47.30738830158967,47.30040830664567,43.31175129463939,41.17165453851486,42.123249542479584,42.73543235318169,40.939733462634095,35.80011189342948,27.20953389515578,16.652663044913893,3.4066096946234334,-12.541150808067796,-27.278956867628573,-38.5996868324095,-49.01733902199443,-62.2496153500162,-74.16721508285038,-72.24163196419669,-50.258137945046805,-16.875398984723002,10.997608642134029,24.808963588537743,32.12168900960606,39.94798562326826,44.29284905695118,42.292705953822946,38.58939784648227,36.24635212597251,35.459890056244795,37.497784871371906,38.14596459972483,30.16338368625282,14.669496472133392,-2.135906553920063,-17.750625693019465,-29.16412723646944,-34.42630763874573,-39.316144865685004,-50.39971840905508,-65.41245233201283,-79.64731417147907,-87.16904026195508,-74.52636026491669,-37.892751627573254,1.9838107239083858,22.759774221002857,27.48804008028079,32.28802974572048,40.56465470937683,45.067870937212064,44.3849802063801,43.579743282676425,45.2280464719011,46.24283351229839,42.51414993043447,34.01780301163674,24.968881874471407,16.875195911594137,7.763073704503422,-1.5582067148762935,-12.062829046184104,-25.928927617478273,-40.37547267065982,-53.34069394159938,-67.07485779721284,-74.78174250406099,-60.74416599979919,-26.165882942289677,5.5969127909987195,19.76704589087341,24.6845104032369,30.857635422536383,36.269023906962595,35.291302909175094,30.35916633347439,28.034466430549916,29.50673081186073,29.92624708637455,71.0,123.0,87.0
-13.455691558013235,-22.75508227826712,-30.38632103496767,-38.904428999412914,-51.421352830175096,-67.52848754022901,-75.75106257954195,-61.140068823386365,-27.687107537587618,3.663802488946316,20.456652896635582,29.328990278330554,38.67030146972776,44.598670725761096,40.123408471852244,29.46606396045986,23.1159143446637,23.308145644955733,24.977316954844248,23.84640163078561,20.305681758171744,14.908267843928979,6.583242089198709,-4.182502431740549,-15.434548637609002,-24.885996307459493,-30.019926389777147,-35.11071820610557,-49.21284795902547,-69.31735769360532,-77.82243179194545,-61.861618050592334,-27.157104727274863,6.66317807593649,25.30498924512485,33.96360326287589,42.11054448563272,46.945048428113466,44.70575340708697,40.363241774392165,38.606588591677294,39.122972124843116,39.346563425680664,36.979397924611106,31.948694554361612,23.986577013724023,14.308992224648135,4.6774033673356055,-6.661602646027147,-19.676148738394787,-29.422164978123536,-35.51488942159663,-45.316780150315395,-62.54418472307669,-79.64833586556506,-81.9682457583684,-60.543781548211385,-25.252539317578726,5.098157380816033,21.4267190608053,28.23626630384158,33.57136532871557,39.02669442546939,41.67922436681394,40.91306027595619,39.703874103032334,39.666525386033,38.94536916864753,36.60603379185105,30.907656520731642,19.261077863931085,4.758743428172669,-5.621613964440586,-12.157085965582587,-21.17902978727678,-33.95000976337571,-45.65801486963856,-56.572767622307616,-70.21599464574822,-77.79296385913867,-64.64490485447382,-32.9845233290709,-1.277232180572735,18.998095298736388,30.55289466435884,38.23816364462946,43.80435101194895,46.20124909980399,44.74304581672679,41.48976108103154,38.89815597340265,37.07849561699559,33.57954599124927,26.472172209083507,16.792810592844802,6.70784240148342,-3.917523045914118,-16.37810983243759,-29.408109454968702,-39.13844331976505,-45.444609021077845,-55.90436181011276,-73.30672997920736,-82.72548401468981,-67.10068312272375,-33.71655634269456,-4.026365264008434,15.581084634165242,31.04756148702725,42.8513964183753,48.016033970898,46.28337296969918,42.315418151415685,41.24604293587128,42.4859199853906,42.49479312990116,39.848606494594335,33.60655581965915,24.333555566048396,13.182218930630635,-1.0507066548286876,-17.109719439851787,-30.871572273199817,-41.498423248084165,-52.50405065474711,-66.31682285966853,-75.56835751364461,-67.84142649369552,-41.075599123568196,-7.561250383026176,16.336660288319308,27.0699972436286,34.35058241884224,41.846826534238005,44.252108589715114,41.14954273326303,37.77892517216763,35.79190693549603,35.786223153349276,38.19639565249342,36.898374884547366,26.155931498403753,9.77134679325663,-6.844272255174923,-21.668039970149852,-31.215787760470675,-35.47364474621256,-41.80845264452919,-54.59565191612719,-69.74597398630748,-83.00071730347732,-86.1856532735667,-65.9059362964821,-25.405162471779626,10.353631151310736,25.033006860064393,28.356745108226328,34.60632991680205,42.512844628872976,45.22307893881765,43.93946210351941,43.85078986478836,45.809084342233184,45.75393087275461,40.410764925354854,31.26700042311957,22.629921163349117,14.364647522138336,5.04191805321075,-4.322831404294832,-15.746100404777426,-30.246697993494976,-44.18861661787538,-57.219727822969446,-70.62821805049876,-73.450307289343,-52.066847194156296,-15.577360487323926,11.460996839736042,21.4884395703796,26.19319357978046,32.82643616385623,36.71828587869189,33.96197377344699,29.214280141188635,28.218650392118533,29.977961038663633,29.329786529468258,26.31529738647384,24.856157900192695,21.706961509343667,10.176665190565188,-6.015492686033045,-17.34759439575732,-24.13467924373223,-34.24065384909839,-52.53739272747128,-73.16139181218826,-79.76004628623414,-61.500422987962764,-27.6765205903292,2.7076964416033715,18.67577406264575,23.845657254635405,29.357179208531477,36.09382255239181,35.292945484949136,28.818227449080183,26.460863283383524,29.22413217289898,30.459088837590777,27.794582254325967,24.209364765291344,18.53223695147658,7.89021101206277,-6.045492398028186,-19.17310851975422,-28.665498665624412,-37.15724517561682,-49.88898877981288,-66.66067463966426,-76.98503740927684,-66.4136176108037,-34.54878721681131,-0.965872179777441,18.666055413138423,28.922148136798164,39.80687521681573,47.359176715590394,44.21093607555125,37.22078872328502,36.86227791531465,42.96615011958194,46.73562004308687,40.43420239812092,27.182530973156883,18.622846774582182,16.112461805176483,8.04378155356541,-9.581210709921557,-26.905075296980392,-36.251729261902184,-42.204377039189,-55.27845476360123,-76.4505302171376,-90.61097991724924,-78.38257528497793,-39.33441008423801,2.120360295745891,24.154092070398264,71.0,123.0,87.0
40.191116431071535,41.72418800716853,40.45105806622727,39.6288481429791,39.60314233311315,38.46039960842829,35.4495232839725,28.176059931809625,15.032954277553607,1.1399694966872198,-7.638023837337279,-14.284058925382128,-24.65482648738957,-37.621522751844175,-48.64933620038314,-60.31291128828531,-73.77025568263745,-76.49074893176409,-56.7062773864344,-23.006386646455795,5.82002277504415,22.960525396522602,33.0392113737259,40.064315563337196,44.905310714520674,46.12509006301078,43.85965134903042,40.60621710560817,38.370776972209406,36.36925343338525,31.908540155004893,23.830638869364307,13.867081894133225,3.764966731580409,-7.312349117691445,-20.23819819580699,-32.7116754450033,-41.08886032175528,-47.64519024260482,-60.54295442779346,-77.84589144384815,-81.0295118759225,-58.301152244441084,-24.04552460995727,2.4415955666368587,20.291836002021647,34.98011666573286,45.116850342063685,48.1085163326316,45.074581811993546,41.60825542179697,41.53579481341715,42.72010524824252,42.037832698268524,38.44416600998827,31.150895459183417,21.328965157423724,9.431859877693372,-5.687544650916164,-21.457372954871587,-34.171458757463995,-44.42765463739056,-56.30370713739606,-70.04889178652881,-75.46976316939775,-61.75062694090872,-31.293737032381685,0.8532656264166735,20.464324329410637,29.104634565097925,36.67396807782551,43.2716248227717,43.70240678223966,40.0258758483276,37.08835358847081,35.48918799073274,36.37607734722711,38.58735484442354,34.775824880759956,21.674405019952857,4.89033372384953,-11.429245542668397,-25.121826373814397,-32.75935706703065,-36.71899577400971,-44.91587556404576,-58.9678910565451,-73.94609165395565,-85.58081826120758,-83.11884037909752,-55.4158397707181,-13.383965668483023,16.75207822655174,26.332948655021507,29.605270714852452,37.09952048261061,43.95375004009516,45.017920068207964,43.629796364645856,44.330572475465274,46.2132243883599,44.791025804327965,37.96031306666773,28.603432076379068,20.331704891776244,11.732563818009385,2.3539772432355344,-7.266279372119587,-19.733715472312873,-34.48514975742856,-47.89518293293807,-61.238136070780314,-73.33597824798166,-69.91548852751305,-41.99740981679507,-5.9259812525748865,15.754949612117137,22.81534373855242,27.96097897745536,34.5540915409296,36.53993321393151,32.461221749375284,28.43581969229839,28.66824189505367,30.202402555355132,28.497340281392827,25.68425654864168,24.48361137744833,19.341669849234407,5.501470613668605,-10.02881421318486,-19.465288547618538,-26.37018303515543,-38.6861426396856,-58.861286109519064,-77.28752351140258,-77.01903718942933,-52.48694033192804,-17.801083474794012,8.915968544116199,20.79041131875761,25.03128887182096,31.563758270037457,36.8735165221951,33.54782722197944,27.425203102028803,26.985545511761828,30.009381024138495,29.975139132156063,26.775240551023515,22.969948409544852,15.980407390481572,4.036712115092772,-10.110788564329294,-22.295511648855108,-30.966453522973683,-40.24541622217384,-54.57841696423388,-71.00161696537242,-76.5266569685636,-58.79323053566424,-23.986137397668337,6.293051672535431,22.023719875536838,31.858949764777947,42.83058595414212,47.52678326267563,42.011331617254804,36.19869435723103,38.267441346487644,44.744165991937116,46.08640987352398,36.82834830690001,23.817707796259768,17.685441729182642,14.852245627606125,3.660582297954255,-15.155138827385171,-30.45455945120857,-37.84882619265929,-44.89535532046456,-60.962655067189914,-82.21950311940392,-90.36090405312079,-69.1066634213,-26.274811679936857,10.81864354097705,26.955504178818405,32.99670241442999,41.16338714427877,47.633737276635806,47.441516193974294,43.47203870243869,41.351291393128065,42.82063678110263,44.78684330823642,42.0386850936891,32.899673825569906,21.440325569214227,11.116739385866829,-0.24754310141701089,-13.946915957654344,-27.422307579512037,-38.64609814637651,-48.60636682631243,-59.98096165371505,-75.69022906944876,-91.38610271288456,-91.73091726726005,-67.52062200706726,-29.574195868491046,4.371825069067709,25.01839105098458,34.21294335876459,39.7702788290527,45.68038698046166,48.669946788100546,46.99655128413549,45.22447388775612,46.861150806986785,46.97357960181558,40.83956288183487,32.959308313747535,26.337927424299505,17.764661373041008,6.734099660398019,-6.134089354837504,-19.730288839319066,-29.546756040858227,-34.88297678232473,-42.6810017710134,-57.99138929860077,-77.08363317164638,-87.24449854438272,-74.57866723567273,-40.50925207029795,-3.9138478689596226,18.57119625173552,29.682578000938655,40.32024434811838,49.89279623099555,50.44901126276319,42.95061304462175,37.63428467195489,40.677533694810656,48.11411740666717,51.124197930439756,44.201868643013306,31.226350009989755,19.60486143777611,71.0,123.0,87.0
-60.34682804286909,-73.09480764253668,-73.67122315456099,-54.172470770388465,-21.370171458647892,8.095373422805865,23.607940694827857,31.14279887215256,38.957811684514944,44.112873670469085,42.78934501750627,39.01022475132208,36.49188227377039,35.40695851556996,37.13427836248824,38.445843934938885,31.79684165821406,16.912991940423915,0.06482164755487173,-15.819544543468531,-28.02415617174368,-33.944324604347386,-38.372509994869276,-48.568289569414844,-63.3860402718049,-77.92603936552472,-87.0109934453015,-77.76964635712858,-43.59941395529776,-2.501939551472944,21.252831156846245,27.149556698125306,31.33579462448848,39.52943473885291,44.83961956051163,44.60331463338943,43.5378525980006,44.936706856386024,46.32069136914109,43.34108992670956,35.28675937541336,26.08262361600224,17.98923481878649,9.022329728288208,-0.31701014291354723,-10.476287504355833,-23.944684733969705,-38.560506517658304,-51.60178923607212,-65.27513873926436,-74.71810443602193,-64.12812027775992,-31.194379144543277,2.332319771229978,18.73678256454553,24.067145157895403,29.924955357379936,35.85406058780022,35.79316843486403,30.98354584908673,28.068254604311555,29.243450325433532,30.094459038080437,27.56417965746157,25.263050099890645,23.781395394657192,16.146295144757797,0.6797695663330271,-13.43569870246089,-21.348216181076722,-29.091284143218207,-43.87558723803474,-65.10175834936696,-79.77263158450312,-72.09633731775718,-42.60639245329806,-8.674057211344874,13.784581868162817,22.23805426286432,26.526928980121177,33.70365725690787,36.809707249485626,31.553151231352338,26.59832770562166,27.83036152321655,30.48114925739119,29.203374457663593,25.75997930273759,21.4518428140549,12.979395203814972,-0.008067207840362467,-13.99804025668568,-25.076931180253478,-33.316657975015104,-43.80408581927131,-59.521180984668355,-74.43778489302177,-73.98942736809025,-49.615807994417345,-13.903295892010348,12.191504746826988,24.90369318040723,35.024062720362785,45.296801751377984,46.720491872948195,39.80965715591654,35.92504336925549,40.07927696284185,46.07060878383076,44.45574171997854,32.870119896431106,21.146957264446343,17.093365989727282,12.786112017219367,-1.44084749937917,-20.37637004330905,-33.256197214581746,-39.396855067372655,-48.440863350187605,-67.18598551931552,-86.89200061716276,-87.47460943123846,-57.87446634554247,-13.788978212427965,17.554747755993883,28.915105247305643,35.06566648304367,43.564026450490964,48.27228650507637,46.408295037541116,42.493925648597724,41.45997141702964,43.57228156235719,44.66564225244872,39.962758808480416,29.574571507177513,18.35596445840778,8.084808658212308,-4.0307782044715434,-18.009642532640797,-30.899544841735512,-41.5610111944026,-51.59306917376315,-64.03126301439168,-80.76436118182029,-93.80365073347687,-87.13316210501576,-57.13128787452929,-18.71863970621467,11.80817417643169,28.547879317366373,35.85588709274134,41.495085845300004,47.045012187247494,48.55443406904871,46.222189470391825,45.40329830792311,47.410354468185815,45.79121266796313,38.441597036504824,31.025205829653437,24.170668253852945,14.773919073819355,3.2118837114416228,-10.140977466213469,-23.154790210361334,-31.334026499229786,-36.52563656479321,-46.31753562920891,-63.524227325942746,-81.66811219287926,-86.27584320235272,-66.32159191775064,-29.195248980856977,4.308701136414919,22.395565327862336,32.54097407142551,43.55988906241631,51.206018749291815,48.72511488098087,40.73508243688232,37.652465789104184,42.74659513281895,49.81084818394064,50.17548504647022,40.67463093611876,27.58707604313429,16.532912925329924,4.568970999165923,-8.805726167437868,-18.445207461864058,-24.37404829036348,-32.051788942865336,-43.24528877176753,-57.86201711831753,-75.69323784841588,-87.08129409746908,-77.13191128921804,-47.068920950955864,-15.095715892919031,7.242517652505632,21.052664607074355,29.035910265082517,34.86130509539434,41.460735982990485,44.09503764266645,39.43659703881806,35.300219235985026,37.79759466249196,40.11555860709375,34.62231180668786,25.867258216125098,20.702566837873512,16.938775350055685,7.4714595414124485,-7.850896745829358,-22.55597849367942,-33.41329697746555,-42.605935543241316,-53.505347823786835,-67.44373083000241,-76.69794275247702,-67.53509877676166,-40.17603530963799,-9.448197394000271,12.105332986791577,22.292849881970543,28.588965744184737,35.2108972342612,37.27491241725365,34.062354987140054,32.42193390554413,35.8286290779579,41.06532937242053,42.106384658072514,34.50159003790763,22.20216941586028,12.65916044148505,5.036752511268624,-4.605566143941062,-16.941206507871268,-29.141203424070905,-36.64617143367976,-40.4281339113416,-49.557434414062186,-67.45531313692089,-78.38362054048861,-62.66116521562584,-25.15461711695461,9.000373265617188,71.0,123.0,87.0
29.64094180292059,26.675727499870426,24.979858504767552,22.52512226435014,12.199731471873013,-3.9879810690606847,-16.23600465868277,-23.217020144832762,-32.44870692214829,-49.696994477582194,-70.82576872838513,-80.26673767281304,-65.2248403274951,-32.37442034452029,-0.6006225596508245,17.39125774649779,23.35323459278472,28.39232066835531,35.4768616818648,35.93127712364964,29.61556274131686,26.374622882312167,28.795292676980132,30.55933012935055,28.258276152698592,24.719533614183547,19.554070175281147,9.575407043292918,-4.1405536451743625,-17.61514999239753,-27.57786061462969,-35.8717108532154,-47.85979819098832,-64.46765217074127,-76.55750897697348,-69.28849228645427,-39.42091769222826,-4.76812844377075,16.86015839068409,27.637255916865477,38.31134024075596,46.934357955067505,45.13035428798621,37.917680006428924,36.40687652378827,42.063331493881684,46.71806640347844,41.89049651664254,28.91160318626487,19.250830552674746,16.49412615532175,9.764801194432241,-6.974852798366452,-25.009763397343146,-35.41897025377771,-41.20277733265942,-52.91469655088239,-73.57551525910074,-89.91431791688771,-81.85953725904784,-45.34215377888245,-2.5241322615902435,22.44157118220971,30.518264990070353,37.44524233122225,45.604399511770154,48.30778592661254,45.2042942786523,41.790831728809316,41.86251368401323,44.24530792089727,44.02435053930557,37.37216167868377,26.206260518675858,15.392890239214495,4.868973522743775,-7.992693707169223,-21.964242410632437,-34.171620931528786,-44.41581477713092,-54.77739096572031,-68.51264319667074,-85.60601426204731,-94.48075303529066,-80.44068570155187,-46.04313653882926,-8.59793863701791,18.024506534002413,31.26136901845437,37.41119662526143,43.258661125837605,48.034708448145246,48.07597606416714,45.601787610368326,45.89092917529261,47.617738083436365,44.05769717918865,36.092302437845085,29.16803753385571,21.75105038061452,11.613887531529542,-0.47168184076452285,-14.149534083092888,-26.122254365041677,-32.82399402142829,-38.5928183579996,-50.63434277974022,-69.19627237237452,-85.10786038137356,-83.11763739493985,-56.526486399471636,-18.251560993447303,11.085646640707589,25.55590237166409,35.583525962714525,46.53739788326262,51.577482588341454,46.49915750780766,38.986113971243476,38.42305104711584,44.99446816603054,50.91303988301653,48.324974314459666,36.85277777011723,24.199338966253517,13.356741488359933,0.6466683014035959,-12.153142633147239,-20.309956980014192,-26.225020963244166,-34.96044559939193,-47.06327444399454,-62.8577674678851,-80.3749316003958,-86.81165117525059,-69.84534655337406,-37.20984375335774,-7.558344960099657,11.956604593639984,23.854531852493768,30.714974341694155,36.74756531151116,42.96219856939395,43.33298457877845,37.70655861557791,35.416594338333276,38.99315280382772,39.357242529991765,32.01466334260714,23.90719667491641,19.798985635899978,15.002090190580217,3.3945372361067148,-12.42902581836893,-26.063868225982873,-36.08088462548336,-45.447101108540316,-57.31590682042719,-71.25149269657102,-76.3389312637042,-60.97225702832033,-30.931001297626985,-1.957625317827115,16.004103040451604,24.12162014481657,30.58465355811156,36.516186214073315,36.64014458642552,33.13025167608203,32.93208045457076,37.396881404685786,42.08113862985713,40.82175791426002,31.029742297689392,19.01555352130897,10.474813946499124,2.5547833727526617,-7.949979793006162,-20.69126901953922,-31.931115806662817,-37.816931667346424,-42.07864804229253,-54.150039916434054,-72.41134763309066,-76.97963927251057,-53.07600617548492,-13.879361044215955,15.656457300387789,28.63008836247638,35.42947359864289,43.14461749765312,48.093318551562994,46.32281145477612,40.66480461145328,36.072844901477616,35.80062036872439,38.66592389370998,39.72680696117981,35.85756509498189,27.18088272040674,15.620902986102445,3.551059917377538,-8.255402208619348,-20.453144475443004,-31.60298116133616,-40.83821830941751,-49.6776687740092,-62.269448613211885,-77.97671199853278,-84.55795127645973,-68.40744042393528,-33.47809136393258,-1.044308476387326,15.115255338138324,20.77976218575973,26.037783538604657,31.865310007756666,33.69857130422399,33.775982475011794,38.97601594955443,47.56733978563498,49.464051136219844,40.05028488942528,26.37887335017242,17.378925187010502,12.913463000686884,5.506329376431737,-7.6526706586548014,-21.603953573466747,-32.144292743015285,-40.574296556810815,-51.56565517240034,-67.39803206399955,-79.44952276153322,-70.2925819659867,-37.4851832607364,-2.143353794374321,18.48459123536564,28.309788552673833,36.18994269541914,42.79366873195283,44.930808142688505,42.844169927843,40.82548139771749,41.18727923814817,41.62551479876504,38.02454511904488,29.71207058959498,19.65168724169619,10.175489973151207,71.0,123.0,87.0
25.799162424464594,32.15702902686012,39.99155205033141,47.13004754428267,47.81433437962267,43.992845676764965,41.41189654154514,42.48635923507622,44.694200545813764,42.802591543391365,34.37764048593027,22.913014973596,12.474608330067932,1.4222759276973238,-12.060194447463864,-25.74700077893183,-37.26717689787743,-47.27084666905198,-58.254588968909765,-73.36723696713862,-89.79875254724814,-93.10537105643785,-71.93950357327324,-34.73696840693486,0.5384755166076064,23.06379316464535,33.37638854881295,39.00499466914208,44.956127962945196,48.57664379151283,47.36225888398083,45.26328120070013,46.55165564814165,47.31387959314294,41.91402625694722,33.90399406110418,27.264255897507372,19.076256405945777,8.306990714487894,-4.315521724413817,-18.027421529644982,-28.580408489772477,-34.21430742145905,-41.23854998050891,-55.5555129451932,-74.70165489679276,-86.99549005422897,-77.75610745808869,-45.69525725246304,-8.167601231623578,16.48686982418425,28.397739592134947,38.80474289500529,48.99780577703851,51.00441530754034,44.06217541250071,37.888689276805444,39.845431464879184,47.186827250449674,51.25542057312945,45.659902773898224,32.97664368934899,21.0251975423825,9.968164122359784,-3.310167833040258,-15.048368073601313,-21.967606343434895,-28.3575991717114,-38.14278229273675,-51.19106406260149,-68.09171424087279,-84.14109980357125,-84.42574514757366,-61.165064607833955,-27.705725932502915,-0.9356977839810804,16.054626910318873,26.211948667845927,32.343505858034284,38.71885210884943,43.9266305458216,41.98437771975377,36.31353546322541,36.12092321701462,39.88095694434789,37.85572755868419,29.36972115653807,22.354259016648644,18.851922775984917,12.42178963505867,-1.0609814398349993,-16.782108351719543,-29.237503724346965,-38.69849367358052,-48.50898728495349,-61.38597009061139,-74.33930336821774,-74.12651304905675,-53.1160500830971,-21.82690758250549,4.541038245750311,19.018053910867362,25.87600313715352,32.59560563665799,37.26421864093789,35.66597459480673,32.52286367594005,33.871612456041156,38.992903646596666,42.58416524382066,38.74758802054086,27.376464472832804,16.19851430641819,8.331470961816965,-0.1663189442808532,-11.504827930895477,-24.323824841603027,-34.21634745968528,-38.79871133699045,-44.45820467879226,-59.41171612111181,-76.19246279661121,-72.97637914399655,-42.124004309952966,-3.5619166761789134,20.79926277707826,30.700686704513213,37.5679969162939,45.151881216707,48.25614493047947,44.85789296131502,39.03522548916162,35.49273185780217,36.50030369195132,39.36701437713901,39.161109325222185,33.778182009456685,24.031424729812713,12.097051248016006,0.1531318239546628,-11.76074341324328,-23.867694186909677,-34.4482821254757,-43.28453972462172,-52.759076831746626,-66.82280341094754,-81.56261196248951,-82.51211466671572,-59.465995190547154,-22.865521630894015,5.344620989772632,17.287998898980092,22.089481493042346,27.869427158957762,32.91124631640085,33.560428784851545,34.58628863723691,41.49624523257819,49.235034559641,47.77649570594166,36.05370011683828,23.08519054004644,15.905180691365146,11.386793437659216,2.1643225468689953,-11.880906561133267,-25.042549611782917,-34.61976915455222,-43.27157249777421,-55.748684002550206,-72.01298452572064,-79.61555626497866,-62.608882406701284,-26.400734663326958,5.503618928144112,21.931343060695227,30.600990286846294,38.367902294036966,43.97264652086118,44.599837613372934,42.07076837150179,40.70165187824206,41.5029464280372,41.12837991329161,36.00903907593092,26.836466111307054,16.82590051207533,7.50039401569317,-2.4855362776698064,-13.801848496114747,-25.945923172996697,-37.24038112774733,-46.539400177261484,-59.42729067274747,-77.5250909680057,-82.17724798367085,-55.76365323557311,-13.73427871603541,15.608258338780415,26.919925027767558,32.51348360245243,39.08566133042179,42.576067882132826,39.39994810217559,34.31445650185364,32.68639979067634,34.29566951082484,37.017842862809374,36.094455406356204,26.935174072410966,12.502183486993596,0.18056011325440066,-6.108932295746093,-11.126861642313534,-21.669207572959788,-36.95620549704463,-53.34754548423204,-70.06089874880527,-79.90481990798118,-69.30522315611296,-40.070843977630254,-12.789256074408451,2.0759929313910366,14.775672363516238,33.361913980361386,47.837175096316834,47.827621100783574,41.37846528059582,40.18535905969474,43.15519464571135,42.75189103740796,36.09009558606138,26.436511027514598,16.288890408585416,5.348148836200504,-6.127153894545329,-17.45352021934716,-29.029176260044387,-39.65794146140643,-48.418548129462245,-59.34290651461905,-74.04474877201423,-79.25254178029515,-59.06183193816767,-20.85890879768955,11.539152512723433,27.34351007925841,33.67790449125149,38.28847447888456,41.441728860935406,71.0,123.0,87.0
17.95385558396026,6.325844568430888,-7.133729946412823,-17.472306069026125,-23.591377729449423,-30.811945262512946,-41.577082317622704,-55.6721407676534,-73.34820816734435,-86.54494885367049,-79.8987169280199,-51.61421925883653,-18.88000997852229,4.838682776143855,19.59593837575595,28.207210164771556,34.037585797559615,40.64205868647472,44.21051546302691,40.271572388975315,35.47006092073867,37.22566650941376,40.20519142874422,35.744092646579844,26.90128540933652,21.162098012427233,17.641821035804956,9.176384063469508,-5.702012551758667,-20.81663689745382,-32.14166791454461,-41.3501944592837,-51.855290637702566,-65.55705469868265,-76.28915040284504,-70.02765339949745,-44.37964850324731,-13.194248313702778,9.966622225150518,21.3651820209849,27.70387358615538,34.45646905034612,37.40481748571016,34.55893963307871,32.34505000196032,35.15363031977535,40.46860925449907,42.42987797129448,35.97222271347973,23.78312813982766,13.716899753464318,6.111595370773332,-3.145320435424228,-15.207935143904594,-27.70388642140617,-35.98676516831076,-39.845372940477425,-47.73204917523151,-64.95153135664111,-78.1970429385748,-66.44406623995286,-30.52135300788371,5.393841548210565,24.653646666272504,32.586178909660184,39.83968241577837,46.75085212032833,47.82909045493409,43.19270119546766,37.608259459669796,35.33100750952112,37.37292465408186,39.785694342998255,38.144585393265274,31.32732785214911,20.696094660729525,8.590582807723106,-3.237357977842236,-15.305770652806004,-27.13645917753807,-37.13712197124199,-45.75800487069514,-56.2827423674348,-71.51789861641502,-83.97440705740459,-78.3038717786618,-49.299886002914405,-13.070135948244356,10.24454169101704,18.88447036606389,23.55842820041673,29.65834774269339,33.512344363109314,33.44657491449065,35.97417578215021,44.12647715776886,50.06293217674824,45.153942997184274,31.970667131684504,20.35358373878791,14.688631413837324,9.403834619134761,-1.6231254829375614,-16.007241978335482,-28.144794103997,-37.00154402673145,-46.31522538692391,-60.34147629484212,-75.95248227930081,-77.556441007862,-53.175523693396514,-15.783556629352145,11.707813660923494,24.757164780453117,32.87945862423521,40.37466083343236,44.69733563742444,43.98585437672412,41.42017517777126,40.79250131505816,41.722557690438585,40.20037533515323,33.6379836701088,23.90333663388457,14.083086713825223,4.759998774884258,-5.6419666680436515,-17.253435684210878,-29.425557452379554,-40.02149024033297,-49.54291390945211,-64.54711720463887,-81.44307188078959,-77.74463115879098,-43.80259700070246,-3.1519642370180203,20.292288338159345,28.578098036092964,34.35557761430818,40.698423380108565,42.280937280014285,37.78738351910892,33.41805947627974,32.896629722343626,35.105018324026155,37.41417986423701,34.32550400686359,22.996695847726777,8.415442224255365,-2.2100808170557635,-7.310266694842914,-13.474729269479662,-25.80678451723291,-41.63316280844426,-58.235086395508716,-74.22906014967714,-79.3552756035622,-62.026577067828256,-31.072016523109397,-7.400108925452547,5.316235474480455,19.668907291345956,38.69067579875273,49.30610113966845,45.95027301633103,40.279060769595894,40.94887304673772,43.661049267353974,41.39450987587886,33.42474576762148,23.54358245167911,13.231880837090953,2.0358975034731452,-9.402074466923091,-20.77694619420386,-32.297438401581495,-42.304776529466494,-51.09005945168423,-63.47770649304535,-77.43631872617233,-76.27302769691414,-48.86105635029322,-9.990666966267021,17.708322780194486,29.668039311950903,35.05690888754355,39.44938398639208,41.78806436618672,40.748891438676154,37.42532620155638,34.92947753625767,34.8240648669044,35.51588578364096,34.17035784245793,27.88724848803909,16.622089227347335,4.441078164230655,-6.10139092682974,-17.044273230812035,-28.124116118642473,-37.99889995521255,-52.57434500372105,-73.19857914022727,-84.41723121535416,-69.39896197793878,-32.76092422547247,1.456080833132419,17.78094152183581,22.618569285232574,27.792714856439723,35.43652284600606,41.258174734008165,42.69150347315456,41.608863302935134,42.714904712815766,45.50770574833777,43.21549481916861,34.215665489824026,24.041401250721435,15.175888643803878,4.53874278077599,-9.460703786212457,-23.295245660364547,-33.347056113803674,-43.114232111290825,-58.54616150076463,-76.20028534520306,-83.51494627910182,-69.51027588848093,-38.48328879875387,-7.842770952189438,11.697453548814202,22.662515223301746,30.936022262233006,37.92359026688229,41.11626551125844,39.292776013812535,36.291747057099975,37.705446998767535,42.302783631416915,43.0075957348979,37.564338622383346,29.047837078735814,18.989244582668796,6.6652508477531285,-9.07285953903117,-26.538642087925762,-41.62308700107352,-54.533291770060515,-69.9223267646953,71.0,123.0,87.0
12.784455402435327,27.534494084538405,34.50079782081048,42.128860498603565,47.80922890396196,46.89392130471255,41.45613884160704,36.47517483489328,35.570812165032386,38.277623834722846,39.83999511105063,36.679225769517494,28.553847533552474,17.238440518807842,5.12972410841439,-6.659251810342355,-18.842446018991488,-30.234099720940918,-39.6936023050811,-48.38052740418538,-60.27986915062352,-76.04775805634107,-84.8041388399038,-71.9782357243951,-38.49850092900503,-4.5054626285506085,13.830892327109165,20.199770587575188,25.2188024233914,31.243969294999946,33.710089454407175,33.578391879101694,37.920411061265774,46.57901861759823,49.89532456115828,41.78612047394632,28.061622386858044,18.197175671400938,13.508545352666928,6.8679600679204444,-5.71195261600296,-19.90645352247559,-30.94116641865551,-39.414511974491795,-49.797797850211,-65.16932444727395,-78.71320554561115,-73.12220619493596,-42.578045843023425,-6.151843718301143,16.60263630621387,27.23046096171084,35.15364629722428,42.110788651289454,44.95770827182902,43.21597975637699,40.96122627037217,41.042187440086224,41.72666613541058,38.81470330366562,30.996175364541447,20.98099121972196,11.402374918747828,1.9103015192870516,-8.896756183965923,-20.76897828484539,-32.76054267694271,-42.64850469729076,-53.07066633642463,-69.99854181034081,-83.54968124591076,-70.5080104400679,-31.29226900391738,5.779867045284246,23.643806418389197,30.112262457317534,36.30695494116459,41.880239221522885,41.411954840713136,36.21429298848944,32.88005325910874,33.333901792984335,35.951989427986675,37.34406473141804,31.803675773456423,18.774039118923337,4.696781747627369,-4.0718905770860445,-8.612978226996407,-16.405379675929783,-30.22976717070012,-46.347324960116744,-63.149573759312865,-77.52107254001666,-76.7640698167725,-53.50628145531566,-22.829764284386325,-3.055304044999596,8.77538770459601,25.090555751790014,43.253610904766006,49.46097428290057,43.91545208781939,39.81507844698548,41.893888033390674,43.70168668515926,39.525362914118574,30.625489188057344,20.628440370894165,10.088092342802677,-1.2928538038945765,-12.662986057125762,-24.133571217486235,-35.427979912181506,-44.80297107670002,-54.106347601356845,-67.87060720524596,-79.53469708542067,-70.88866205739318,-37.64788346377714,-0.205958145213762,22.46391591606196,31.485614749934577,36.404007440778685,40.43329922973762,41.83680015277165,39.905550620378044,36.48361329078001,34.67793255695038,35.05912831207517,35.47217811086978,32.95771816767371,25.01424758304155,12.990427126394158,1.2605981253345995,-9.119324091246849,-20.378078962363045,-30.971768829682865,-41.3895564478394,-58.30260652630373,-78.35934157132304,-83.10119992833717,-60.14457215849766,-21.52412547076056,8.075604656987723,19.736545250571854,23.768439531083793,29.902525407209804,37.496336157525455,42.12676393334956,42.44068597612242,41.542630127820395,43.61549855627151,45.626818335144435,41.122745244046584,31.14530873708476,21.426862826220788,12.443825935534862,0.7745623907108171,-13.717827400244047,-26.59005913421754,-35.86924478713929,-46.89766000894882,-63.878750942910074,-80.00212473570474,-81.86071188857562,-61.608479572144084,-28.842634658689875,-0.9721285256025549,15.445546471796344,25.160242172260602,33.159789189132326,39.36480069197924,41.03885820113335,38.25782127459476,36.11609405279784,38.99558082920653,43.17169980273194,41.95828792709175,35.294023289214586,26.300243122331118,15.729320946012171,2.4747529911293022,-14.12438989058418,-31.26817104843996,-45.39654016114307,-58.532650593485826,-75.18726934090861,-92.63929974006209,-95.16141634947633,-70.02732610793625,-29.00868136265793,3.7810265722098046,20.886575970386144,31.68111016461468,42.102402777355216,49.72465666757392,52.09771151191962,52.80502530575149,54.49328391249381,54.41303774191332,51.434230865514664,47.17812183610312,39.9007476970559,29.795545616938764,20.661594914935314,11.510224882066279,-3.1364446713909553,-23.856177150899978,-43.5329805008954,-58.770298269907315,-75.12018196936987,-94.06116661005267,-102.58426801778221,-83.87458579234405,-42.22720956165987,-3.1294459735448057,18.508230586936577,29.526205742379652,38.85864762926159,45.524507086375735,47.855854662613226,48.51389450842315,48.679471219928125,47.52968533939853,46.512075613480974,45.77275675808279,41.313113761474824,31.473176717788807,21.023447773747414,10.888273184839537,-2.9209531757987124,-20.249948702691775,-35.27528706849008,-45.08894811274258,-55.25837439071182,-71.02405255966548,-90.61017466222788,-104.50755300254046,-96.03978643696415,-60.941226118753306,-19.39524085564368,9.64006965797073,27.819221307889844,43.09553611189674,53.80967057620253,56.10678407940822,53.633429837931025,52.84503103870473,55.68377402534365,71.0,123.0,87.0
