-51.45045574057538,-1295.542075511656,-1650.6023410793348,-1419.2640014458677,-1236.8680415501274,-1201.6865063930338,-1123.7592200405445,-941.7417034460314,-738.6789078030702,-587.6978902975791,-492.5349643112334,-425.48427645164577,-368.3271209673201,-316.8973780888315,-268.35078962332784,-216.0357218372155,-154.0539441064417,-83.02458464087306,-12.661129474912272,45.400635582686505,86.66057605476892,113.43684291613106,131.63172476337118,144.5430950507393,152.54732575146912,158.64271986577106,163.8840778241875,165.92755606973375,165.13054682088318,160.70931797869872,150.014638512684,134.9143787225063,121.52718537556636,108.53620808435114,84.68560424798285,55.12168688952343,59.16599400909758,125.28629198516063,219.1698652521403,280.27457309329947,286.65382316939974,257.73084299080887,219.24650917868917,182.9702335972048,149.098197604696,118.94362007194623,100.27428387526737,94.58543704988207,91.19573581127798,81.4200068277514,66.26236925312284,47.176072117671936,21.326658121480037,-9.802644867759629,-39.652199203955334,-65.83051214393383,-90.5999919777792,-115.12170106733537,-137.75982692945104,-155.9008892484686,-169.81936883957272,-182.28242719001466,-194.33320285912012,-209.29414954098914,-231.11311471490748,-239.7191426369051,-191.19088017851672,-82.65486355159574,24.68239059814351,78.59410822199767,82.94087653955097,67.98023268482815,53.13104743831248,41.35271128129542,29.456545763283565,22.05719191841861,26.813511185900026,40.408755163774856,51.99696785946418,54.3015003294363,48.432375271875145,39.95311854963219,30.648263989923663,18.22198912698985,3.3265233134050027,-9.181615519409453,-17.8985040645916,-27.03090661084989,-39.810970585317264,-55.006751893101956,-69.87501572093407,-83.88734823873006,-96.38412923716166,-108.03852054908978,-126.15001588595193,-147.09037215055764,-135.67403544489548,-59.13749934168186,55.28205701777976,140.80186620551476,165.9268275555078,151.5905718969507,129.25351765390843,110.142905610151,91.44439190324063,75.34915071629858,68.3171410316291,71.259214813825,78.76909824460591,84.05599492095081,81.12737766959157,67.050410953694,47.048303348575445,29.29372660140193,14.345160903937362,-1.194070481697076,-15.676813029546437,-27.834411016563536,-41.93008787226835,-60.36743779679586,-78.89993949549005,-94.68843122778905,-111.38883253662,-128.47408431159545,-141.52623082245515,-156.521496078701,-179.50807877152542,-185.9529667381974,-132.808182517247,-22.302161538141032,84.30606858454459,137.93388952405223,140.17980886134973,117.92783291492175,94.3177701237538,77.53704381412803,64.1895597845431,53.635674807525994,53.17611546450787,64.20461877360013,76.20744616340572,79.186755365879,73.09294151679363,62.58895918567233,48.09355632212991,29.03089488949449,10.894094576523212,-2.86560648207743,-17.067264059818008,-33.62958895944121,-48.93879659122813,-61.27219038065286,-72.71549936223533,-86.42464755155135,-102.55926010044261,-116.97333147035188,-126.99576134585725,-139.83606399943747,-163.08669868163193,-171.2018628787099,-115.8752567292392,-1.031110693585363,106.25255352793013,155.41548473086686,151.60544337928167,124.75402531348293,95.0992573544893,68.01560854757533,47.31504158321617,39.496629523429455,48.6034971241159,68.93220621506282,85.03585245720019,84.42879650299082,70.43446318181817,55.00927825768063,39.330645580379525,19.737331199675133,-0.12483810803649802,-16.301869254963187,-29.684115048786655,-42.66834257411968,-56.61962375788057,-72.82607638939402,-91.33735268547073,-109.2740156545118,-121.66629849758914,-130.4521598340816,-149.17991469497514,-177.216068347163,-174.39198314746,-99.52492959209015,23.083910603869434,121.03534265527425,156.73794662276202,148.59190918220781,126.698092359818,104.810666941246,81.43579971644945,56.74732308386334,44.5126472770462,54.42756027370337,74.63767835052201,85.7967030605198,82.45644453980269,68.63592187956961,48.58185868778988,25.959415579153383,5.300720023468002,-9.432087428787202,-19.770203928441667,-34.53006033553765,-54.84689558617859,-73.9780111707508,-91.93410462527918,-111.80116086498133,-130.64198788402354,-144.07021022824927,-160.15068108097435,-189.31671923032386,-205.35672236474974,-152.64649340024744,-28.17178710816963,92.58086874139575,146.73946162327303,144.24564425557332,126.43999452832244,112.59211790336109,98.29341750869139,82.57163533223235,72.55323919228867,73.91833252244572,85.48606016736284,96.44886954544272,96.64493969764227,88.13027562102732,75.67704317595934,58.6980967180482,37.33009359506963,15.935077311556805,-0.7843896050000899,-14.976806447715777,-32.25169616489095,-53.02707929834181,-72.67824097358591,-87.69625781375336,-101.46741784189864,-118.67988657457452,-137.22548998012576,-152.4475391031123,57.0,124.0,77.0
-198.0605907840305,-215.06260756417885,-236.82169290532966,-233.1337598228514,-164.09097827380657,-48.287711489960806,46.599266445119554,83.6551804202994,79.3925484111477,63.285224012035584,49.5786001120009,37.9367532999001,26.420870550693845,22.068945091170317,30.282672443005872,44.41904689194556,53.73573289204857,53.199524475815274,46.056526718561805,37.42130300224548,27.46797745243701,13.983803139180026,-0.7260833592526293,-11.969865489374184,-20.270196988024736,-30.326723040113542,-44.0906442184134,-59.406331817704896,-74.00176189946016,-87.72493215814109,-99.61695307752942,-112.27508936875127,-132.87974873172863,-149.21201834541606,-120.44295289181653,-27.098444629999523,85.52754115072028,154.05932370530337,164.24056282431434,144.99710254789798,123.45962604600307,104.78563605718261,86.21850621048311,72.19215322929361,68.30187293954735,73.26964407003267,80.80788832396419,84.2857812308367,78.15224778375647,61.45718229245173,41.47780830583381,24.87182236191498,9.954783176478683,-5.651930080025709,-19.31125571341409,-31.48314142718718,-46.88982208433024,-65.98358531078804,-83.64214769902652,-99.26733675449401,-116.53434631730839,-132.66673487835396,-145.11207236735365,-162.6649563449436,-185.08125815531855,-178.03516780982838,-104.73547790321616,11.981678449058009,106.03864876624762,142.83323314333998,135.0123548020354,110.57814213436436,88.79739979200026,73.54166818938963,60.60723730566122,52.15008284886258,55.483910589619,68.16378780244371,78.18870208079626,78.14568004320536,70.3751857099894,58.91325748656532,42.92545547298977,23.372540385947975,6.58412951292921,-6.678687937662845,-21.733038467450296,-38.339516171990205,-52.77419719054301,-64.51434031270023,-76.35150378335953,-90.95256379193007,-107.13560423086712,-120.22830266091316,-129.83851605430075,-145.72100128813472,-169.23738700143983,-163.17047314463505,-86.4831479356457,33.996090220133915,127.14332807271376,158.50979011824253,144.96859273052462,116.05405779646082,86.91834391368846,61.10668225412509,43.45290711312948,40.39419935831665,53.9022422506941,74.76311742686894,86.78644637666274,81.1961231131403,65.7846155361427,50.75988565732024,34.03640898624932,13.766838228648144,-5.218216380064118,-20.337071721599106,-33.4007635096645,-46.545455929562166,-61.025871007003914,-77.99656734889248,-96.80029269632885,-113.58184396235012,-124.11831833203155,-134.23339800512474,-157.37544424387534,-182.04325339405577,-160.66229489823797,-66.00801963143586,56.83406463647846,137.68994895786142,157.37848136326042,142.7018452244633,120.24191469071484,98.43227796074211,74.04454997760377,51.17844327515107,45.21069978080926,60.176446161897914,79.35741592290839,86.19952773538576,79.32750314026042,63.32637815043889,42.125697163237945,19.580089014017222,0.33014620636211245,-12.542564193771957,-23.239159415066087,-40.13971051149983,-60.67365102122529,-79.10050101528962,-97.46131970822374,-117.6445057260264,-135.03360796405457,-147.73253574588233,-167.38583103453928,-197.74880146922345,-199.08476802578613,-121.709284579193,11.086889880024327,115.93821161511616,149.99458148892137,139.1634800027228,122.02082673054758,108.7888339531292,93.63951071777592,78.75741419806506,71.65697518306803,76.52445197814194,89.34080908573982,97.74659437819606,94.77691057289437,84.88627837865128,71.31011397744018,52.85289586601922,30.88353462062159,10.552271587436332,-4.863248029107254,-19.500580644442675,-38.04245538547386,-59.06618401033729,-77.48435466426388,-91.51394661923909,-106.03926846295991,-124.14951906045596,-142.0413198469278,-156.44021144975844,-174.10545716994014,-201.3046265914013,-214.10844273640316,-163.44789800546974,-41.99561923554435,86.55606087549393,155.6639420792843,161.08690579543565,138.94581779972185,115.71588725561084,97.91692730536822,83.24442201241995,72.63832531469649,71.73740591478534,82.99477487611428,97.44698487777386,101.78407302413146,94.48844625007982,84.20580384083577,73.1195459971736,55.1428442834848,31.74498925248935,11.50965866212546,-4.090945948868411,-17.60190229444711,-30.783587815235403,-45.64260635716725,-62.71189184947547,-80.85618080855089,-98.84002387459921,-115.59123263855018,-130.7872767295161,-143.2617711750656,-156.36628212006502,-181.353261452247,-208.43723446770704,-186.64990926794056,-81.63498877378323,57.039157335693886,147.18382949414584,166.13451611131939,147.48723600058392,122.45029291416384,97.36362277950364,72.57442158027676,54.66760887966991,51.824626968856236,65.15558226872614,85.09212343529254,96.42222623540775,90.39888574575352,74.46272092647281,59.723480755561674,45.71325587367543,28.344292721755068,7.854330656045772,-11.797743539232854,-27.56657267043727,-42.42947046277887,-59.595420540116514,-77.6898926766235,-97.19535962320363,57.0,124.0,77.0
-149.16988190671398,-169.49408794659553,-188.25635794624267,-164.11371210736192,-72.6922041420413,44.089602939803065,122.65021169830362,143.92479211242772,128.52957421501944,103.55762562617531,83.88486529907539,69.6821605149227,57.347000164553855,51.73150822899185,58.64806626662433,71.86010333666513,79.25470338441339,76.4479175938684,67.39859093939013,54.84535287492435,37.40422001287894,17.994345901381976,2.625499728993521,-10.699156773643548,-26.55219322748782,-42.83963145532877,-56.36196948161411,-67.76424344927493,-80.24553315194618,-95.6444918446966,-111.42587124203574,-123.10655056965994,-133.22932209472904,-152.5626003693811,-173.00248780820317,-148.6906605676588,-53.09045045836772,66.42126882786535,142.49998014660753,157.79421633396137,137.1692824122477,107.42030680070415,78.98720821649557,54.86829296769299,40.83258935567878,42.75953247134242,59.86734969879054,79.80954318345309,86.93140038201352,77.1243203671785,61.285366079716106,46.352691108992495,28.38600631938005,7.928776274433028,-9.95497482392679,-24.202328711868432,-37.13338109248654,-50.52902678969178,-65.65414953441164,-83.34194139345054,-102.10720779093116,-117.29656461915197,-126.44569699025374,-139.27929271049982,-166.0054431193247,-182.903716405527,-140.23500158893987,-29.94665152176383,86.65310390528809,148.90962816188545,155.192282909271,136.2922210836271,113.93127296375405,91.77766803478292,66.67370849455284,47.10993814840207,47.823132195434304,66.26936642539262,82.91702958455346,85.43165329416323,75.44553089366022,57.584150484739155,35.54808791923621,13.482490500427144,-4.05716368658343,-15.419331987287258,-27.33392896533121,-46.07171958890914,-66.25029513458871,-84.22348069264585,-103.19759079691443,-123.24458118971481,-138.913043564565,-151.99641910549596,-175.8692936480432,-203.8905698057321,-185.66720505003062,-85.65516199609748,47.65779834214422,132.85995161977965,149.4488542102674,133.79152083177445,118.04099046761583,104.73658245511427,88.9763598794662,75.61768791369133,71.81177011546143,79.86710781582224,92.78488421965018,97.9957954998837,92.35541967665485,81.37359049373177,66.50960589222957,46.68684812860726,24.580930759446908,5.645609915029106,-8.877343704789796,-24.398315888874716,-44.06688127398594,-64.86677253044239,-81.86461989241704,-95.39018473916451,-110.96641096468834,-129.60284985739563,-146.48185265559943,-160.68320824403477,-181.2394168964993,-208.58978031925645,-207.76879308869658,-133.86228890876203,-1.8581738802409418,114.14953124500597,162.40427564844347,155.91832160429607,131.75353663240224,110.07252496232266,93.4426242070615,79.55797914615303,71.11743759309117,73.8962596623367,87.50713422884091,100.1174476367313,100.54712582359929,91.4810947454715,81.31448465285271,68.8358422958137,48.541324648901416,25.32637676001596,6.6486162185988125,-8.126018101100764,-21.360819983301063,-34.82843560656281,-50.390162086058915,-67.89255950820356,-86.13383212499285,-103.8226206999183,-120.17242253505881,-134.7145983414798,-146.53002092171064,-162.0170916080142,-190.5852369332933,-209.85118968328277,-164.36473224538284,-41.00137813357887,90.60906379634767,159.05132491521175,162.74631457737772,140.25530587539296,115.27789196203814,89.99364341201655,66.28700199027848,52.05007768604087,54.247726945026166,70.88253108197928,89.88998904164548,96.44072718590485,86.17699408617827,69.87955035263,55.83325255012287,41.12106410654509,22.618656099549224,1.8767756714366197,-16.743196282589924,-31.71059114857026,-47.17809243258507,-64.77033859038677,-83.11397931063028,-103.18369308675551,-123.58298421018222,-139.10018304078827,-149.87620598168303,-169.66016953575587,-199.12575599583747,-194.3964093308284,-109.41984389190762,24.872009737300097,129.6905837937979,170.77865454542987,165.50984342622186,139.41225315033336,108.48639756766121,80.99323444937714,61.09404410180501,53.34217119360885,59.29621148784783,74.3600474930612,90.45111291969395,97.2819374886193,86.60299149420084,64.34581491738554,43.13098647091138,25.983885172426255,8.562149690310783,-11.911987381365542,-34.53409105936542,-55.98659471698447,-74.48614709880441,-91.49739554736723,-110.89587970159845,-133.39716940981924,-154.31333230803656,-173.95403842403363,-200.5758316569315,-224.13280317931736,-197.85883480047036,-91.38903982946186,47.20922997257783,140.349982909514,165.03327617784697,151.2570376218546,129.81545783861958,111.0283888099397,92.9348623645751,76.08230328587413,70.26956035305814,79.30310140445309,92.78167973891371,98.91701852817032,94.50745594876072,82.23788384504616,65.57653191799402,48.9248917687671,34.2399719892921,17.04582095387582,-5.441382607201504,-28.561055455482034,-49.45596800210256,-70.38791020878024,-91.1778599658901,-111.545414925269,57.0,124.0,77.0
-129.04175647215118,-145.7456595483486,-174.05237296448803,-178.48955253373273,-113.60244112849102,6.618892513740521,111.45747521288502,155.2485311783029,150.99990494318976,129.71866809158496,107.69641407473621,84.77455827490436,59.70252761403778,44.872626331757914,52.053205717605366,72.14210061417086,85.18839998640742,83.61366743029595,70.91596115795568,51.48828970799642,28.964057910671812,7.77403564350501,-7.85868124171093,-18.33393964334299,-32.11305404135864,-52.09525626093774,-71.58284223282271,-89.45897940781566,-109.07631191964389,-128.42807997979455,-142.46225968786905,-157.28155622528212,-185.07710664047158,-206.10310325062747,-164.73984316052832,-46.56468032684387,79.7024371982348,143.64124808397196,146.28104637039544,128.65261475200813,114.30130716163106,100.3864482258821,84.50820355610716,73.30568397678678,73.02118174473433,83.67016457701702,95.50433249503735,97.26864624579221,89.5352555749119,77.55577193516444,61.262344504790796,40.30727414623588,18.5720378572569,1.1668192129538888,-12.999115846689016,-29.688183177847275,-50.200858863325,-70.31100398894915,-85.90759799880674,-99.47912504500164,-116.19518257959884,-134.88514404419405,-150.60858896168085,-165.4958926508126,-189.21749145274188,-213.65125563043898,-194.8629772651262,-98.9597449532136,36.75479113549081,135.57846724371265,164.4347181363853,149.42705549421487,124.88481726484655,104.88289485023073,89.15075113585071,76.3012078453884,70.57313919262012,77.05330207633182,91.93369287812637,101.65857071275433,98.4715044330069,88.46818684809517,78.27105066161371,63.801884905425126,41.67770344512588,19.363555580737575,2.1119140928014155,-12.037467315357121,-25.13256884217633,-39.06730551589612,-55.30496893827218,-73.13574236065365,-91.36130226025283,-108.68823739006615,-124.6178566136599,-138.3617835368683,-150.04126146443784,-168.99148034091434,-199.3468836808935,-205.5610660215889,-134.8986382636982,0.3088191586027509,118.34498244906511,165.24111449572626,157.32490867914197,132.9781582571018,108.05883441194906,82.70844467924356,60.79396368666401,50.869387869868376,57.947024762569384,76.83080539779725,93.57809047453271,94.92824682186857,81.4799323123202,65.5813599733499,51.87448753384493,36.17965713703972,16.683703548791076,-3.9055334862878395,-21.329969696317814,-35.92392475478356,-52.13266717468763,-69.97553704295105,-88.70491920365684,-109.23162178051263,-128.8011728039114,-142.29694249142636,-153.97649427152197,-178.25057024839052,-204.07619648944893,-178.543469305687,-72.17934832980235,61.02964533021558,147.92820936571883,172.7447136428341,159.22617053132637,130.4814052175894,99.9822180118824,74.27593771544788,57.42417875988213,53.75009212952328,63.037141732904075,79.30334847144671,93.88965545510737,96.05765069797484,80.74298339305341,57.7327560887194,37.912374498694895,21.16842604125252,2.99144323338106,-18.357922610504822,-40.99187985831607,-61.631795896398955,-79.40391308994836,-96.69963320392671,-117.23062582584085,-139.8061712163975,-159.79013140752375,-180.6944906320136,-209.18847239868094,-224.11941173545642,-174.76848918709186,-50.85575915834918,81.22664149076269,153.73979476012755,163.28008529889226,145.03641414082983,124.07818860164343,105.89672894896643,87.61526228623931,72.80950706795713,71.61259571084115,83.37154026769004,95.63379481431566,98.65128966904557,91.62301912967582,77.69941782555773,60.56873160016395,44.57266418046768,29.802456517858346,10.98232875887826,-12.314785938574017,-34.764554814136,-55.41672235052798,-76.5022778931926,-96.99211079173114,-117.74337791681664,-139.5298037044497,-156.81764054413938,-169.95746873252028,-192.6409931585891,-224.59920612840597,-218.84236925277904,-128.62461336602095,10.135011211825885,115.16252779541692,153.96849312501283,152.36107336942024,136.91146556172717,115.49958147231426,94.43246476670222,81.20398735709016,78.7046989114698,85.18582549403301,95.91104816004425,104.39098868034694,105.58998157383408,99.09766571194176,85.74857685487795,66.08987751165327,42.49345818710162,19.449933647636662,0.9083947443408878,-14.971105095554682,-32.41719005619538,-50.96159958146779,-68.19289396180802,-85.87760586210496,-107.82020151092642,-130.43342153436717,-146.3216008998944,-156.92840205547608,-174.23213594883856,-206.8830892053105,-231.39879465840693,-192.34411949937277,-71.54331767328931,66.25931181772056,147.67670746280373,164.9603658292752,149.04538982665005,122.93006410907776,97.08946919788144,76.49251957261812,65.95728364847798,69.9319601619431,86.47829953983333,105.30114762244855,113.95427746705028,108.92214190148316,94.79178661693214,75.39209155872422,53.50502824670246,32.47825579805796,13.653964259661482,-5.541759441434682,-25.220029864594192,-41.773502294171024,-55.00585832165661,57.0,124.0,77.0
-154.58721363232192,-171.15825193941066,-197.55543744095706,-215.07085664619552,-174.95384496200742,-60.4280873258624,71.93085682476736,150.71519808243517,162.79164911000345,142.29975635179196,118.48911689616546,100.0513821485457,85.05256042598913,73.62803626085409,71.11148080851495,80.99546073695291,95.88323594653411,102.00924901257855,95.82504784873188,85.53461853645003,74.86786157581943,58.02491942355388,34.82890919769359,13.883432607916955,-2.178426671854437,-15.859847029643692,-28.973257845533524,-43.51911265599352,-60.35075181096226,-78.41697875965612,-96.50418506305867,-113.43912021673746,-128.89004227494206,-141.7543850350512,-154.15881178847124,-177.22905782245297,-206.28548253551588,-194.3527553407367,-99.47451373232168,39.92965343345922,139.59869896607225,166.7275044765329,150.73544120619755,125.75960135749429,100.75571782551292,75.67590820739568,56.32504674531787,51.181786627993546,62.69409360916971,82.60219904034068,95.8789564711529,92.07946775551059,76.65495298539786,61.5338986068122,47.72074294338393,30.891090211452607,10.642402810276876,-9.38967672578785,-25.638804601907797,-40.32180417416638,-57.22269051823296,-75.23442314443251,-94.47739744441155,-115.2256473970228,-133.44966379787036,-145.22872369758093,-159.30326818450195,-187.3318020242819,-204.60207130685558,-155.25011256739796,-32.57381629418357,92.83945924968556,160.72327151449983,171.5541779285456,151.73639003954187,121.44911473772748,91.89516225681388,68.28397245355274,54.89080242340225,55.28125569899172,67.3714096110806,84.12715124527097,96.26528329055392,93.24417456839295,74.24027596633422,51.478337038479175,32.975087509892596,16.20983978647795,-2.869137516781337,-24.923194636695193,-47.26214469114091,-67.01819739912186,-84.26483575481105,-102.21140455452529,-123.77274873023677,-145.93090762808075,-165.29039193477732,-188.2660397741559,-216.9499404281797,-218.45271244923484,-144.82506803503358,-9.654722594474881,109.75708861574016,161.61136980977284,159.32316043708897,138.72368029448535,118.63226288685416,100.70114563776443,82.52025986127023,70.76464946088714,74.12833648319454,87.45387118177902,97.64450817219819,97.52572351215795,88.16489425866227,72.88131874393497,55.68486507492881,40.373819711043375,24.982978211522145,4.494723947830708,-19.07421576956439,-40.78914396352073,-61.45460939542229,-82.54380466936266,-102.81821273397117,-124.09593660592203,-145.24050493552573,-160.61231179669926,-174.8683965033874,-202.07573757897174,-229.78583238667267,-201.72879676054887,-89.79992899201415,46.86446408697747,132.68099751684775,156.05448378149535,148.75595547145272,131.14296351708973,109.00298194195422,89.57032062996001,79.38601699731687,79.81788002960799,88.1165203415793,98.88400476931615,105.58876380812474,104.44333636200288,95.94095316775909,80.65237761157888,59.51691585162207,35.54217334872413,13.579092620975171,-3.725917632235392,-19.76338337276313,-37.800732382613226,-56.10179150690157,-73.05052577475553,-91.73907109895043,-114.66763495001172,-135.88851540047546,-149.54860038985382,-160.580489169633,-182.27049912458017,-216.99639155855084,-228.9611943993307,-164.33068217145725,-29.387663313240534,97.27477673093736,158.0674454212772,162.42972888180475,141.92949018000536,115.15677273222232,90.42377985847173,72.1606785790485,65.5358103379352,73.73424323316063,92.2945839005618,109.23463565833421,113.76950581300896,105.54646226419365,89.61854502741977,69.17741773223908,47.20666561611263,26.875313925376574,8.272335490898836,-11.335052066625222,-30.42896123555589,-45.83733396148292,-58.60885245687871,-72.21123744735704,-89.34262663770416,-109.08585431258507,-128.09442173318894,-142.7505507338724,-153.95455614431216,-171.97417876394746,-200.02172364498944,-200.32883396428187,-119.88508003407723,20.013049923954316,130.7426686459395,166.22881426292972,152.94412748719563,127.6373805529579,100.38298996956422,71.55024898649123,50.83121930611374,49.53317834331835,66.3508589317032,87.07566689083075,98.18004206099772,97.25880155289997,88.67121343724972,74.75170399847238,54.29160653027946,29.16071635468235,5.336155589999638,-14.013268564235135,-30.669276045431843,-47.21281096135801,-63.550407178841255,-80.22775378827647,-100.00564523678922,-122.76280750951048,-143.76552542559938,-160.73198048832919,-183.0508863363864,-213.4286487462423,-210.33840602839373,-124.09213741353828,17.16139855608883,126.75407929474929,162.3156167263168,151.36200889995646,132.88712445999138,117.48174183142976,99.01884417976721,78.66783231103639,67.63561347816217,72.2213786204234,84.59112642652646,94.70511675802368,97.06675594949715,88.377841454585,70.39222054937963,48.69408796236874,27.323233682543986,7.450518857072976,-10.56235687344578,-26.086337739335992,-42.067719000049024,57.0,124.0,77.0
-100.40987135031244,-121.02182128543755,-137.45948428586874,-148.29077462816872,-166.06881843289028,-195.80876089152272,-199.20401521891554,-125.1903131715406,7.129301972027011,119.36651532363264,168.60907171311558,167.87742624110828,143.42674674012537,112.5217730398562,84.30418003694868,63.14213905160107,53.55250889076458,57.82380985002796,72.10154232631594,88.58958641903466,97.30812401190197,88.9833065903887,67.46757953364462,45.66422787334125,28.18233320646897,11.035009800957875,-9.003196167564479,-31.513811049284183,-53.293844282329694,-72.17379135941988,-89.18019646676316,-108.07548618593171,-130.37660193862234,-151.7331994829878,-171.0950303765557,-196.58388925191085,-222.62063548556932,-206.03551185855179,-109.2277973385413,30.00038896709046,132.14261110184378,164.83544814111883,153.99146267768828,132.56474150429747,113.40023391470174,95.4015589654782,77.93591496225008,70.10074480573054,77.53059392439977,91.22483842163898,98.7319280746244,95.62261983262319,84.20828537376947,67.89685856878462,51.00441436171956,36.20063081214798,19.671985135443823,-2.2734134579095753,-25.623509665912582,-46.72399618767908,-67.56159670283179,-88.47710243342043,-108.7522493862161,-130.4883967944634,-150.38944666400326,-164.2128682891567,-181.03431237369549,-211.94196942863869,-230.13708343855006,-176.89171483835054,-48.80874194148369,78.82551944524678,144.67822003198125,155.72354133938438,144.39416129099587,124.961688253,102.73864789566888,85.51943657045057,78.48007080235644,81.60363937585251,91.26404443330499,101.50004142088022,106.09335755872213,102.69131777834812,92.2140107641549,75.05464065877608,52.69113509159555,28.7705577675624,8.149604026028642,-8.258205984120458,-24.76588187169462,-43.203673528663295,-61.090607367304194,-78.04784731308378,-98.03345891383672,-121.37051238859213,-140.6307819834513,-152.49125156397193,-165.17241233739432,-191.6847071335949,-225.4030366789313,-219.6786216812883,-129.85233903793335,11.874471376252107,122.260391327119,163.6346895767595,157.94846177281738,134.34641671345682,107.5825676302115,84.28347368592324,68.81097337374659,66.40639366003329,78.45613725650793,97.97266511102478,112.04757264335154,112.48301613590762,101.55332749428075,84.06469314281657,62.831434952848696,41.06565350586882,21.447719904150166,2.7646862469421847,-17.099785883685367,-35.291451088219546,-49.66809884439304,-62.28386144437908,-76.76679288844993,-94.90020592259101,-114.83110114276957,-132.88473685249036,-146.06084270105637,-157.87240154200177,-179.75197102890255,-205.75219490431306,-186.47864210101088,-82.04352021086687,58.67284845955073,148.51790690960925,165.38773038872756,145.92552659892988,120.02889896834432,91.98697898500988,64.10841147564666,48.207919838207474,52.99649769866082,72.69316879817316,91.60118075531672,98.99887513802602,95.36700340821861,85.22551489558485,69.54710099022891,47.27290852835306,21.894276769893235,-0.7067338243938909,-18.95470928898235,-35.414989000747724,-51.99387766437247,-68.21887322072146,-85.52867979912368,-106.42329784109107,-129.25851506116416,-148.915635142414,-165.99473555201797,-191.8584938859601,-218.84788450576505,-194.6539425974933,-85.32217160106394,55.51616210669687,144.36722380236375,161.85302712264522,145.73450150273257,128.3321753436787,112.67035685786134,92.93999352643301,73.98886238543189,67.47803246811414,75.5347915748561,88.0428300461599,96.38002514160743,95.73544189229086,83.91119515938823,64.26481968772697,42.38874899392007,21.424039975465377,2.0124299918214774,-15.276723597844285,-30.40642288579404,-47.54688778039516,-70.41960892577073,-96.27838402281368,-119.5613984850823,-139.62926838883675,-157.14442752188617,-174.3642812581428,-202.06954265503677,-233.18916844348476,-215.7162961283904,-110.12011631546416,36.43234211043034,139.1552713316076,169.81476236451982,157.04301853175113,133.68602748616271,113.21704105166499,97.81273455776255,86.73294192645602,79.25636604011096,78.87995110499402,88.88268315923003,100.31621751441578,100.30453898172247,88.47560220304105,73.18385374767473,56.90519349931958,35.381371411618176,9.840723542148583,-12.54842545483631,-29.70982557453314,-44.85355810701431,-60.14006011309069,-78.00089773873617,-101.62331479571152,-128.7091077148221,-150.2845931894333,-162.35436514127014,-175.64958536396864,-204.67079620148894,-235.8097177372646,-214.28463241110964,-104.82114013245422,41.55825773866533,141.16224518010372,167.89968719901225,153.5214545027551,133.14150403693287,116.88481554656904,100.70029265544268,85.5467781742234,80.82245607339252,91.22481867452466,107.57305882844672,114.96819500713019,108.49890536412555,95.08807552378526,79.85965561918074,60.494075458976795,36.12198705713112,13.402344124010362,-4.879645559204387,-23.18726312736226,57.0,124.0,77.0
-114.8626868964722,-136.745423160823,-154.9218211880209,-168.01254737567226,-188.65439271911964,-221.06289592437773,-224.09903205761984,-145.16329925563997,-8.002102618074456,105.08515735288668,151.94691403506712,153.70736825178702,139.40267870067427,118.51264018835555,96.91635921788686,82.35407505829876,78.4449390744365,83.95002731044457,94.46457183840846,103.61603661644799,105.90369563965969,100.36224719571042,87.91761606538086,69.00945445525778,45.72118997413176,22.302491965036577,3.1187963558953546,-12.824048725279772,-29.96656480062229,-48.54117711334461,-65.96436241108758,-83.32085325338528,-104.6802518325066,-127.69772036902168,-144.6703320934144,-155.45602550994008,-171.03627883045783,-202.0199597068437,-230.56114674872214,-202.76593323256452,-90.62978086254014,50.121624381934055,141.0368154358501,165.27759738810983,152.08699271259047,126.54394453662496,100.31349351107771,78.77971948272346,66.57912849882135,68.54328277606375,83.84835736570979,103.16186472646278,113.63789956202875,110.23769734492166,97.03383998355687,78.18976686725927,56.44153912781454,35.135063891328635,16.111402979725113,-2.8917544840541063,-22.71370185399213,-39.8035248826818,-53.341550948373715,-66.12741262861688,-81.65566176814347,-100.61720957011168,-120.41979653548896,-137.22770523246322,-149.1772363793625,-162.72448565774354,-188.2389845121918,-207.6975134927002,-164.78936741938978,-40.87058576361736,92.53187782172454,159.77385605793825,161.6168499372468,138.5756744548109,112.2342267625827,83.51840277067055,57.69063616506395,47.4198114136116,57.77920263968585,78.92776283326297,95.07997203163632,98.87189711835151,92.96362914674863,81.33824592881965,63.75047699373473,39.97444084053094,14.897215720455556,-6.356423407005063,-23.753287076117793,-40.195240799304806,-56.72489744768086,-72.967416938587,-91.16099979483637,-113.0331922761689,-135.4554610575452,-153.74145628836544,-172.09891168255635,-201.15369981059192,-219.89840777717947,-171.1475600738174,-43.694971202716296,88.99911270779975,155.60834741021654,158.66946825504306,140.2302437198772,123.97297669398455,107.42721374824539,86.86990992045408,70.42257421540877,68.63851097365627,79.18888521650167,91.12096999978965,97.29694420037951,93.42563803290315,78.77622743321398,57.972985124240964,36.17740456971553,15.652580501119097,-3.25178812454412,-19.771235585893532,-34.89747457345821,-53.55411836513479,-77.86113697942122,-103.4138636717869,-125.61133097614041,-144.98471994330848,-161.79315609882983,-180.84333992279696,-212.24775917040702,-236.0313028169029,-193.97060697728597,-67.93058678601471,73.36757183348564,154.7704199245886,168.824535506159,150.43394288572347,127.27582480905564,108.25371537494816,94.22573030713008,84.16530345545044,78.13517249376602,80.83690640944164,92.7113211823812,101.81020603541899,97.75855345579612,84.09805805590828,68.74217764439177,51.3611460617563,28.115847938202215,2.790173500262002,-17.93184788878835,-34.15513010346807,-49.19225509138207,-64.86872647818706,-84.17346995848548,-109.41996732076079,-135.91781829921615,-154.55893254303567,-165.28026224621556,-182.1769479984774,-215.28008299499538,-237.79725328404626,-191.1469998065649,-62.239771642426305,77.79143882952903,155.62261035387306,166.0433803689438,147.31773320215274,128.12810898660987,112.36767977461467,95.88603445481688,82.67481188670881,82.41923039560697,96.03068900251378,111.14425391858094,114.34064820125796,104.96522625106898,90.86337612230281,74.88077753400003,53.75877638685928,29.07681432910688,7.796358909653313,-9.95340754146443,-28.94675821565984,-49.65410253005145,-69.2191823260097,-86.902731887201,-104.05796823834969,-122.91230172098429,-142.17357566500922,-156.54174611229237,-169.8778675732589,-195.25739180583074,-218.81709063136734,-183.84083133856103,-65.21737498595552,72.13586369625821,150.85411935503578,163.77599441246926,145.96020421036448,120.89537282051333,91.75431165816244,63.677326135964044,49.94929708921952,55.49563761708939,73.38944853433951,91.34028498042132,97.1949148587309,89.15417870246498,74.94954487465047,59.09985923754698,40.46003829172214,19.70510989485865,-0.14957596819704602,-19.484007300228914,-40.02461836628573,-58.81064279263446,-73.51322593232567,-89.16476839182329,-110.74796441244638,-132.2153087568564,-145.40019256166076,-159.95524043036215,-189.04482925949088,-205.80542121861006,-151.83625142300264,-22.566668501831444,105.41450760300987,166.0492387374264,164.8235648461534,140.2931409689334,115.5869156691713,92.67435109715908,68.65734801746652,53.363896756452235,58.5261176444843,76.68263626174867,90.36183302546357,92.03815500888477,84.04625585628611,68.95745340048357,47.891497692009445,22.031302719447492,-3.960221739305128,-24.625012794871598,-41.40609274616798,57.0,124.0,77.0
-56.944830302524586,-70.22196052697868,-86.85437782175168,-106.41231287722562,-125.7502734055995,-141.1076160223569,-152.36693000615873,-168.76515461791908,-196.57058062280666,-204.1880446387041,-135.58364930020707,1.1017967203945374,120.2407476391332,165.30940560631205,155.95493632890498,131.1064761018408,104.18403951303735,75.22633943846989,52.63012430359296,48.46457709451935,63.507682453549,84.67574969814336,97.45381024610923,97.92975694646069,90.12053283413019,76.95552221912179,57.391671633611764,32.56566829851537,8.260628624395974,-11.662702163224926,-28.489198467918698,-44.99861307967672,-61.40353007043709,-77.88247415183456,-97.13933973059413,-119.70608157056797,-141.24681464085913,-158.48154545105487,-179.32299696951776,-209.93210855586625,-214.97770887326317,-140.37782526402177,-1.6714053834801295,116.37238896289021,161.2804338074615,153.8653519471237,135.10560427585463,119.57990595490777,101.75337587430242,81.11849751595858,68.18663211833878,70.89363699815414,82.91263390694017,93.70779275843843,97.353537092129,90.1731317366054,73.12698593205116,51.62055223586982,30.087110052761826,10.00800130678348,-8.308590268595514,-24.109579529882176,-39.707845253790175,-60.08340047603304,-85.41015462479787,-110.21768700698577,-131.44364862142294,-150.10111842112974,-166.54471483448157,-188.56379316661005,-222.143638042768,-233.09555685684938,-164.50094991974055,-24.446796373698557,104.75517683362467,164.48160098659622,165.21707652451778,143.5652947534131,121.25212163342333,103.71709338212709,90.96851922724406,81.888058898208,77.76772973687889,83.66678237465835,96.29729437254602,102.08956935701399,94.38201803867553,79.65058735574709,64.1614962740252,45.259678005868516,20.65133109307246,-3.8139071417652586,-22.919909100691743,-38.52227919469435,-53.56931820827467,-69.89915690733453,-90.89547936010588,-117.36327688039508,-142.4034527016305,-158.0611455930751,-168.72763796735234,-190.32013705537022,-225.29936928842042,-233.68991388457283,-160.45154916497685,-18.746425972477038,108.2943394655963,164.15731557612725,161.8601981028091,141.26234313774083,123.44838298863337,107.72046156496378,91.2945246893056,80.95232237173606,85.27598015703876,100.97071493373424,113.61900161667155,112.59896770171859,101.08363750241077,86.53458009346005,69.43030310511176,46.673142192237435,22.380279730317252,2.523526313730753,-15.171928639322827,-34.87472294327036,-55.52147728875602,-74.4809403018417,-91.82530228062082,-109.2554059894883,-128.67517951333593,-146.95895568126744,-159.91652736776686,-175.65407623167428,-204.2366148176426,-217.38882921804822,-156.82290825146052,-23.161288127591288,102.68278820160808,160.00501794008767,160.25653536769528,139.0900623013083,112.90366781633391,82.97428086793408,57.741557070613204,49.71692015731823,59.87673381957951,79.18160593573576,94.63405226460085,96.02306400073486,85.33905798997587,70.5376747936536,54.06119601001651,34.53904636296777,13.796459538465367,-5.665359050824912,-25.326885915825013,-45.849285443861056,-63.385446231518955,-77.59759028575347,-94.80874533930717,-117.49450251495308,-136.86736162770066,-148.58052551079854,-166.98873996031878,-197.70420767035827,-199.4991667649718,-119.86819884052449,18.630426059240413,130.91244609842744,170.39283795778624,158.62170083281057,132.78195843319637,109.0162375241398,85.71191918494875,62.60791546207023,52.66521934189717,63.234586335577816,81.70861255772846,92.06413296460421,90.56303181727849,80.35518870611848,63.44961308262983,40.80570444161898,14.220091953498473,-10.564696988616081,-29.65071000299536,-46.193978017626016,-62.88776594767463,-78.78623477595876,-96.69306902700338,-118.1124286420646,-136.45849053452105,-149.2529361284633,-168.4674641795632,-201.6655397364666,-215.6449194860262,-153.53600428080043,-20.31153249802662,102.05410587230776,155.04372306522046,154.26285107936462,136.80013263524188,119.18353163808189,102.97227536836178,86.57439526527526,73.40236038803707,70.3606946261254,78.12804795327102,88.58013552689701,93.77803748377198,89.97016507996484,75.0720735102841,51.04665727943766,25.64795086225944,5.419250746535993,-11.253701202608875,-29.393643940138702,-49.42378727539764,-69.69561402293621,-88.80923512333338,-104.71296523765731,-120.80427070333846,-140.91747070252768,-158.676436384656,-172.98363540534174,-198.807051264059,-223.82253916771523,-186.4716554965097,-63.041447951387994,75.15688295756357,151.11962329830195,162.18983513181425,146.37517189418648,128.33725707473857,111.40254285185874,92.81724813288155,77.38802613626024,75.62041337784625,87.9040736808488,101.9776702272885,107.52665048586539,103.32520623310513,91.62301716288235,73.94064358546943,52.96162497106879,31.105978809562775,8.942415410331524,-9.911380392196785,-22.2913956557443,57.0,124.0,77.0
-44.95688910662328,-67.0725577494483,-92.89309382748394,-116.68399087691664,-137.0893811015498,-154.96962629713428,-171.72614629921983,-197.56233811453046,-230.39179738847602,-223.01621765141005,-128.4601967194452,17.90272244858574,129.80894306644936,169.11659200692287,159.87935683317312,136.75177233802003,115.65210152772019,99.58721863378257,88.0066027117774,79.97808036767042,78.30413995485131,87.146268384179,99.25578293281426,101.13540518694036,90.42625864664559,75.21955089223033,59.29012545941401,38.60960792590376,13.206959469697562,-9.90942838335259,-27.615175381522782,-42.85743818503778,-58.0333640538892,-75.33397796854753,-98.13584470679258,-125.20371196615402,-148.0120048939097,-161.05045632245742,-173.1613593227433,-199.90229172542303,-233.27657655967408,-222.24195905952038,-123.47304466032082,23.275275432189563,132.32427208519192,167.6728167151664,156.31486040117875,135.59784578184306,118.9456664813861,102.93421566164908,87.19286010413548,80.54529318941327,89.16791004279634,105.628985199294,114.84007476473708,109.95524187242944,97.00679855042968,82.02824665646442,63.438828484440336,39.442126888874604,16.12877925833571,-2.558310856598856,-20.60436692126583,-40.89113275890585,-61.22252745604768,-79.6027447515895,-96.74301389329351,-114.66309318251304,-134.3633848373385,-151.19939911232044,-163.46852960839988,-182.78960132225205,-212.2281218143787,-209.3587112913807,-123.03710816703762,18.040946019978605,126.93754706837782,164.2605206790483,155.11854836540084,131.91725862130153,104.52096070025839,74.54629039005326,53.34105872574853,51.06619787156545,65.04501699326222,84.64460965274401,96.65329808731595,93.80212897721685,81.2291015450569,66.01795271022519,48.73458109252666,28.50933288635368,8.032883719042037,-11.203915468492855,-31.286359909698213,-51.395752914583774,-67.62562001769021,-81.95600813638673,-101.01106896611819,-123.93784718667933,-140.714092643533,-152.35459441589998,-175.42568671492495,-204.09552439512248,-185.80069523750666,-82.48161449953368,57.298479185617545,149.81251319789945,170.39035338418495,151.41945177209277,125.56463989178472,102.47676728662599,78.64136723394877,57.69926133859684,53.84380556528519,68.62096026778947,85.95270379224571,92.73324698416634,88.37966642722311,76.10825258690609,57.46461773169246,33.35116606311819,6.571727695052186,-16.631673244387173,-34.471188278890146,-51.03621442689942,-67.54549177744799,-83.53986456868839,-102.69904158815102,-124.07792084557202,-140.44775748421458,-153.3994266256824,-177.09045814534215,-210.36909498885942,-207.195474426156,-119.54664353368385,20.14873339418452,124.98150534783656,158.49536956840677,149.75969790341972,131.50117512792949,114.44756279694242,98.2418444625621,82.12069671383428,71.25578317924224,71.74023633801436,81.31179351861545,90.84257569610479,93.72023603111747,86.83756616507281,68.81121491483265,43.4405635527451,19.18376975618303,0.48515189804530934,-16.213541652974936,-35.0812047544446,-55.29257002827141,-75.45257235933843,-93.73003755152645,-109.04231500757473,-126.29415004684707,-146.69779626531192,-162.64340067942186,-178.733757589742,-208.26547193367813,-222.2667304985249,-157.98810760058845,-20.19049909515957,105.09055609478544,159.45340695966684,158.80037963832916,140.94982685496882,123.48662266574112,106.2023278687977,87.55829607792704,75.13766794526342,78.1352733576325,92.40342638372229,104.66756721988176,107.20484784750924,100.64635644150597,87.0447025827772,68.06514569538543,46.70725059223422,24.667309197750967,2.903813432774679,-14.082478161791876,-25.296130704408323,-38.36546851000861,-58.36692621622598,-80.5341604586725,-97.97727081315631,-111.83694626180963,-127.89476308747,-144.97284177229199,-159.06095668479128,-178.95301751769776,-210.69470259151385,-216.00053157660602,-138.66210123182734,3.0026323978938216,120.93997851188999,165.28971593490436,156.22582799166514,130.51919069175221,105.30265537630713,82.20622514368866,64.94104777568775,60.844259251488346,71.45500306772081,88.7935046031796,98.71034393895923,95.00828421349755,83.66192207539905,69.7155175663946,52.83478895261028,34.75045187814482,15.88518983429274,-6.236364426286877,-28.555113416633723,-46.06750220630804,-61.54973452406317,-80.63752652756486,-99.5311966533737,-112.59463482262615,-124.16757628334194,-141.74754892451355,-167.4916793001488,-199.45936216649838,-213.33721095472538,-159.52619276921087,-33.28420031729351,93.26810349745365,154.62590366928958,156.12194690702555,137.04225781214404,119.73295858954245,104.39859584049526,87.34246272614901,74.98685478889841,75.84052590591492,87.99543253759033,102.79367890362788,110.20427801918699,101.85888941960427,80.0358145463058,56.43655399749223,34.33847682809316,9.281420669679134,-16.41834898834572,57.0,124.0,77.0
-26.266498417664565,-46.905549669361086,-66.7378166174756,-84.61742993413031,-101.7215671776792,-120.27416801780743,-139.7993768420408,-154.94033934335894,-167.63291316671473,-191.13852880422152,-217.6577221208609,-193.7205195924385,-84.20632373476634,56.13255126263189,144.73563194543914,164.631668039974,148.99315776868437,124.45091388796746,95.82215718353403,66.86271983340306,50.62303495970591,53.81687837866456,70.7034772598222,89.4401695237065,97.32744874346905,90.7641136288438,76.9546992809875,61.3335526729369,43.127590219146626,22.46887035841371,2.408568012839576,-16.839452630292406,-37.28125348000262,-56.56638869556351,-71.66749428568697,-86.7627825144329,-107.62573201797841,-129.78253626996184,-143.98250857639573,-157.23079432247536,-184.72519250978246,-206.5033358088001,-164.29935185235922,-41.783458653526225,91.52552748478253,162.29328797955492,167.1326756420554,143.81553582964608,118.67232058909656,95.81468695590571,71.70881742430328,54.32344969187819,56.718704822828755,74.1860860155312,89.21543275027643,92.45604726532385,85.55322879618738,71.33135277310349,51.01604438713554,25.63535512825723,-0.7404300074493533,-22.200276074186352,-39.21614413644222,-55.89336708137141,-72.11105042797955,-88.59702422167061,-108.95049319348634,-129.55867616500805,-144.03907141980093,-158.52476839618134,-186.87894581387653,-216.10422717723335,-191.05452701285697,-80.76821076206802,57.259926208126586,141.45604109545667,158.45578723791564,144.63362875432298,126.36413036974521,109.78697018934275,93.4659262936582,78.09606563070754,70.12124681043127,73.93327991315452,84.46286299114459,92.52470859917288,92.84572156570131,82.73627769793903,61.897501530684615,35.959424197083294,13.246228635517534,-4.278468937777979,-21.402100753135148,-40.8745541392829,-61.16041752778322,-81.05924185102079,-98.34244355289187,-113.55847505769692,-132.14238863406118,-152.00446471183201,-166.49998229155102,-185.9312798256596,-216.7740588391702,-213.64003935565285,-122.69879535579145,21.34862221568022,128.52360248274184,163.08355833443767,154.1497818905458,135.6771282033071,118.65558420595723,100.8115752812272,82.79805448851735,74.28381172197913,81.65884225476482,96.6855985957062,106.48151981405577,106.12384880022987,97.38409462151104,82.0028616518185,62.00275139031459,40.40913177855634,18.211643031314022,-2.712181430616041,-17.694529501782647,-28.479266010613134,-43.47985081455177,-64.92254824799296,-86.20588586668498,-102.06875128862161,-116.11098805524841,-132.99785980224686,-149.27683474965093,-163.50599199540272,-187.53337894302643,-217.86849080618435,-203.38738293650593,-100.90694900044198,43.262541306243165,141.39147767597197,166.34727876324627,149.2928056884817,122.98587065459549,98.3918572651254,76.27783113780632,62.16632874121883,62.56584963633367,76.36690062325322,92.98401306844666,98.91625124255371,92.15733183800229,79.87498187525522,65.13679109270282,47.60707066339246,29.510881029550287,9.837730379261416,-12.954123394838819,-34.17305643910908,-50.41597544341912,-66.65124134962396,-86.49080927673606,-103.91368151699601,-115.69463591131284,-128.4398815655912,-148.32752568820752,-176.45820250278896,-207.40336760349288,-206.56914767110143,-128.36665178097368,7.230799979054841,118.79723388487581,159.5084619157246,151.21082501247233,131.55337990881333,115.37612095381796,99.57756017166959,82.79316122264419,73.73914098663448,78.52507717120712,92.42405558965959,106.15459357409517,109.59447759523721,96.46260462693492,72.9669204226567,50.10486700957466,27.477955173131182,1.6512858482438204,-23.23447693331211,-44.71697727634619,-64.05803255675272,-79.4550407461258,-91.29300402274592,-107.67048595982077,-131.9391787049038,-155.77149316034172,-174.14631310235538,-196.03272086764048,-226.5210117295789,-233.3209292724445,-163.9011411914018,-24.828352921714433,105.15217089009852,165.19967214723033,165.14370951248245,144.79813854465306,126.99202423686175,112.13337189066205,95.4988434947461,83.18567205265742,85.24318225271864,98.10659013245665,109.00252370657877,111.44125945905301,104.63992793708533,88.63936430702981,66.1869794037519,44.65128325237056,28.238330170886226,10.57746990764741,-12.445566348352077,-33.37039061857567,-49.032198370118515,-67.1778439001461,-89.5650439180781,-109.26990787511899,-125.82957498816886,-144.12110006907727,-161.48839696740745,-177.0899094453162,-202.7392164076901,-236.47642892173124,-230.493282811314,-134.50088470301648,15.899840131295477,128.48280494032537,164.98637565489759,156.61998544711696,139.33946390830778,121.79163435884556,101.67527649659249,82.66620899563915,75.94608306055318,85.20691915694053,100.0980885425756,111.22785493214543,115.21217694769692,108.18714722727664,89.78707716280888,66.4755534588917,45.30172400798248,57.0,124.0,77.0
-43.9791243761004,-60.70231732635005,-76.66094352141184,-94.04452443483055,-115.25278493183818,-134.42808986278524,-147.54984296416666,-164.984584387971,-197.10574391951815,-217.16887242729882,-167.07493609127764,-39.492228265218074,89.3054520734623,151.9697743531738,155.97512668534864,139.27709121381864,121.41058321057444,105.13217519997607,88.7186232144415,74.70191467766175,70.0459318972529,76.71652459849349,87.36987352417407,93.54710615727944,91.09121182229906,77.69393896030465,54.53149134638604,28.80005904543149,7.79477917845078,-9.029272979524514,-26.824527894812356,-46.72065522436178,-67.01198903194049,-86.43144953507975,-102.72848302754839,-118.4195964390935,-138.15902950467054,-156.70627086881035,-170.7451086189329,-194.51561712514012,-222.584407144599,-196.9551546623384,-82.53697700522301,59.33352407028667,145.41447867243102,163.10139688757357,148.88222457203068,130.61138531054334,113.73034518888178,95.32784536550311,78.85097254368065,74.87802453102483,85.84982002600762,100.4653684622484,107.3981850422537,104.35583890514988,93.56409370474017,76.56174892693261,55.82992037290973,34.05612093958829,11.827016927138247,-7.780421272779301,-20.895488281479437,-32.06863706181284,-49.20024629327892,-71.45593474501433,-91.34988743619553,-105.99854093446568,-120.69646231564977,-138.0458818890162,-153.2784476951784,-168.84693695826655,-197.0463248986167,-221.29854072967348,-182.69775356680586,-59.3456732405179,79.15573152397876,155.32027472311555,163.93172869028962,141.7569298982288,115.6639461172338,91.63374006859212,71.00908725308713,60.660486087805694,65.46976132296771,81.54863138806186,96.18530431258492,97.99380773178568,88.88812001985873,75.91362357100395,60.28718687342675,42.367916538265185,24.149297628935944,3.470562600372014,-19.531869734256258,-39.30278998286406,-54.77079741064238,-72.14426444889517,-92.11524812262398,-107.74159511333012,-118.88594448913061,-133.3542419381821,-155.5969606944422,-185.88317222619938,-212.85408232648336,-192.82873559263706,-91.91181048303841,45.43694328095331,137.87777115123762,160.23206219912726,145.53843941459596,126.48007119237246,111.02994663240962,94.58387623580477,78.91339311561799,73.73411234368639,81.9910920076947,96.84559004427668,108.64030062375738,107.50424104816979,90.15430664336408,66.05863685258241,43.814010514960216,20.271847171817278,-5.875161548900764,-29.731085285884447,-50.52967601654002,-69.04324001307006,-82.98334206899659,-95.16795476702787,-114.08457829864938,-139.33253555613928,-161.4819719666948,-179.50503563805836,-204.47404324583948,-233.45067113408595,-222.5768979363682,-128.1914019279389,17.57116956106819,130.48824506410332,169.60339063292793,159.8279066686701,139.05750547535143,122.69822172170433,107.49636986643768,90.94659285479452,82.12318576069315,88.4060753378524,101.92797176919028,110.64891662461551,110.43368618718867,100.9282902014496,82.56048735712773,59.50356383155871,39.494269216680166,23.669820479334675,4.300553296865895,-19.11061899585338,-38.19510987119932,-53.67671345627795,-73.48206261145667,-95.77490595808402,-114.12650298788465,-130.8744952290402,-149.49932697680023,-165.83142595768516,-182.89377368365487,-212.85207892003555,-241.87353351612796,-212.50305852841623,-92.59535837785945,55.7055644812046,146.29788827551883,165.1266231346814,151.69798402926375,134.3939141119017,116.2743648569217,95.6395645107865,78.99183646014666,77.2620505356231,89.5026469540961,103.8957804028214,113.2597172507772,114.46736729325858,103.85732095041718,83.17521459626379,59.96018339347382,39.89390221438844,22.595237398931953,5.828124933969739,-10.520284163646634,-27.20634488930925,-46.026464160427516,-63.27303130745216,-75.07941306063087,-86.52118237218235,-104.7330024354018,-128.7642680835935,-150.10697627954502,-164.65482709847606,-183.6621345875452,-216.46360163714243,-231.1549693704493,-168.27127106337647,-26.996724981063167,111.59614018714663,178.57366634219073,176.1681128128247,144.89496453043145,114.6573942538637,89.53957637625867,68.16018071558726,58.78780342181858,68.64573179599199,89.73549928640638,105.23940000539902,105.66266918237443,94.77905247931011,78.93673413232759,59.10924794322642,36.819139557828336,16.140141975367655,-1.2479735661638514,-15.631090575561476,-28.6371551067898,-43.75176711159187,-62.69138739510503,-83.97220237565702,-104.22584872929683,-123.07805870457449,-141.9528157698359,-157.72327182506743,-173.15975386500762,-200.77778906747847,-220.8208788441608,-171.3381865998922,-39.169042866700494,97.57806558606957,166.27235223350667,170.50028330782294,149.46255454860128,127.59163168393593,108.85217018669564,90.34508181197911,76.434879604099,77.08492896444365,91.91715524510636,107.43266264059523,111.06527961025085,101.24201610798775,57.0,124.0,77.0
-23.903964255470477,-36.22923152142614,-55.39804947327774,-77.75689676621967,-95.98588671954666,-109.95618435684024,-125.57347749476486,-142.86434955918133,-157.19244969040022,-175.4409065058036,-206.6153636143474,-219.23129957696344,-154.17432315414115,-16.48570993585654,109.25086182330266,163.33921523477926,159.05374240774242,134.0518066791295,108.53541405719135,85.10335610411663,66.61607242358079,60.480765872456466,69.37968744897498,86.61014846700657,98.20202753046031,96.12672213990935,85.35412502835021,71.73152295785859,55.22058029529563,37.15182340138727,18.561430858762588,-3.1410748496120116,-25.803485910219724,-44.00637069369039,-59.33313816736255,-77.92492348167171,-97.31474920287029,-111.13004702450701,-122.3927927821538,-138.94265912446681,-163.57502559761264,-195.3125349995956,-214.36887010060553,-171.69950029274665,-52.122855186421454,79.42285870454131,150.67576412175953,157.9173743153889,139.68836900110506,121.79446541062134,106.5421466928471,89.58350271324993,75.9704447860235,74.92341494249467,86.01526994608497,101.02075538218386,110.00813702027386,103.9532128963948,83.28980510770953,59.413795156861084,37.388395367505204,12.788384996670038,-13.162864767971234,-35.961197778032485,-56.18916649861896,-73.60604827680964,-86.30711856602758,-99.68013270716848,-121.10602435180381,-146.39753591144088,-166.74294712934625,-185.5186477697929,-213.58477159986415,-237.1082736672801,-204.2587712979829,-87.77953042039667,56.86149859250051,149.1644157431299,169.87560271331853,153.77514153254126,133.81531426031214,118.49054884681406,102.64493323842899,87.04838550398922,82.45033294015829,92.19908647109214,105.27632125021121,111.53147768740455,108.65159344844078,96.45060681333904,76.05404677347612,53.123419246742124,34.768513346932444,18.74146858569197,-2.3973918444277427,-25.329653888272684,-42.65327500258952,-58.77543254252524,-80.03090583055183,-101.57437457449707,-118.83641890486952,-136.16038852135543,-154.6261176052311,-170.1334775033762,-189.94738967467964,-223.26386454898974,-242.25766252087317,-186.1757350838613,-48.146858494473896,90.09604306306082,157.74213781788657,162.71058665740122,146.64326890597235,129.39652152775466,110.48343677468335,89.8896023705724,76.66009247123662,79.83198891993561,93.92494630909295,107.24366939732779,114.63165825482366,112.69143977984676,98.64186997215023,76.36666744425827,53.75674375243659,34.72753497626112,17.747844833698277,1.0324007927187249,-15.18791060775961,-32.45472065135516,-51.46541968197497,-67.18758941202759,-78.03418635555614,-90.92827099880301,-111.37894053696695,-135.61280963057555,-154.81224595695087,-168.89629667617177,-192.0906760296056,-225.2765463701912,-222.876771709207,-132.9242884875086,17.55364212570866,139.49960550362994,183.44845090849935,168.2646645127167,135.47694160214567,107.06604896419152,82.79042630893593,63.70289010436522,59.69167906902215,74.30949899404565,95.4642589151605,106.95458060420717,103.31522760118587,90.5845304530985,73.63005193910057,52.745104789254675,30.534574017696833,10.782234925848092,-5.689668470651406,-19.384171556333563,-32.65282085522238,-48.83594776722666,-68.74304848266442,-90.04740464779336,-109.70917316289288,-128.5836092393604,-146.9929751216128,-161.65763857690663,-179.65989016811616,-209.77359727203387,-216.14725067114355,-139.46329831620915,4.284870902181261,125.6624512456847,172.44121759532635,165.46661688788518,142.76210601398134,121.99495966419087,103.50743649096505,85.39082059051424,74.82786423894036,80.35284938470474,97.04056350085864,110.00020348590193,109.39931332198208,96.75594514078075,78.50238009066052,57.47688262311249,34.04580233113801,10.337714209012812,-10.996368891680834,-30.870986727932763,-50.085790652680515,-67.49551298404333,-83.67567735163033,-101.95894925345526,-124.32562803482875,-147.60279680948764,-166.45414453287617,-179.1378818311005,-196.7648799437378,-229.09975900218151,-242.45023261669098,-175.17524978362647,-31.466144904557733,104.00626396622584,168.12014569272452,169.99496668409935,149.2224970774177,132.06656218878874,120.96594847513083,109.59135362056351,98.86024166764689,94.62663782214646,99.56229144336032,110.47648754339205,119.96993968927377,118.64451643974856,102.79328278505892,80.1712452415115,58.807178245688036,37.49933076708189,14.779598511862936,-6.345751331809875,-25.79276649470245,-44.773515008351616,-61.83147296235534,-78.52398292500442,-99.61817913161812,-124.24591627055938,-147.04780443675168,-165.43682113134608,-180.5665165396334,-200.50536422817805,-231.32407718957353,-246.88941293582127,-194.2670272890774,-62.97667720088889,81.8771996741292,166.55110293580623,178.76794283860693,156.7910125368464,136.22678898118974,123.12362838331372,106.52183663159961,87.47520796785714,82.1931135456447,95.89942887107162,57.0,124.0,77.0
-20.133632218444106,-41.99032117610892,-61.63933495208827,-77.71001500718012,-89.66215292781114,-104.96422466840338,-128.4915470729782,-152.94855805819398,-171.7967849326294,-192.47193041877642,-222.64863472181463,-235.91250005645168,-178.28943699099062,-44.82955458436958,91.27814786891057,161.47723253807845,167.13149491431656,147.58359603344377,129.05517931527604,114.18686317417459,97.72469969130191,84.1280896288481,84.09477459653525,96.24999859716833,107.99084706594721,111.64663876491653,106.08719412458233,91.25465539958782,69.31303827757458,47.203265187457475,30.288209802748103,13.287724669387924,-9.283846165088029,-30.97054936893001,-46.994761247932985,-64.4084909537087,-86.59521723646728,-106.93287005921151,-123.58448809241939,-141.6019268302076,-159.40329257479402,-174.74539044777387,-198.3998730119621,-232.79547703323615,-235.98493248358497,-152.269669336911,-3.8040520429685674,117.96479134728713,163.73968851682093,158.74707749348843,141.62836531163643,124.24389402838105,104.47911214791723,84.74303554108657,75.82181954043565,83.35615188220183,98.21623226346136,110.09379863783928,115.23042724529058,109.85041348790058,92.7088862039092,69.56327495926486,47.89375785494391,29.7312912464943,12.899691006848766,-3.7009054622046755,-19.9428776605526,-37.90595909327828,-56.60169753261728,-70.62285854193912,-81.17273483873225,-96.03759234689772,-118.38171356304159,-141.98250121427196,-158.96365094846095,-173.9648691314191,-201.72863330598125,-231.22653471590095,-206.66664372782103,-92.02773152119592,59.36819866404627,160.38871466676946,183.25318844774034,159.05514772705092,126.59490016635125,99.78994821324697,76.39389098240169,60.55197094274556,62.27455454074514,80.54480100088786,100.30638869646268,107.31545404709706,100.22905778625555,86.0795845058007,67.96787529509038,46.25988229340919,24.48338761950865,5.701261620414563,-9.885293489973247,-23.09195901546162,-36.93199267436503,-54.2519836312578,-74.92198303630241,-95.94821312157003,-115.12818103759929,-134.0992504185096,-151.6361111931875,-165.79908876036376,-187.5261545843401,-217.0480899847022,-203.93967221801492,-101.3889041850262,45.53024093064809,146.9556876818871,174.0527469230439,159.28782430565934,136.33847612289813,116.60378106704333,98.1131942249804,81.04998506920657,74.67232826832664,84.62721061901293,101.80975062936828,111.35234510464328,106.69165796302399,91.83809906017204,72.69333918584883,50.916266928444024,27.066614840810704,3.9000978501690464,-16.793068348729086,-36.53807176024835,-55.33217998750879,-72.19039849645004,-88.5689151376141,-108.05411307554752,-131.1870172273209,-153.72853770928816,-170.5549925691794,-182.92087255147163,-204.963090845572,-237.79313502444984,-233.13263020547498,-138.6011723353124,12.65004409608879,130.65837377219773,173.37483971724717,164.69449576149506,143.39119319864758,128.55226218252878,117.84822723673399,106.17987389387248,96.73858237153915,95.15348861402526,102.35845367110964,113.78054075650992,121.06573331911325,115.40396787970474,96.44635708078201,73.77189302874669,52.81947997870086,30.977172407433308,8.406124101045272,-12.033529609751092,-31.36508298331341,-49.94573909206983,-66.47384067471717,-84.03489079048256,-106.61065447295756,-131.20888625870592,-152.8432660930482,-169.95013223991475,-185.3013695739449,-208.59264013752767,-239.65132652288887,-240.65027903671913,-162.70185215651097,-18.573871447571555,114.47164201777679,176.33202834804752,173.90139129267942,149.85708736524342,132.09215071100675,119.07047748641638,100.65166451869909,83.87631913986668,84.57193888014703,101.55931275247042,117.46073637512495,119.37501390045901,108.84281827247835,93.17790465262442,74.80229244090349,51.90393774049584,24.83764416538739,-0.89105875482028,-20.762402750336452,-36.00968828803245,-50.268813390332554,-66.71725967307054,-87.84330803712511,-112.42368820158471,-134.76719936615248,-152.00265599133013,-167.54288272200253,-184.15455929357904,-208.6244408170678,-242.2265289617312,-242.8438357824824,-152.36182992509566,5.674098298412763,135.26056250641034,184.1874413241027,177.23985908270026,155.94800310701353,136.48425280200306,114.55208405830332,89.27061841804723,74.30122323743132,80.57536326494602,100.30840973755316,116.91921654068992,120.6221637729338,112.3687068026213,96.68848281395358,75.6728504569299,51.88393916166734,30.52711679266499,11.573754015541828,-9.650973103817,-31.07651947363071,-48.926432018821316,-66.66892022559122,-86.18992191001577,-104.77790656503646,-123.25046116495997,-142.5604594412606,-159.27203725083987,-176.12625570028285,-203.64750839110474,-238.47944391720114,-238.26370304308685,-149.2595267224056,6.709043989879992,136.44397838074312,185.59955471472,176.90823971186117,152.01528306970394,126.20014544034755,98.52359328778289,57.0,124.0,77.0
42.353047336341525,24.835333689640795,8.054599555185744,-8.375459920604085,-24.86462183016008,-43.466371782279204,-61.28841325039633,-73.71590182910724,-84.70804742620543,-101.84312499495599,-125.50779046219964,-147.70711615303276,-162.8463291723137,-180.26842136683825,-211.89392341336955,-232.56044735429109,-182.21200610459326,-47.80999549931174,96.47959585032216,174.34258854678708,179.09955871396025,149.35818965697146,118.30130558268493,92.73026628083475,70.57246774565665,58.95514205388409,66.3480327084258,86.89404456494121,103.98531027670204,106.4361159241626,96.59652947988864,81.2660939933866,61.97111565451846,39.775921133394306,18.70663408522226,0.8853612243924269,-13.859850319405489,-26.855745121612337,-41.52266112865793,-59.96869480121445,-81.12889054527105,-101.65448501603846,-120.55771625616863,-139.52187770530705,-155.87432237377178,-170.60015342942626,-196.4797343027516,-220.79769331445135,-183.51119918465102,-59.26086123880733,82.45359662322362,161.59879783315571,172.21528823527044,152.5937505180646,130.27090055839216,111.29847538972382,92.75567811701245,77.62607829315942,75.99845206539281,89.54505797187386,105.874790695215,111.44172614587721,103.12354408692708,86.59977485387762,66.67073608509504,44.1608179979241,20.150512943240948,-2.2976801768354136,-22.531271761858367,-42.13203361310342,-60.399115700676354,-76.82490702232808,-93.7449651556643,-114.49080394391717,-138.00451052682163,-159.3455543054929,-174.16558704116923,-187.56779152484452,-214.466326956635,-243.45418338793226,-215.6223005206739,-96.84190625197674,53.56980065644195,150.54136083567371,174.27369605525544,158.49287161808627,138.25790898376036,125.39063326696095,114.57826040657244,102.940027934331,95.30937457324727,96.45128466196967,105.53073364134988,116.7496420710017,121.02184709068807,110.96770668073285,89.82940584459702,67.58674270964093,46.72395301376606,24.367633444771233,2.2533753619514543,-17.63969358962024,-36.895039031515395,-54.90606767445433,-71.18923735421068,-90.02928015683622,-113.78069733911407,-137.89580362245366,-158.2424171831838,-174.25205375986806,-190.73856589312592,-217.62591216451796,-245.6033631127585,-227.34770714784148,-125.10536011827092,24.752410837182854,140.60889076789067,180.50606261545698,167.36460193096278,143.6653885153709,128.41831387998278,114.41756608836799,94.8421517466388,81.87742956382303,88.43432634598432,107.08610559248464,119.6405336041607,117.26513591238859,104.61007894451711,88.19393418538998,68.73642552428498,44.34323516071588,16.970523920864725,-7.279254262040682,-25.48531458748267,-40.080688271469995,-54.66130779400189,-72.29131496604506,-94.78643546843921,-119.38363822215875,-140.17838239533114,-156.5110198001379,-172.09124947438178,-189.9462594762761,-218.19397139344974,-248.88411958723344,-227.22859400378493,-109.81040182502397,50.03244160327812,157.66105866201258,185.81960838712686,171.27085436537806,150.12694795973897,130.7156384217035,107.200740960901,83.12859287265108,73.91340214906333,85.62782155272298,106.07812775243502,119.44137851434924,119.25168282954535,108.45163732527406,91.11965780683538,68.86400278386495,45.285740932068066,25.033989381578028,5.759828106598048,-16.09184744638191,-36.56657609347787,-53.8399148571186,-72.23240987634088,-91.72820636762076,-109.98924989897057,-128.86304990209365,-147.761358037465,-163.70079811629114,-182.5984396619713,-213.98690582699103,-244.86444816085208,-222.7840517210561,-107.44350524308953,50.89521926862945,159.0599926668121,186.9228871076325,170.12430257542078,144.6319766600946,118.39831996220126,90.57099371093625,68.64242604020951,63.88933657256363,77.97224410041969,100.54177772310321,115.17241556036564,110.8518254390668,92.341069114925,70.24642072856044,49.31154935709875,27.33534052191563,2.9467281881072704,-19.962639488653352,-40.495424092487326,-59.59631536122604,-75.85645260412906,-91.17683064514065,-111.26217492881649,-135.60911800127568,-156.8013048572911,-173.23500004682575,-197.97031832838405,-234.7024646673412,-237.81653301747045,-147.21570624145562,10.702512616149228,137.04196066641828,184.59650021761084,180.64889827381225,161.04653540373144,137.08876575105168,109.57238095485363,85.77095178555687,76.47275626196638,83.4722010454126,98.23894147056028,109.05561969443544,108.44870649144067,97.35537004986325,79.01537345096517,55.30494626112444,29.335208087558065,5.398493087313066,-16.230257602267688,-39.18635118025062,-62.45955857659183,-83.30878611615258,-103.36989418060047,-125.31235482583314,-147.26556750626284,-165.37715385890465,-184.18223559603496,-215.31302916809688,-246.49952443105116,-220.20342307634127,-101.67735000782358,48.46548167677821,143.76404442602245,165.88207996713322,150.67598168720016,130.60847877044043,112.52710877077803,94.47633214768692,57.0,124.0,77.0
98.88625793153173,81.10895460345061,60.42907921606653,37.258159193356455,13.386201621808002,-8.288332641551875,-28.2444278022593,-47.60991398352888,-65.29175349051899,-81.4877482983393,-99.27764165301532,-121.18389580852595,-144.64178486154904,-164.35845984992608,-177.54963306535979,-193.5100780606338,-224.56028650133985,-244.2252785784039,-189.7532822041156,-52.26078707020014,89.48548030489493,163.9436792650201,171.89927747869407,152.09231439629835,133.86539974648215,122.36529013896849,111.17902422452383,100.03857255443957,94.65554507455897,98.44121512131116,108.90627541857836,119.13524870203113,119.70054423821513,105.54764008629033,83.19016584040774,61.56032218235148,40.45358851262792,17.779451600406183,-3.6764943470478717,-23.220591896842773,-42.32302374379981,-59.67685721395846,-76.13014033345641,-96.49751275157892,-120.9674933672936,-144.24506459430827,-163.25109166863166,-178.53100369201115,-197.1615127931779,-227.0685155827667,-247.66619468593856,-206.449904007364,-83.18692891349428,64.9167741492725,159.9181165375079,180.13944909805872,160.13646313485526,138.37316002002876,124.84104061072426,109.13349768265357,89.57956541764848,81.67351885866167,93.38337839778444,112.02681466935742,120.47072138922482,114.29230831384598,100.1109799505804,82.97575814546356,62.227940721896694,36.4975406419313,9.391446468865247,-13.121743369086989,-29.902989854022298,-44.156410243150624,-59.31014868693648,-78.3062565020452,-101.93517832655593,-125.98115181949126,-145.1797589564812,-160.9847671891318,-176.76685985911848,-196.67504438676542,-228.37190246207135,-251.1535646005225,-202.82425708002694,-63.39896893301726,89.46280304887524,172.96533136629762,183.94193803206053,164.96423217566075,144.54871234212771,124.52395872719882,99.70015058833833,78.29906359153468,75.41933767427177,91.42514750985502,111.18499266480293,120.76260615755936,116.99402440964023,104.01582811949915,85.12013211105327,61.926317979661576,39.02894327941433,19.63553393751553,-0.3437423628646415,-22.396087818016156,-41.72733987009539,-58.896125984390714,-77.9079998265394,-97.11569093653172,-115.2768843147045,-134.51033868326218,-152.63776789990666,-168.3335345910523,-190.25621167943206,-224.60356644933904,-246.81168725261668,-198.78114975819855,-61.70224012184867,90.36273246832027,174.4892581938979,184.56479235118886,162.84313312978557,137.23216236253367,110.38921253649026,83.07691316969124,65.16650708522486,66.29849297681244,84.29023388438786,106.322322308195,115.94771663633773,106.45640284531211,85.96124571838871,64.07697938115408,43.24678477945199,20.40890993185671,-3.977434750149445,-26.05910478463963,-46.19773003206895,-64.63229154986878,-80.12282344775942,-96.32058222975627,-118.13177009756635,-142.37742383236613,-161.70942827427365,-178.77065100335028,-208.26998719676874,-242.30114679418088,-222.4196646316388,-104.4284531601207,54.347588353096675,158.56626558306974,186.78651638998642,175.64287136820118,154.5535767952646,129.35610895401973,101.79394623723594,81.26333399379041,77.06409521830642,87.45761213144,102.24923665393054,110.15465153299303,106.14404695357021,92.71257245905649,72.6211106072395,47.83960881401065,22.06656177928966,-0.9265938417789545,-22.637311850061764,-46.05924603555258,-68.74188780356695,-89.03051883824233,-109.48549350458812,-131.87050251720603,-152.93129577833864,-170.21979810026534,-191.60415329557767,-226.16914575532442,-247.78688878416824,-194.5500994194627,-57.054766062853254,84.02029543136578,156.57767796964197,163.42771497279384,144.64411263148193,125.32191263193148,107.23403239453184,89.87868092823989,80.55342821715429,84.59642443406729,96.37016412171444,105.47917676824545,106.40290855491934,98.47095901802344,81.80908935401006,58.86241489246854,35.49286000489257,15.540898117325918,-2.123263339049064,-20.773898459324673,-42.52295310219956,-66.59945490767964,-90.16440194758316,-111.92540516265682,-133.2207336631275,-153.51861793554045,-171.4657858717884,-196.05388490096178,-231.65155174690773,-237.28195600600225,-156.10673775091655,-9.387376402699706,112.81463869302311,159.03587274533535,150.10229934641404,130.18262013677392,118.91158772191679,108.84754583581312,94.14839906081559,83.63605912432367,86.73058298558676,98.06684125353812,105.80836109905745,104.74349315611504,95.48001058561806,80.06185007376502,59.3443135592435,35.39962093817179,12.893669231904719,-5.684302579754288,-21.1342255660769,-35.96202644191721,-54.342392752805175,-75.50787541849893,-94.05286499961716,-111.76266085688017,-131.0647704812042,-147.09330250785936,-164.23445666074238,-195.30189786766027,-226.47921366989416,-201.72724023068182,-89.11314404356176,53.456885650552486,140.77307693240772,154.0532095704593,133.21715413743837,113.3238095892707,97.34248317163394,77.67233211494926,57.0,124.0,77.0
98.93664921134408,116.01620216864171,119.99679506755348,110.67421420482628,95.40866080374389,77.46255879927133,55.262285192681695,28.51578153360318,2.2374262106802854,-18.4558777628805,-34.11278744458321,-48.30901823920489,-64.29076628796221,-84.74592961054289,-109.13517825690438,-132.11059571206232,-149.89205687700172,-165.46652438440069,-181.71758821782365,-204.57112478144307,-238.19439077702071,-247.20127195429404,-170.00164589186915,-15.859706536439614,122.45731137475384,181.91403449532325,179.70654576561967,158.7338056653429,139.05094178072162,117.81437116880322,92.42634965989953,75.1337348356387,78.61827899375817,97.51892179610952,115.36036696774259,120.91859702065662,113.98005952218514,99.10576976212435,78.73030512356075,55.01653352224878,33.13572604453737,14.162621731686768,-6.682580433587663,-28.419520528954905,-46.67482706083043,-64.16534884407173,-83.59296289109412,-102.37649474142496,-120.70050157916326,-140.06628438294888,-157.2227630200395,-173.4861761964517,-199.1594676471927,-234.50972547271516,-242.64765242937105,-166.5718820730603,-14.666592118082477,123.53606030868589,183.40469064987684,179.70573424131135,155.43002118254074,129.72305890597556,102.26309248247021,76.36677440428674,63.372879755339135,70.18332622502956,90.97777724284138,110.99870555657799,115.00782743548041,101.1441083866024,79.5182183930287,58.0405056546986,36.981942967470175,13.318911378715063,-10.661611527137435,-32.00097801574089,-51.77873644772359,-69.37752623890646,-84.43212376869631,-102.00072645741726,-125.24092657676755,-148.66528516366935,-166.30974780088803,-185.48051739097124,-219.37419671067852,-245.36021986267943,-197.99499194414432,-57.94213416784141,92.8019609144151,173.34324667038425,185.79629783614791,169.9894570981333,147.73073012720096,121.35883313534575,94.59741760601196,78.20949519018522,78.92660069091977,91.81853407708137,105.64072016141964,110.19729734158219,103.06339153814848,87.52012519742968,65.8210330484982,40.28382183411055,15.075579216061994,-7.128321772698734,-29.243962319237887,-52.85613984885689,-74.79066949748514,-94.77062248328019,-115.80509136887686,-138.3185724882134,-158.20111563783894,-175.36095660452494,-200.37344295267317,-236.29041298455212,-242.44303051454764,-161.11262835083946,-12.248720047925467,113.26669449574763,163.66656484719726,158.97600087677327,138.74459941720806,120.13760357279105,101.93074549939223,85.96599570836537,80.37799967245383,87.68733485890914,99.65280468932961,106.6609832440426,105.0195136201839,94.52483092335879,75.60068306113823,51.890552008935714,29.3444095435867,10.340780613871686,-7.273799115682342,-26.71362001098472,-49.34981624179788,-73.58296915756704,-96.60134244537008,-118.06969047031318,-139.31725737810865,-158.814216332591,-177.22730027304982,-205.94716418295133,-239.38769927291085,-223.89800771598738,-116.87641724365143,32.228553801732325,134.14741017468344,160.0696923564029,143.91687570543974,126.07011346928819,116.40931143042017,104.92208260320653,90.07773278586959,83.06229669427582,89.72701535560125,101.06146540030429,106.4469764151483,102.81197217546621,91.59460831771388,74.59278983463886,52.57228542812427,28.555086824296826,7.121197424786623,-10.397555165149846,-25.30629999784831,-40.76761328213484,-60.433557504045986,-81.24583516744651,-98.99307143714147,-117.33813093193366,-136.1713221026516,-151.3121883836862,-171.51453463682714,-206.19959049885406,-227.85520408651152,-177.36043881507186,-46.67771105746043,86.82435973430667,151.02096523854706,149.41224235803298,126.69939252688816,108.73996471402297,92.0866112794046,71.91835950889165,59.56104864976873,65.79453647114191,84.33415521521567,98.45525871562963,97.386094492018,85.35305166503223,71.37781041365002,55.85410761130962,36.28271755902978,15.436552794944934,-3.737034141219051,-21.676466438920613,-38.76269253431968,-54.53780702834746,-69.42122421811757,-86.75155918186769,-108.3831296631547,-128.3658604326189,-141.42661262265358,-155.20148816228928,-183.21321309608373,-208.9927611012357,-173.73643743785726,-54.85726262807008,75.81554475963839,140.3560455874384,140.23463507149566,119.91723558302388,106.4619363115545,99.79600733268701,92.52835898127836,84.01518334927313,80.21468801667058,85.3141495162267,93.99627071211665,96.02437708979461,87.17546834523883,69.73046540696389,48.94327386570852,30.896265750020373,16.284147881263454,1.346481264903955,-12.739615089839836,-24.26417401761036,-38.88559858195798,-59.331514461311556,-79.4460423918631,-97.65492385954481,-118.00693744648835,-137.84681690360645,-151.33993016461943,-164.28939940389404,-191.60044262725748,-222.7891922923206,-204.3942300720367,-100.36683480527084,37.98882136014671,125.83422868361303,143.1179900784125,129.3262465224688,119.03719007313953,116.36214931964517,57.0,124.0,77.0
94.1991111982083,70.76753280701732,63.32834593351121,75.29041594562821,97.61778109425558,114.23266399692585,112.48550151497776,95.21105998344953,73.14204293651015,52.06988413563285,30.44529279923883,6.199955257887262,-17.08381871610022,-37.83522652257016,-57.18245317422463,-73.85802445093289,-88.9647515351487,-108.22584588251954,-132.37475514728987,-154.3698900580703,-170.95509824183702,-193.67275755747977,-230.20701223682676,-241.9878583912457,-164.9755234536723,-10.616395110917656,124.71677277959164,182.20723185013995,182.62109121668647,163.93946571279935,140.53545327287597,113.26904574496157,88.29532885126007,76.67534415409538,81.84277330654999,96.25279458352487,108.19971114253292,109.21999436524914,99.30024227050279,81.8113805343738,58.684778329214765,32.7598112078192,8.38755189786416,-13.334497449273366,-36.023881914554806,-59.48085615849982,-80.65097537663928,-100.61802951639835,-122.28963579020771,-144.52050900590763,-163.1541839976693,-181.17338404809882,-210.39061150626293,-244.1385995188842,-229.17963122476166,-121.45637525573592,30.2458596657823,135.70406840833186,166.05344161427732,153.41712000803025,133.11357531928059,114.94400586703925,96.76026448277582,82.96141056892301,81.3680560879485,91.16830982323755,102.47422469196435,107.09908486407998,102.90008455237023,89.85066064536126,68.97084052052298,45.045532031226514,23.524728033105323,5.261715682577601,-12.589574008129954,-32.94161520763546,-56.320805380075264,-80.44405494482244,-102.8931864386486,-124.22287380395831,-145.26745548658255,-163.90777151985282,-183.93639737131912,-216.64770451113503,-243.0133023229909,-202.1181378735868,-73.83084024999839,69.39501168520269,148.69150129776514,157.57157887318553,137.83357086282453,122.78584021844085,113.67060739215954,100.6137480893682,86.70322774792533,83.75431008976811,93.1136243136098,103.49910505014732,106.30507849931348,100.24580241088215,87.24067616410773,68.68461460203717,45.61704969928888,21.9565229046243,1.6906034666810401,-14.88376126517236,-29.508467693038817,-45.98455390689423,-66.63539792785248,-86.64603509960502,-104.02164552534688,-123.00811999132773,-140.85035363948091,-155.92009858646912,-180.2732584814143,-216.3101880657974,-222.83862232416314,-145.59866477867433,-4.076916451561758,113.80751592463808,155.495712387453,143.18786585042227,120.79897716747666,104.26467481033846,86.3911011643451,66.82545771980034,59.38821286712471,70.56194914620166,89.59677340136041,99.79340536302479,94.56029559578064,81.30445073552475,67.23100298305826,50.584068576671534,30.196746757736292,9.69535402209059,-8.994031692615417,-26.726244082125476,-43.464332990247826,-58.85268700473698,-73.96995084987171,-92.68900773957132,-114.70468785065053,-132.81256033440837,-144.63340658917159,-161.60566336375473,-193.0054945484266,-207.7573692154184,-146.35281955481594,-13.780062307556246,102.77795905247935,145.13056589760444,134.62903639456474,114.95037105494377,104.21297545680207,97.95847490689133,90.00484736439904,82.12425556096937,80.80393385960673,87.92396872412345,95.62352402989873,94.55912464356737,82.83496718505309,63.77405860292828,43.25927397967086,26.492734392400724,12.085246979088923,-2.9953717784098544,-16.205243932225265,-27.84647467735206,-44.38062250703619,-65.4508086973954,-84.71331383077195,-103.24463848554814,-124.11692138909878,-142.47099739864083,-154.45044826862272,-170.31597891198047,-201.93834677365095,-225.36907102105434,-182.64175477563663,-59.735644028696576,71.11630680449166,136.88443930638314,140.25176418218052,125.27949248648761,117.89788641047993,115.43574521897015,107.32800635319875,93.90962190394231,87.56492214938928,95.22831087116927,106.66669660417928,109.48145807753569,102.37702832445535,90.39663142221761,77.10955713386484,61.62490739822065,42.63800798159826,22.294623526686895,4.9073920578155175,-7.937383829709784,-19.18575860126598,-33.46019157771944,-51.837909110272605,-69.248976612859,-82.10592149170188,-94.68608589160634,-112.1613096578485,-132.39073417441696,-149.96789339098478,-163.78479094992375,-181.81908550153133,-212.33379669072562,-231.67178525475046,-183.33994318810613,-55.59365044474767,77.60404146912337,144.6368092682279,148.0680015445912,130.3638669444046,115.95846476769341,103.9290327513178,92.96019932685822,87.81033112587568,91.54503823479841,101.07623190916898,109.2858930955238,110.77596263405111,104.26528867187895,92.85526628982052,79.93702712507188,65.33144359096056,47.434409903499954,28.229173633499034,11.934154296623989,-0.5290670501614466,-12.843130096700644,-28.129959352388937,-44.143885273431984,-57.99213548253644,-70.08953737536957,-82.61933786207523,-99.21010705821372,-120.42555870724266,-139.2221571870594,-149.76898485728972,-165.01629605854694,-200.30648124810142,-225.0422779969317,57.0,124.0,77.0
91.92776026328931,81.04147032151856,83.3825526879011,94.75454843460989,104.68902962358375,106.79297415933459,100.04017288228286,84.49079808966518,62.08033286577606,38.43830493357785,18.002393920760444,0.2158818242886177,-18.1308930975158,-39.443100137491484,-63.356752509898115,-87.13871736613945,-109.08761752343452,-130.3855269962497,-150.98117232725534,-169.01571233658774,-191.91267620644004,-227.20493534583662,-240.7419773238718,-172.2759628143935,-29.52377572569256,100.64653023182417,157.03039095881107,152.77203868035062,132.39327263108004,120.06740299732651,110.4893777091657,96.16206548572664,84.33068860283676,85.5764281877951,96.55001000180901,105.25207453289845,105.40377581358804,97.10565073884348,82.43153203388687,62.3729030465401,38.6100080748458,15.67374457305703,-3.4238177336885025,-19.191173596905855,-33.86543006154129,-51.62067031698314,-72.75816068494296,-91.75857701128051,-109.26231874511421,-128.58198437049737,-145.16893576667545,-161.34632448355387,-190.3487067845417,-224.12219901235002,-210.2529703260853,-107.9158995475557,36.237227682898755,133.8586911514863,155.33618075311242,136.3612091961068,115.55559209995599,99.61079179037975,80.4279412528019,62.81052668198203,60.89953594616166,76.02747527044654,94.04625170393645,99.73280836679764,91.07211960630625,77.26850138939785,62.8564930659316,44.957913446269195,24.120182181222596,4.12965084541034,-14.18560394646056,-31.691766157001545,-48.04923132876159,-63.11292519130233,-78.8520247308668,-98.96168343801509,-120.6674584870895,-136.62433342024627,-148.25224787689388,-169.51181009253918,-201.70162726303582,-199.67459248552913,-112.33574102548026,25.683469752997645,122.92042190597417,145.38056284142687,128.47108830032343,110.88807452946294,102.33343433048168,95.91812632657017,87.45227494414277,80.81201871103764,82.1767517901532,90.59197088033201,96.45599412576762,92.1752260537666,77.86515979771596,57.69392303218702,37.943879487912845,22.302237146438774,7.77146857268686,-7.156843579228962,-19.476570093208608,-31.899351300219347,-50.310637075126515,-71.3449940011507,-89.90132335072298,-109.10509629311542,-130.01426661275974,-146.44865657598697,-157.842213527549,-177.91984049749388,-211.902150518255,-222.120528682363,-153.48453469071995,-18.457350668049013,98.19846422425597,142.4485951928991,136.02825291251833,122.07354796456778,117.21548638607088,113.95277881191068,103.5873330114155,90.73780086718625,88.51207577612178,98.84851775912956,108.64025727171747,108.26263332649107,99.18010762825386,86.65840662398844,72.96276166795376,56.48178959147797,36.70921204227675,16.808677700143217,0.7834786133882228,-11.137365484043958,-22.83656550581213,-38.47800788187014,-57.256575534314365,-73.38139575465894,-85.44719938682132,-99.18004360206169,-117.97529727757241,-137.92450602798866,-154.18673339560198,-167.99049368180792,-189.4862732992763,-221.35947014571758,-226.8823305011149,-152.58170250710316,-13.396886970450119,105.08996790040264,150.42940446649354,143.39355433996838,125.63689609914987,112.46050380452095,100.49209991339848,90.64503558580186,87.98816676999601,93.99098200015732,103.89460926428016,110.54723272280896,109.65116155379943,101.27247608400893,89.21151848394612,75.98521609750196,60.5006781887122,41.82705553295818,23.081743248542104,8.034339870796444,-3.880924089351125,-16.962512700113304,-32.86045362050851,-48.408531943024215,-61.590597676175086,-73.52950879220832,-86.83900364442663,-105.04400795065301,-126.54297369349347,-142.99839831459403,-152.6236110799478,-173.33622232909178,-211.35110893628524,-220.54583515254276,-143.85018855123116,-4.459726954753156,108.6495960298615,147.43519156668128,135.83206024982678,113.72621528734143,95.20897627736313,78.12525815877494,65.70839118363537,64.63485021546708,75.88417383480412,93.97512314217751,108.25465429056115,110.53635393900126,101.00164193892415,86.05158491958585,69.65416722055055,50.186844080794565,30.14779884510263,12.917566428045241,-2.3318527313188806,-17.154756479969965,-33.03250894005178,-50.330284556027685,-67.0673356038741,-82.05938015960474,-97.79566108193922,-116.39792657143032,-134.04201431848438,-147.31737789012485,-165.46807151509492,-195.40599171357763,-207.57335394812054,-151.4307331551157,-29.09947624503794,88.3041798139206,142.50112105552967,139.16082161921804,115.87381596711002,98.2670695348271,88.37410215544865,77.21086534387999,66.76811602540214,70.12904198020628,87.09021068327391,101.09259599503689,101.77382688306648,91.86137251982157,76.9532765248993,61.080543450749026,45.92859407742683,31.483478801935206,17.01863231544939,1.8132329114720742,-13.541557024963229,-28.507696564798433,-44.30855247311388,-61.23989198440475,-78.55430251930058,-96.41987692968362,-115.4185556699011,-134.23039875498878,57.0,124.0,77.0
74.51551039536662,60.214525309869295,63.94535170675879,81.74252681519557,97.36616174322621,98.38496343080676,87.20137637406633,73.24605005464863,58.15192818949472,39.06136763426761,18.142286739990336,-1.2829470885831178,-19.32536337180665,-36.55663706503246,-52.51639581191376,-67.40214547991053,-84.15548688378243,-105.40860127581759,-126.08590103276451,-139.96750915125648,-152.73253312708127,-178.70266311508183,-207.66204810460255,-183.77907588384977,-73.6189081320527,61.23881354452517,136.3030463182737,142.3744060297664,122.48268169234134,107.68834830812976,100.59939201660025,93.64574533886507,85.03420450827683,80.21954120620217,84.20918046320345,93.02742181156165,96.37981607067324,88.9355192789554,72.38791551560033,51.662613021278815,33.03213226546755,18.18874058499456,3.376486901930016,-11.04780561664108,-22.720367103411473,-36.53997752714089,-56.473074053282744,-76.9520769147733,-95.16493882841087,-115.17447863272031,-135.5013329896619,-149.87974846886098,-161.993127859232,-187.0157737866819,-220.0752513166394,-211.77302295613686,-118.18855437563518,21.01082695711875,118.644013593459,143.66956117559786,131.3965436786967,119.79625895270982,116.66316569086256,111.7765658435509,99.56557574009291,88.54177175158219,90.63222956799662,102.38316082285618,109.67934448533128,106.2973165549219,95.71842483428412,82.85549314760394,68.5712538554127,51.03592392605068,30.76257116463838,11.67546427068061,-2.9681216006437072,-14.316155608615142,-26.850005354298176,-43.80459914506233,-62.4163023476574,-77.11577166704717,-88.94802921256324,-104.156105152814,-123.88909509363334,-143.11152747503237,-158.1269159835097,-172.85770300740128,-198.32298643102746,-228.3802245077659,-214.90315967130562,-115.8197813651858,26.766145330171067,125.91069523970903,151.72949626894217,138.05400471227355,121.4228517287404,109.00410456010559,97.2042601256038,88.95788607415817,88.93505894634119,96.7805101334527,106.41615559198384,111.15282621435574,107.86956311362246,97.98604443654285,85.49803968634833,71.84550147751537,55.36938083284478,36.20739068298211,18.27701653660438,4.425943777978391,-7.350484965795204,-21.358635296710855,-37.548288407094525,-52.4502743232583,-65.08265428249231,-77.06681225575093,-91.5061237676531,-111.20860082869407,-132.20933007006565,-146.02469739452738,-156.45854585980723,-183.5224556556914,-220.13266734289002,-208.24328193257716,-106.43352237147336,34.598964229159634,127.46026178521006,147.22423128055573,129.32999515082318,108.04347816198124,90.16655934334948,73.71845433760797,64.05154629983097,66.74749380905173,80.81030029947479,98.99546960890672,110.29429106591135,108.78917960275663,96.91328505597092,81.5068245577514,64.36445187671826,44.22371839291128,24.866176246104974,8.380006837672095,-6.587965066453544,-21.583396574947095,-37.92678901465747,-55.34404427053128,-71.52597605764126,-86.36778494628004,-102.91512445884304,-121.89151129005919,-138.18975434079425,-151.38913611507294,-173.3303565674226,-203.12262334156034,-199.90587053490637,-120.55377227162616,8.965393015955394,111.37070118630609,145.90382464035832,132.89990482041281,109.70286339910041,95.00008185785323,85.55007490544239,73.56806756465734,65.88464617354585,74.22861129143982,92.19210561051418,102.70799507191202,99.72738048527773,87.85559162500677,72.3437702896092,56.60767491285674,41.70901075227072,27.34429120615752,12.711654651339133,-2.6702074343518536,-17.86547163125453,-32.93972532801887,-49.1119774652143,-66.2297852191217,-83.61188338393156,-101.81381046270735,-120.97078038040749,-139.3060097888532,-155.64021753850128,-176.39623527233053,-208.3580704310712,-225.09790994257014,-173.58938798132485,-50.976262237804825,72.5664590373442,135.6268950670417,140.53986403403204,122.4611607615782,105.71740795078509,95.21830362828376,88.04620900727161,83.69799928336539,85.3560553952237,93.477670755,103.20524965453339,109.36631398712412,105.98780311887897,91.77628305353781,76.04276766613505,62.93804467241167,47.435614759201975,26.886706471897803,4.188516345827188,-14.270224895689374,-25.707141717013517,-36.053335319609594,-50.88980927471492,-68.31508994825754,-84.98375270177388,-101.64420401882528,-120.28178622804933,-138.30303476840294,-154.27553506078598,-177.35930179732804,-205.81164315536577,-199.69153005336688,-119.13506430203589,7.335585162649493,105.51159334069807,138.05845497674972,126.3854161580446,105.97252111956882,90.42841880268804,76.0192702046819,61.53868797626472,57.07008457873444,68.98218575791273,85.67587556553326,91.62945726867069,85.5031659635187,74.83841676558644,60.68664962931958,41.810604675344,21.93304469823309,4.17450524627776,-12.756810945616087,-31.30180001854101,-50.98744537634063,-70.28626594663409,-88.8751756628157,57.0,124.0,77.0
115.91990617602686,108.88243615795734,95.60680156084926,87.56818396519601,93.64280188363435,105.47214202983659,109.75736478672167,103.72620913777983,92.09821169029358,78.955567792674,63.88903714752319,45.33313905219136,24.920335527154418,6.946334807401429,-6.4200076326762225,-17.601580065321475,-31.277185541068754,-49.29752059491913,-67.19405335351183,-80.56629841879801,-92.77646684389586,-109.55705450306186,-129.74780501656466,-147.8982679631398,-161.9726044914343,-178.71517672380438,-207.89150827427935,-231.78181982743416,-195.09919839695212,-75.06546983288084,62.814279723703805,140.14391713250745,149.7516282994137,132.71183053546358,117.61899805368323,105.53182790678268,94.20492473272544,87.99421346998314,90.58133464483808,99.72257438237963,108.50202711651568,111.05912545043378,105.51448239166618,94.50477628230257,81.71344482768338,67.45425734742174,49.98276645896933,30.69898391699452,13.849012187979131,1.0122673114675713,-11.044861426907191,-25.96325812601223,-42.1051670030751,-56.28471313600707,-68.51410323006297,-80.80081702180561,-96.66656774725038,-117.52452530513963,-137.19615572631602,-148.60111765724423,-161.8710380572613,-194.9305505770927,-224.78888187287865,-187.68427571002496,-65.4648614428551,69.11352751536236,139.7307129578724,143.92278065697496,122.76552905799898,102.69457122254325,85.1675178213093,69.88175045360695,63.477740487475224,69.84465771150289,86.11778331587547,103.39739739487304,111.20994559261835,106.13676526170545,92.57711375487747,76.8480505104339,58.76614440766106,38.34949525458344,19.849921095255933,3.9656515834848083,-10.84590710511784,-26.13339091068854,-42.93271046287133,-60.23409448749,-75.84760244541222,-90.83200561644368,-108.29200840510428,-127.13276118327433,-141.9634797156351,-156.2602533375786,-182.17351596789345,-208.14910110139212,-185.33830877801114,-85.07951953578254,44.451092753537154,128.31294302431544,145.2496035024604,125.93751626692726,104.39694804695617,92.20805968099089,82.38771799547834,70.23475143776928,66.49448720500693,79.2134035125556,96.57286077686169,103.12079166113905,96.94763395954845,83.55437404876093,67.73511625775213,52.212127879480356,37.53608687957875,23.183974019069307,8.326839589694739,-7.127901158835061,-22.1683915346235,-37.47704665728007,-53.99915975424023,-71.22892555603127,-88.74122375231245,-107.30293855006197,-126.45745263023763,-144.15645783173443,-160.65231290305562,-184.7328992013744,-217.11037048271936,-219.00934125193572,-143.2845718684693,-11.644152681879609,98.08411412602736,141.594381579706,136.19009810951468,116.97361309263357,102.14437559253273,92.91879477773962,86.39523162170094,83.41874740634307,87.1918414598225,96.37427828147963,105.57666913440266,109.64331247392155,102.70860400331284,86.94570233751418,72.14249870067358,58.93537485931756,41.98284772148213,20.302333179568507,-1.8645566141836643,-18.1686611822835,-28.43713223750798,-39.83840809721518,-55.85743262646579,-73.25985711373774,-89.67551112415111,-106.82704626934405,-125.77629135027502,-142.89595496131187,-159.73213842368847,-186.04986840529688,-210.08093734131572,-184.3919978071637,-84.15741847474453,41.52376446966838,121.56333235156596,137.45323372531584,120.27697369522068,100.99180462344287,86.40606461439071,71.57162076201362,58.6546488765766,59.01579826156971,74.14524846124459,88.88618807864046,90.77275916562982,82.6565297080916,71.24656497502914,55.623073356843186,35.96029170750976,16.56286793730566,-0.6685675362048141,-17.89913592447066,-36.97065435665043,-56.6152450127708,-75.77554995638658,-93.85257505761942,-108.4332581411023,-121.94236817728273,-145.53881566260068,-173.79767085344747,-164.6113784799452,-85.42385797800085,28.55511642059487,109.56780380713029,132.079583738256,117.02206983063994,93.58298501550928,76.98437401396068,66.25849497808656,56.84411967588071,50.708013028852335,51.99768315150071,57.81184788859123,59.26773061510747,52.43340412077798,40.78037384365199,25.778725095694977,5.538035090881504,-18.328018069957828,-40.07752491427496,-57.49650276046359,-74.4177266909018,-92.8297457094723,-109.6661520777113,-127.67500277766261,-152.9201854542778,-164.6385310219243,-118.84123973978699,-17.44852976246888,75.49610503664071,113.29427063633685,107.94001053649586,92.38833419482629,80.64021741526459,69.30903893516651,54.636113525516755,41.29390119365439,40.22197788432292,50.837283387380594,59.26763684856564,57.979860105120814,47.95825894399827,30.708061593074802,10.158461271296602,-10.017393936746194,-29.339945535629205,-47.27044597258711,-64.77664745175485,-81.14053425281003,-94.12482169746366,-110.03722668805214,-137.66592656464593,-159.96483580923902,-131.8660233106329,-40.05858981549535,61.39599258422992,114.80512547655658,118.25384678612393,57.0,124.0,77.0
-223.53225835222182,-159.27410509708275,-23.466595561775154,97.69393913060883,146.16155212355878,138.65358407920476,116.48443672904575,97.54778762284843,80.29146450396135,66.81514273743782,64.01628205093691,73.80789677054265,91.52879557307193,106.9502477967477,110.9999257193134,102.75267344922062,88.12501727852388,71.98710283209367,52.927257662137066,32.676323546598326,15.061377593669379,-0.35896731696295286,-15.146857957076643,-30.822165227356123,-47.99633821191466,-64.9536031806343,-80.09926446647488,-95.53337974028942,-113.83033099160976,-131.97123189038186,-145.59675198698167,-162.26561131108193,-191.34063862506272,-208.98773794562038,-163.6837124752473,-46.96273886140952,75.68245234342012,139.29640364061277,141.58153455174403,118.9553604116654,100.00608231662866,89.59613705769013,78.89358681280926,67.62038282042658,68.64877156060591,84.60569554190984,99.93548067644197,102.42729071027752,93.5779256662409,79.0623357184907,63.16667874247083,47.894668939975205,33.390625918841934,18.978754342446383,3.8778597246575903,-11.531683723233884,-26.49380803867016,-42.12750144225844,-58.94614018705281,-76.23764513067796,-93.9707164878869,-112.8522968592819,-131.81807582299865,-148.82821704914937,-166.3193873843913,-194.08124957144744,-223.44045276749821,-205.89468035605879,-107.86434321358527,25.563478524539825,117.60719573932843,143.38694606887393,130.82929834258115,111.96990680846015,99.05848611856064,90.8139388902235,85.0171828718252,83.74193107785993,89.51086668785237,99.25743809692932,107.54268048342136,108.94167299090998,98.61652718585442,82.2864095039865,68.41578186219218,54.58012344805417,36.10254302833886,13.655607798450403,-7.38122911599551,-21.50106836811549,-31.295879871928072,-44.063627960673955,-60.92893676714276,-78.08831854637958,-94.43139199861336,-112.20827158538563,-131.08232457527237,-147.37105224923613,-166.12526163592634,-194.8643242281268,-210.05759100480185,-162.27209175106168,-46.89705742202485,71.47551379773692,131.9010406712401,134.12221304566555,114.18233475417308,96.48016865210344,82.30469952933207,67.19797400482885,56.955636766098614,62.332931366600334,79.24833452992446,90.8993739360103,89.05442172722962,79.61420195685028,67.28171687455026,50.18739038265734,30.152666498556634,11.407215057145756,-5.515853009016946,-23.223239659347602,-42.68017398695379,-62.196604826755674,-81.19657292559978,-98.51031681636708,-112.03759978516752,-127.29739453535262,-154.49891651181525,-177.30722936999712,-148.79974659423425,-52.908165075494445,57.6544841512548,121.70924702878762,130.16233195986726,110.0954550010137,87.88095710668398,73.56309029993959,63.45012671337125,54.50421825709599,50.25928730943099,53.573584044768914,59.04010030200838,58.063458487624004,49.38443234030618,36.867574972603414,20.513971527149614,-1.2115505997411866,-25.064401037771532,-45.460620282832025,-62.22395424992558,-79.68426901037526,-97.95163968050198,-114.34773031894852,-134.35780110932464,-159.64757460375762,-158.74167640634775,-93.09690656647169,13.417311303104844,92.52910358474574,114.63588738257152,103.3705414367681,88.59976314174526,77.58253415889848,65.41613350122155,50.162137076438654,39.37408008736365,42.610019585074184,54.083891454827054,59.91016482622651,55.91414076594485,43.612525990060185,24.875884259426694,4.240552557620321,-15.706220605238924,-34.66154757491088,-52.314133585319944,-69.77178184989978,-85.18800521135259,-97.88111694713672,-116.82242321292108,-146.4316254712286,-158.88399302145274,-110.55558016343215,-8.425781355721316,82.97110277575172,119.75007109042444,114.2360310744923,96.13000268883297,78.92658610634297,62.91140938574944,48.311354622095934,39.791662607515576,41.137080885187,48.47496126084015,54.246510166402636,52.159615333183304,38.62600052591194,18.344125382984483,-1.088569157626416,-18.88449269527099,-37.11785542297448,-54.07025843869125,-68.79426110066461,-83.25297372981463,-96.6208093231752,-109.98442924665159,-132.04988065598425,-155.26867791224583,-139.3975210191434,-59.01436692682879,43.59769787372411,104.52743247751648,112.29556666284725,98.07157673642043,84.72294522014747,74.50316504683664,64.4428896841726,56.03173759912209,54.83676038712279,61.92884627085361,68.44563438756032,65.4809073601304,54.38090280277658,40.055011141355685,22.90938767033583,5.216552403871469,-8.316888429410437,-19.56938513323747,-34.39271084944661,-52.680453842859265,-70.82486046615773,-88.73510785784163,-103.655506379667,-112.85153835506016,-125.3136331463162,-148.93039609133004,-159.65569516243974,-114.59985097963549,-15.634458431369548,75.91020631446371,113.31316299527035,108.05407348279785,92.17189872633952,80.25621834736688,71.84517437402037,62.52693749148256,53.01996808145014,51.045212936506545,59.06679087981752,57.0,124.0,77.0
-136.99395187722948,-153.45825849525318,-172.95195158096823,-203.9086297861596,-225.78265974002738,-185.42338365479324,-69.25164325137955,58.88440892865023,131.21662986906267,141.98913150155178,125.09538356947628,107.55259388562429,96.35939272884087,88.8788165367494,84.00875693622096,84.70246837650872,92.17511017360107,102.00953998381661,108.95233153530864,107.16754570860817,93.99631535563161,77.93587122761848,64.69704804706488,49.795760755686274,29.8603711674574,7.1164015138422485,-12.253057629527087,-24.432962830342184,-34.45913552445304,-48.667242726614106,-65.9997023925545,-82.82078767342047,-99.32530774771818,-117.72412381917901,-136.09746173556542,-151.9984153195532,-173.5850725182105,-202.79983289551535,-204.43993223773325,-133.95297791352866,-9.436265001647907,96.11198644623776,137.1308882915627,129.05958152074376,108.4472189150042,92.2959380785238,78.04065083886671,63.17884650030579,56.681951185679445,66.71611261669932,83.83847355560303,91.67169278413742,86.72170087155797,76.3956317883944,62.8741891626095,44.49017953148015,24.482498939070197,6.428078925184954,-10.441909487248896,-28.719866023324247,-48.375699417256705,-67.74124004433213,-86.49466369680144,-102.79706468378058,-115.71647697443818,-133.84244529936063,-163.3662735082813,-176.32047006440706,-126.8006593839989,-19.12258059919272,82.44695620803195,128.9706792823852,125.89443264625764,103.10416037444578,82.94284898557201,70.4751916705131,60.68569333703534,52.55883230241798,50.50977081742761,55.35643007591361,59.66764535137744,56.17484758207081,46.056170613185806,32.646687467581515,14.760766114133595,-8.160552360145497,-31.466973935419972,-50.50235477490728,-67.04753325300253,-85.05093098788498,-102.84104012260093,-119.32475756220441,-141.7513791502343,-164.3015389211545,-146.93497844715088,-63.58050641961829,41.658216917104255,104.4037422431654,113.17841622649861,98.69706705830204,85.1966634266996,74.40469883834632,61.19383859410841,46.02914201833861,38.755335618742656,45.751030749404386,56.764839100898975,59.69995583941639,53.16597880747382,38.69754675422504,18.9061119322521,-1.6010390699222472,-21.323209812416106,-39.85021056996054,-57.37306337563723,-74.59870173899036,-88.92049823704762,-102.16747330310957,-124.74615994298966,-153.93381625295495,-152.34345581623478,-84.27885995559117,22.117739271250258,99.54757353471386,121.07059725915124,109.3099176090307,90.93793116739137,74.24693575660433,58.41366744357084,44.95887898426816,39.17931441065784,42.98308751361717,50.60417556614671,54.702680684966666,49.40450209617815,33.05432379882066,12.457384777294465,-6.271104463565975,-24.10874623511346,-42.27526457599042,-58.47395652436518,-72.95184149832558,-87.33654960998506,-100.16420938119585,-115.17102508542803,-139.9299610249545,-156.7968068092772,-122.26308745188541,-28.388554881988494,67.27069560690337,111.18256635890538,108.95762360209491,93.76031731722519,81.60115704898448,71.63916841207164,61.620161628001945,54.72132870871788,56.26114532667425,64.40594399127333,68.70592331363402,62.83742590800672,50.483246205098915,35.40451609431468,17.60707872545379,0.7926224521044932,-11.524554494861194,-23.321538944051177,-39.518887483235154,-57.99262035079212,-76.02820643356655,-93.60138930492664,-106.76205067533922,-115.4605680861878,-131.27150207924046,-155.362047332393,-153.68153596016205,-89.5282597432768,14.672814656806786,92.76220442863955,114.64930096802387,103.48599693601797,88.1794601771499,77.65694560423498,69.39104371125038,59.52205577902185,51.33752004394914,52.568836848438835,62.075745175525384,69.06590688939436,67.01835812439309,56.68283133646485,41.689707897788026,27.4078273035126,14.106333602130148,-0.09113176992845609,-12.036384079160236,-21.173520353358935,-32.834344093624445,-48.38137741328107,-63.60892397496016,-76.43829424564935,-88.54286798212169,-99.9678981229227,-108.27703131778377,-118.59783341515529,-140.2532510924944,-156.9425568275675,-123.52676057739836,-29.5948708167446,68.13492849559033,115.64914519003496,114.77509500750728,95.99360620697378,80.08425714887761,69.42545143676821,59.11226590719119,51.8894080718378,53.999941193793916,63.51912875594965,73.28276719295745,78.00468156637348,75.30348189235247,64.54025657504458,47.21062629213494,29.202551229954587,15.934022419777088,4.943183170026442,-6.934667828381245,-18.45331501236213,-30.07001612721227,-43.35807439865804,-56.51977185764211,-66.32064721027324,-73.51645570349058,-81.33513109921071,-91.41677167197808,-102.94255315151936,-117.54759085577672,-139.469952719667,-154.3972570731935,-124.3167860883023,-37.44659692667373,60.01929151760191,115.60484643120847,121.4601387352684,102.58427551985383,80.22046646666834,61.41472536757424,48.40363957623119,42.642134919105516,57.0,124.0,77.0
-91.5929774336033,-106.72204718183092,-119.81119077987512,-141.60936049201786,-171.03042273479247,-169.73726672932403,-99.4586326605301,14.002072163516889,102.2216300753486,131.94688781798706,120.05116667581052,96.45397361833994,78.72261942665659,67.56820554828707,58.01638737690201,51.14699094209837,51.40328245666423,57.095427868525626,59.57056142388478,53.7194106722318,42.497664171425384,28.04617650730926,8.542638909169582,-15.143851592512275,-37.45938325334968,-55.31624813353562,-72.0466835097049,-90.40194089289221,-107.53402242554229,-124.86832453156677,-149.45638663584248,-165.55903979512007,-129.03603794042397,-32.08951612039198,65.91341631480151,111.47291941885183,109.85903153073934,94.28400205318479,82.04891211427659,70.98824926211967,56.72987859309909,42.570897167941176,39.4721348803491,49.2334319213606,58.67562539642569,58.69442223417202,49.751879298508264,33.31319952358213,12.910258077217634,-7.37501995796717,-26.839300562951696,-44.941389730701715,-62.4451827855281,-79.15391458658621,-92.47949156820006,-107.30734518521673,-133.50625510660495,-158.89830046096702,-139.74452642747912,-54.48587207242695,49.89321110542705,111.08871291843626,119.62086911846997,103.98049131475678,85.94094384319763,69.6149562976733,54.08179175150811,42.27005192657078,39.43117640538186,45.14942265237497,52.429707942654034,54.355943145064145,45.65022256513707,27.139496808253558,6.786952061224549,-11.381524003228508,-29.397955501422047,-47.23986803829495,-62.720010912793185,-77.13957435855147,-91.25144823805103,-103.82467477758777,-121.35886153545822,-147.39269388875672,-153.7824786832692,-99.63029540828663,2.334135330875682,86.14826444514371,113.80382148991843,104.70278977570482,89.81566951925544,78.66387294468176,68.72522892704305,59.038741092906236,54.166685070791,58.31096496221984,66.52681737106684,68.03463699465298,59.65934870229421,46.39863526262773,30.486023193339143,12.383687724200389,-3.1898955631565635,-14.680205080156503,-27.506552593975798,-44.83383156826896,-63.23360583796343,-81.24091118894614,-98.07653989875001,-109.3880938773669,-118.71796801573257,-138.20979408516405,-159.70002109509545,-142.030478899845,-60.75322869505808,42.48778969233811,104.51441579221236,113.22532015088021,98.73552456158737,84.65018188949124,75.25958667594435,66.74471642536253,56.615963044710014,50.511787409790664,54.86436071662764,64.829676428622,69.44785776464782,64.77641808236488,52.5836900574809,37.32953528806708,23.614333459598278,10.036745206140374,-3.946429963962512,-14.779675759322869,-24.05933160441699,-37.08063077200574,-52.9896442287555,-67.53769943047978,-79.9122484770982,-92.04282296641314,-102.69249568854679,-110.53230775447314,-123.63386002345692,-147.37312617138033,-154.25375931789367,-101.05669320848384,1.4994807057382529,87.99343464270365,119.12308217913836,109.90661882788245,90.68847318051432,76.70405352927924,66.49813410248936,56.358154752318306,51.43820534485795,56.287189385938674,66.61449942493468,75.31385448437818,78.04039468457405,73.01438963596355,60.04033871817186,41.72987288715815,24.84224510678288,12.762770526038064,1.5882572474476753,-10.35507118655503,-21.696631884691968,-33.7407038061681,-47.34016633842706,-59.76824578867722,-68.51679257579187,-75.59794297012873,-84.00904596141508,-94.65024436638731,-106.59813985520924,-123.17466157289664,-145.96656167115293,-151.93841800494758,-103.92609781376073,-7.51365577869361,81.70602924766385,121.57274119029054,117.3046832932689,95.97040945239338,74.30278153618966,56.98819840013348,45.92062988783207,42.64953044999321,49.799186023046786,65.58761325440233,78.21805856867472,76.71326526164708,63.21792010289648,47.22774673942562,34.463678115443805,22.82095035540248,9.207884642501408,-5.0408798369525405,-17.748483259733415,-28.075209187470556,-38.90546714819521,-53.65903180256904,-70.34334499365119,-85.58484040575948,-97.90018954625812,-104.8271189334872,-110.32083605931835,-125.77559483103936,-145.87117018932275,-134.32119768663927,-63.47397434531277,36.03321286579178,108.18504785260862,132.29125993947193,123.5020052054488,102.21840055768766,79.75418988130963,61.096674388645084,48.20403018819377,45.53880029604171,55.09320601151151,68.37764923807838,75.69721262435614,73.83469982255995,63.56885691038431,48.0894792104317,30.678696297340284,13.356653782482333,-3.2054966888756584,-18.709490699015706,-33.31156364595667,-48.12784941003227,-61.75425159622594,-74.63026855768877,-91.5285460827831,-112.19668202702334,-127.70616431357759,-136.01655611633987,-150.2099150507541,-169.92213188380003,-157.05517751047395,-82.04678141986024,22.01260502506803,95.94890776565023,119.69707254649214,114.43907654372897,102.72942206072227,89.7919089117284,74.52380463587802,61.43397519511624,57.0,124.0,77.0
116.23814835423198,98.58414621815034,81.11122269134542,65.01586917962702,50.03813259637881,40.3742224442357,40.45049408195855,47.43396120010378,53.80446516211808,53.08318846669967,41.01153328709057,21.1099569173374,1.3495527009843393,-16.502917806985494,-34.69551024218954,-51.96961470356828,-66.88314033294093,-81.33370803231881,-94.96561855439732,-107.88893525504962,-128.50800717540997,-153.3623024723216,-145.29884404967234,-72.56524100521983,31.291593918876604,99.89154937110692,113.30677270551169,100.15059721269355,86.25204014756126,75.81248298214946,65.78644614533542,56.85748164713789,54.43545856141899,60.7517210687582,68.02315399022041,66.47183678414929,56.108438944273,42.110749213540714,25.336868451752107,7.397844910853546,-6.772109792559634,-17.96514731170004,-32.13000506016111,-50.209264017313224,-68.431317636259,-86.40299457861038,-102.02959033505766,-111.75723428189788,-122.96377903088464,-145.5980834512708,-160.6725497573283,-124.53536898858081,-29.976182424514704,66.43618708658464,111.50991579371528,109.95533401612242,94.16134297712864,81.55543568405626,72.93177579120922,63.89419583816052,54.03425329697495,50.65091352013581,57.67910973953371,67.06943843413254,69.02100884147632,61.893264808926894,48.21576946989276,33.158012346318586,19.82109793818412,5.888338966380616,-7.489899607141596,-17.357764430580744,-27.315647303487914,-41.591167500592675,-57.45586465375412,-71.2583728759748,-83.398216871974,-95.42915357990371,-105.10109612428141,-113.21499453049194,-129.81492180430428,-153.2588487730222,-146.12877758074328,-74.01430757686927,31.01143189596541,102.81399695740055,119.15343149063264,104.32555682594271,85.94003296534306,73.65396108465305,63.49203481315124,54.04852744754459,51.8757674657198,59.04689709575761,69.54986181540929,76.83010192396198,77.42081879907124,70.04740741975196,55.05483339981322,36.392128454338405,20.950696765747907,9.637456784109823,-1.8577276111660666,-13.694322728810734,-25.003971586644543,-37.5707036828177,-51.22564215484532,-62.667957118464706,-70.57292280934348,-77.80192107564444,-86.89364869962951,-97.95280813383638,-110.62574397469318,-129.50885235550376,-151.21351398976734,-144.64452165841936,-79.08936273310023,21.68838875435409,98.90903681363237,123.71525908784474,111.82669787881525,89.41376389390017,68.75320343678649,53.090983760442015,44.071694349600925,43.55187426897119,53.82438244710528,70.22680386550743,79.40493318272426,73.65385098536119,58.45750315743737,43.17042932976175,31.199107576710926,19.095014990502268,5.0460409871260365,-8.94803847273035,-20.93567945830633,-30.93554665506747,-42.74537615961843,-58.47363567327545,-74.9671072419737,-89.54154601320802,-100.50984177501681,-106.06863227252717,-113.41243326308592,-132.2191436695798,-147.77205480877177,-119.80179848833707,-34.99183531207015,61.531247668841395,119.83305637343047,132.09507273793125,117.96904957150497,95.53861562434287,73.87163825462314,56.660953672850454,46.126391284448445,47.241423380947424,59.07644971334141,71.3660442007724,76.11502359252273,71.63081432993991,59.457599354220854,43.153271249293496,25.60051565626811,8.497448967473838,-7.824821397221416,-22.95406232084232,-37.58327814984006,-52.27185298129079,-65.3775180145471,-78.90939171905642,-97.41803899631276,-117.60713782079569,-130.4659018876144,-138.87388293280233,-156.40029648041906,-171.72488579173157,-141.56168200789756,-52.14396583704856,48.41496111247166,107.49613830753808,119.85957875355733,111.19800467907612,99.1858454330751,85.5804292024976,70.11952104947876,59.40266194813217,60.98670567367045,71.30738662019725,79.35834262625262,81.29523668959521,81.87222021976828,81.1756910176887,69.90424959691508,45.56864056521476,21.29606133200245,8.588155743667096,1.5609760662849894,-12.840863834966143,-35.88268446904953,-56.75321302878306,-68.98064016259421,-80.48747035551085,-99.83850538044601,-121.14031043362534,-134.80610829431302,-146.5967359681757,-169.6749205724203,-188.684107052785,-155.76623214918934,-54.78590748680021,59.31845537712638,125.69467496612333,137.88247751124592,122.81303199818454,102.05490261455697,82.89531701170333,66.8435458938653,56.71955199519559,56.24740642893503,65.08218356604254,76.36105734143987,81.43312815239105,77.19545941180537,65.20665103470995,47.87891459338822,29.65927177603081,16.641598286196594,6.710564421765884,-7.479813215212518,-25.44661858135511,-39.074723184737195,-48.425899639575015,-62.14515277118211,-81.4443450679804,-97.8985835075125,-106.48108209854395,-111.85110185960606,-125.89750256034804,-153.4611529867507,-169.37210146561458,-128.37784296650588,-27.015565876206793,75.90338378505957,128.84056763156758,132.21344281803403,112.48191175397011,89.14157068483082,67.82199370617144,57.0,124.0,77.0
60.70207077410906,68.61573396440487,67.81961804973943,58.440623521259475,43.74325288522103,29.185596653562136,15.939615079659315,1.7653868956160803,-10.679684666290427,-19.93595868085293,-30.997038095966467,-46.2332607002219,-61.719932584847115,-74.8254235609167,-86.91631140264627,-98.60161089980517,-107.29007916405209,-116.66605376413298,-136.86639521164207,-156.61713345585125,-132.0352663137657,-43.95806569875878,57.37370972672169,112.66708087486077,116.59429209623725,98.580984828199,81.80061419186157,70.75465779928481,60.47090488997112,52.38964091323005,53.155977654563394,62.08136268653181,72.19292090328989,77.77424561951302,76.12864939375042,66.42244005770551,49.72971652731294,31.373372517122,17.450948892281442,6.450100846038798,-5.337066886794766,-16.96095793108167,-28.43505281231764,-41.51782824593866,-54.91217031290706,-65.2343796029127,-72.58271077665684,-80.17453617547497,-89.95775938502909,-101.33671000240658,-115.20601168081629,-136.30777541109862,-154.14140627704455,-131.98706877458582,-51.040747709497765,48.67116762559977,111.40222733727231,122.74477794159033,105.59129276407394,83.05818630150517,63.62385381973262,49.75011213119323,42.91819627865994,45.40345296178244,58.43846259494539,74.21741915159761,79.2418857275859,69.78447699348527,53.733865716562015,39.44682543153411,27.90254386004101,15.176729363296394,0.8945005037732803,-12.680254368518044,-23.921378675333408,-33.95955503857729,-46.958898982474665,-63.34141430957765,-79.4180064902846,-93.21810174951167,-102.59243127164903,-107.41711105222053,-117.63824155659131,-138.61823435144976,-145.85577643879543,-100.05288089118389,-5.5225796298853345,83.5015757528516,127.45511073337036,129.73283384563567,111.8085368105728,88.9520590050483,68.3786019170897,52.744532185561866,45.06485682372929,49.91990948271025,63.069636576613725,73.67729769718538,75.74805682829039,68.76670061844513,55.011496572999896,38.116541931306784,20.574706534235876,3.6958690786510573,-12.334132092403248,-27.153004651607947,-41.88759676942266,-56.25151496887775,-69.0075535000661,-83.66683460683615,-103.50493484244116,-122.31300418666181,-132.7406016539157,-142.67658711962088,-162.6964873785535,-169.5134805740638,-120.61709390802237,-21.298004744034987,70.97598747833565,114.9279011389706,118.35708546481114,107.7966747668323,95.51536203835505,81.15633909785835,66.09537183356713,58.48922137840911,63.5435019120328,74.27487680740792,80.40412237367096,81.38810867271926,82.10786736202176,79.43289361374154,63.856225413191,37.797361546450205,16.347511749058548,6.613239607883815,-1.4633761050194145,-18.971105879004625,-42.66642376211321,-61.070751272822285,-71.80589774651173,-85.24869847343945,-106.34395233728631,-126.00407657453646,-137.69376053887754,-151.93982952930264,-177.41727413728432,-186.55095838584072,-132.2785771547935,-19.74765615777994,84.79219043924947,133.80176083961823,135.07372440684298,116.86346472378438,96.26239005428769,77.87101926638007,63.117251607649784,55.49550194194836,58.022051799311164,68.52700303689048,78.72722683115786,81.14809030716638,74.41560398921297,60.63463335352251,42.39233402874138,25.240316188473038,13.797068693852465,3.269130602331044,-12.624243393332069,-30.09269722679697,-41.87369713912456,-51.62158758080825,-67.4427891837792,-86.8766129051567,-101.17037530519708,-107.91516612337097,-114.46707756121248,-132.86383918557362,-161.27643538645228,-164.91564079189638,-103.48611328700142,5.699637897295417,97.25299040801794,133.8542233579309,127.73298687768724,105.65079211101417,82.73616839891748,62.21075675773498,47.04995499272476,43.60556922493424,52.82145367570723,65.77838732005792,73.05268340105582,71.7152761708554,63.28019681239139,50.37917076796571,33.491786675023775,13.870593664495756,-4.272798470170249,-18.483289094493777,-30.055419644294197,-42.14775885149642,-56.00128637447311,-70.33137828578195,-84.35797749583193,-98.67613943295711,-111.62302731242275,-125.2753536497314,-147.72209281055822,-164.21371095631102,-131.56614301116252,-37.10187393755195,68.10193043745507,128.139025034061,138.42434193662328,125.06507404468746,103.26573371409346,77.24526125275065,55.406412053216485,44.55616684053409,44.022266015972164,52.275491092027664,62.971928650919686,67.3360958449956,64.49157501345917,55.94652546107844,39.646798284129616,17.922627723668036,-1.0390980714581795,-15.53409695630733,-30.93638768911771,-47.87816617414582,-62.74670979219637,-75.80560482103802,-90.10235533868354,-105.74020910132043,-120.91280936868203,-137.40383647801124,-160.8969992933389,-178.47093843189268,-149.03297104016653,-53.87843518393711,59.40777294906442,127.65609622485823,139.6008617979709,124.6351048887742,106.04292362221594,89.36954950055687,75.49293249091568,66.52679011516621,57.0,124.0,77.0
