-75.67894128219388,-952.4453702278756,-1215.3666690764026,-1072.6869538150922,-940.2221050818695,-861.0193924815535,-729.8124737991084,-563.5035958303828,-438.3164359891472,-368.9781487050022,-321.9138021817978,-279.1332176577693,-246.7731488626309,-223.2809116884784,-190.35935608599576,-137.41293127012977,-74.28426689083103,-16.79790881197837,26.10689058566679,50.54391457709844,60.20857654046432,63.73821389134007,64.16498776017158,61.39702813523796,55.58724830306647,48.77053795196119,43.62782582495645,36.755928558372226,19.63370130757918,-3.937455634346124,-2.384915119445407,55.10531132813768,148.87775751603817,225.7072744463698,258.39322371365347,256.7614033246743,237.31744757315977,208.27561347137757,172.8985114498267,139.3281961241788,121.33901828802776,122.85738231191323,132.20643044591725,135.38605384827898,127.56020903631075,110.82335722785095,84.90368365019773,50.441098378976456,14.388426037250955,-18.46894495305917,-48.818120249682465,-76.71037537859051,-101.18993319532733,-126.16829573038395,-157.35759294392153,-185.51113534941265,-179.95135362311265,-120.41866604275323,-32.708408562286046,35.7712364288862,64.784635830099,62.01228234204658,39.35615235326263,5.626174787389249,-29.88676903250157,-52.95210435201397,-52.009146007360556,-29.82008923377067,-1.6380903356413101,16.895800953674385,20.126674066585917,10.678442546707634,-6.869811030370786,-27.421688050821462,-47.17056178906759,-65.66408395282151,-82.77111015739303,-96.99373914200841,-113.11908542157977,-136.4711129171852,-151.74341128077108,-125.49255272443774,-47.76856926767141,43.27451806178335,101.84709735201831,118.82805469990768,111.1496667632121,90.66143290784522,61.8505836461433,33.258730246072304,16.94482741850176,20.260654175218693,39.478761833545015,62.07161771800857,75.67984239644659,75.15317255773495,61.88656431688082,39.68121060197449,13.174975885377167,-13.614293122505442,-36.789789945394276,-53.534968729084696,-69.33144425112908,-95.18077698374702,-126.88614743756415,-132.46773708012836,-80.41366030506346,10.365046358688252,84.79419262331874,114.42768781995046,112.0566598679366,96.28595476222405,72.12956377746457,41.25516373512555,13.119163512629365,1.4807423167976086,11.957947069915905,33.54186933803676,48.776177245917054,50.00078393498985,39.508084352097015,22.092148126963345,-0.12810096276504485,-26.53577974807764,-53.559851694014725,-75.70692599453972,-93.06694264718357,-115.92853352128586,-148.4167639257879,-167.79822299493588,-138.63385945488312,-57.743543490425125,31.138335077347783,83.47255901499373,96.23434331010587,92.10054115214967,83.29155334287036,65.24932992828573,37.6867366527232,16.802317774899635,16.427516516428508,32.70528253175579,52.25510598443917,63.22496128599771,60.757067442134506,45.67061501333011,22.85458827137188,-0.708232315767931,-22.865809172670897,-46.819643857636976,-73.03193531528117,-97.01977679452727,-120.0089671532506,-149.02867694210553,-165.5293044343721,-128.88999903021386,-39.53210414711644,49.47378124732326,99.99070053822237,115.64941255302799,109.79890893850344,91.55949292968592,66.32764519477595,39.913944731150956,24.854685142002364,28.990058719871048,44.05045126533575,56.98617316530104,62.26943523277405,59.63217725177637,48.381258875116124,28.306882968625818,4.747954855316126,-18.999860703217582,-46.75963009705695,-76.2261349933075,-99.00280314251656,-116.78379643023843,-138.84608524112627,-161.22542443965284,-156.7435018266157,-100.94672199826104,-11.514043558053638,65.81741944302547,103.65031950016132,107.58598971728284,95.99262722699858,77.45613964404231,52.161205652885386,27.875309429466245,20.968979782377815,35.94939353306382,58.9868959276833,75.25679714720299,77.20630193791766,65.39227643947633,46.41169814721079,25.973319123338126,4.314303992234012,-18.508344627339604,-40.941298394015355,-64.0198503719513,-87.23134828086799,-107.62117507484786,-127.62062885023283,-152.96159055622445,-171.71957283755523,-148.43201903615383,-67.54795663377061,29.584280626080105,90.4670880728647,106.9487980371863,101.08248172443203,87.79499726106135,66.53617348947488,39.580774401608,22.236338384842885,27.262596605677498,48.80211057536271,69.85297876398695,79.95860963183144,78.43334289887298,67.43026351140581,49.71057409782088,26.967932881639456,1.7906321504859217,-20.830795409014687,-40.76220674978093,-62.03748664987465,-83.36629170430214,-99.0093563862469,-110.56769261484634,-129.44267188691308,-155.5623746382637,-154.49249963359418,-93.12998870611521,3.3242733803704327,76.65070198261601,104.59084962928648,103.99946769990002,90.5001222424608,67.33261413654867,38.842333303376506,15.720277969898946,10.009987262005502,25.993033116137756,53.17173450448212,73.35874552682945,77.64632184380582,68.22582013251306,67.0,124.0,81.0
30.39919592751269,-4.983481984840692,-38.52600490444516,-55.34003973783438,-47.25619212820258,-21.494058479079253,5.192976491695836,19.36497358579057,18.5115474807552,6.218568975239419,-12.71799530465858,-33.29457465618666,-52.60008829015605,-70.83829191668723,-87.14059010196229,-101.05526497692486,-119.25692639477157,-143.09503107320307,-149.7521082987827,-107.42791186675578,-20.398291797582864,64.75665086375551,110.45085104709895,118.36147637239654,106.33391880706199,82.94053508427135,53.03979050047643,26.793763631201646,15.818313511688077,24.63665690068012,46.28832540433551,67.32131532127711,76.9972813782925,72.4865539999766,56.18804323330979,32.26702088179506,5.306995233915837,-20.87491609626807,-42.2639712052682,-57.67933596675181,-75.46076700419349,-104.65945170551804,-133.078015321217,-123.72178922251196,-55.8636838169862,35.748796803032675,97.93036530424862,115.99884557110718,108.41429300548344,90.17980891366653,63.65402615368599,32.22745849704156,7.539182549433484,2.40942421689084,17.881290270339687,39.18929092430981,50.589808272172654,47.948679889612954,35.021873979003125,16.154859578725656,-7.407016346411084,-34.53276597921299,-60.64558006012561,-80.91596907959419,-98.5594828783693,-124.76358812821064,-157.0272123931067,-165.49805058315243,-119.31281511009959,-30.38084363791843,51.0241325271898,90.34207071013553,95.82852735624488,90.04677389556026,79.33954821213857,57.80262816969021,30.065775082427084,14.437444905749683,19.94585360085106,38.64226603700489,56.66415987185344,63.93457270072213,57.556283263437216,39.55733129890066,15.876781556626586,-7.151733069941139,-29.46389003116985,-54.31233467257474,-80.37259163422621,-103.37680221020585,-127.81379177264833,-156.91104288945974,-161.69506933994063,-106.6903080890342,-11.20341960600739,68.4350572495516,107.42382084222257,115.70706577625128,105.48114427378385,84.83387259816733,58.37187408911053,33.78625796408798,24.157817671312422,32.86865308075011,48.41978682842872,59.34780081069114,62.31426548675471,57.3396060112616,43.3645177744973,21.53845258348746,-1.974398824288585,-26.483706129314804,-55.48732147173413,-83.71709204611716,-104.22076617030051,-122.46784446317155,-146.08626318196727,-164.24622988218093,-146.07075665017896,-76.64557009061137,13.941383812296412,81.0922504887029,107.44641597849116,105.16697865673633,91.31895759608204,70.75995073920157,44.348603679481776,23.479142302012274,23.429403464386656,42.562136268640536,64.85086956372912,77.43375830020415,74.97446120751962,60.31186335513364,40.54641573452417,19.90980312690798,-2.257061386106862,-25.025249793207177,-47.483529534882095,-70.84966488393161,-93.4730992041854,-113.11851262092227,-134.37579056800956,-160.35801065112514,-170.93396443535843,-130.17032752948967,-38.334599733025144,52.23224812994358,99.01154616314246,106.53350386165968,97.84204974968758,82.61583428010641,58.852518665602474,32.762994569328775,21.260106347536503,32.50362319864887,55.624911313965995,74.05257109001934,80.62873955628191,76.11331276787554,62.88768808383502,43.61252394468439,19.719350229648086,-5.162086670195763,-26.687031084423186,-46.66251449680977,-68.45760589902602,-88.63180039607298,-102.37351554327041,-114.7517212877667,-137.11766205364034,-160.17330828014025,-143.1523591955064,-66.23721407531721,28.93211604342236,89.02113338885079,106.36359383628869,101.14936042482293,84.7357970108065,59.2724418697453,31.03840427114378,11.85678339506003,12.56875824088667,33.507686721323644,60.39537507067291,76.27081689206997,76.09126774562282,63.803407784495946,45.52140652710311,24.49750346986981,0.9273846344074116,-24.149956471111864,-46.43776828233672,-62.00321517371241,-74.28838098622779,-90.06304932573036,-114.141211360583,-141.8475930801827,-148.00771548593772,-104.60681271297527,-20.346415695325767,58.72729440035131,99.01750048058172,103.534242048815,89.77145832280979,67.12252894729212,38.37981230071586,12.164346398041115,4.106012804120915,20.049311637060267,46.62443975104062,65.90697904566879,70.91919379560336,63.084056458552986,44.90272513009588,19.806400928361743,-4.576548596963737,-24.269700855700165,-44.01680194853039,-66.42094399393368,-86.78142253394066,-105.66093320308889,-130.01228355177886,-151.71558661140662,-138.79672021230076,-72.75082829468626,15.415145563981923,79.48988673522314,105.68548864069254,104.89838348268377,88.83371746953443,64.46143302301267,36.339488558691166,14.488137014330263,13.33034861377922,31.95971987948867,52.97602553440725,63.07940941219423,62.26084169438827,53.96049419528619,37.69949485306967,14.098250840987554,-12.579616909885864,-38.25033744390256,-61.78285077365105,-84.17593329095014,-104.80321839355629,-125.68839127931929,-151.79335130797153,-166.1736841484967,67.0,124.0,81.0
-67.1888479140466,-85.82596502030614,-104.86166106988777,-134.3195279043113,-163.68346821785605,-158.30919769379352,-96.12305893769248,-3.7779977120288004,67.0599867795506,94.30157294961795,94.62167189946851,87.67897306552052,74.39729282011612,49.71510134305092,23.539915961423564,13.963095108728107,24.59756013151617,44.494871916870174,60.12170405669126,63.4783363679709,53.358272962211466,32.95957217856887,9.006609559625705,-13.509889690608821,-36.31088782432556,-61.940546471245845,-87.3828594001697,-109.82117029701142,-136.28122558702262,-162.85672113814067,-152.42544822217226,-80.81045925232492,15.509571866384091,83.74952927631576,112.32318459570955,114.23791155251358,100.32714908403841,77.60011874491272,50.515364043178074,28.980416470492735,25.112069944299204,37.30644876943024,52.33732655367732,61.0258831612087,61.71066282147203,54.28516595663132,37.63806685118223,14.681155753507475,-8.736972785627934,-34.424630615470356,-64.17281765597976,-90.45079662269482,-109.22962317124002,-128.73123795099139,-153.04290229480574,-164.1319214203203,-130.75793298962125,-50.47984182551887,37.222019972876446,92.74920519261543,108.82847812972297,101.88878161617204,86.11630269671289,63.4860355465755,36.953739200476974,20.95875698693683,27.600691088737694,49.39433388395537,69.86221436849644,78.29438698205935,71.69596136741096,54.82469858607682,34.65539877274441,13.692851065401872,-8.877603702753381,-31.491960302178313,-54.128732059941925,-77.62978044619209,-99.40638690889139,-118.74007907588194,-141.69995620209664,-166.62657247993425,-165.59840043045233,-107.21233111003178,-9.330034352232458,70.85283890489252,104.1657412704826,104.88464467081994,94.15031381399042,76.65158793728105,50.88063656359252,27.23047979096316,22.33028975945111,38.77266254111618,61.97683761079131,77.20778804272068,80.37170966133131,73.0588863449759,57.85770559069873,37.108329127820824,12.374789703689867,-11.780375444924273,-32.398438745600295,-52.775271072856555,-74.75709685627805,-93.28393312067666,-105.55786765010022,-119.9062727845464,-145.13118439164464,-161.29715201532628,-126.31065329723987,-37.74112946851491,51.227087180850155,97.6356693020579,106.35465912114562,97.43191599715381,78.17385484223492,50.94173673680467,23.991881171676724,9.724612264731938,16.925995272407352,41.54299021026803,66.59784041241178,77.7885444399926,73.51111344750598,58.90422265160702,39.69739915916426,17.948110290419788,-6.284240107945251,-31.13553359637452,-51.630489234075576,-65.57594369934965,-78.22396476842464,-96.05995137808851,-122.48873929925797,-147.3634899545041,-141.1569338390782,-82.78066270989436,5.1940977249382785,74.83318319477634,103.21484986685697,100.79401859874713,83.9951817884406,59.271518665639725,29.883281151950598,7.360308722936522,6.512064124924764,27.548719391467735,53.489566021227674,68.84925929222796,69.83368773704285,58.81748732707867,38.07909786915835,12.342019313737435,-10.664198596883498,-29.67899641424053,-50.36324242347486,-72.70409093134047,-92.07437669986093,-111.98531409202944,-137.65226576924374,-153.11439169805837,-124.74265575999681,-47.20761165207283,37.76362219268721,90.67248848404101,107.60998025165547,101.44804470378016,82.42861685931902,56.48004401032599,28.676279021209705,11.6306029440873,17.28757330052637,38.63012712467544,57.22584602199647,63.75998381627912,60.59017835582039,50.1347822721388,31.49133178788611,6.485483968176949,-20.21553253497372,-45.23437446264914,-68.34728973368166,-90.37399603749023,-110.50345179039628,-132.7864845994238,-158.77173952344992,-162.49022765968166,-110.67887073618117,-18.73595751230273,61.458777065822,102.2107264078528,109.59259201907332,97.65249859975978,77.09996886195304,55.16282189651856,38.17843740742728,32.95122158458976,41.479501155806815,58.751977023260224,76.22705699389385,83.68354917559024,75.28271497040478,56.341501436754264,35.22504911935296,13.319489706386387,-12.184604964792229,-38.54527430844906,-61.72977022765433,-83.6341811595494,-104.94514227558147,-126.73669677435083,-155.68939779642423,-181.25504309127365,-165.68184238192393,-90.80982465000903,5.3749597162511,73.41119726612503,101.83983440393064,104.3719299781558,93.22134730728223,74.70884536028136,52.89748360848432,35.54237198254299,33.25256606865599,48.05285973331271,68.4135903476062,81.2981094189487,82.69332580108615,73.19433363845322,54.77420936896955,31.998917363024912,7.014863685698726,-19.574854730357632,-46.29196299073327,-72.43495893724253,-94.88578151382865,-111.47899976088652,-129.79718746817494,-157.79625363144046,-180.51460663411646,-162.58860940263173,-88.4410385603669,8.785801257053677,79.95488839199129,108.30177117557844,108.18505074590452,95.70413742398574,75.90168470699746,51.91308367255192,67.0,124.0,81.0
80.33199613511833,55.785569637699716,30.44651495886844,20.48983590551433,33.09480239697411,56.060387049638905,73.82577983312932,77.84093180740513,67.546470235008,49.09659371876641,28.729371946490005,7.3082537023978515,-15.481739667028386,-37.95107082610734,-60.88003901123664,-84.25558551530946,-105.07101289739843,-124.70376712648454,-149.3972765950789,-170.79617403644855,-155.08985341962452,-80.63210360958537,17.94518437319631,85.23372324284175,106.57600653784604,102.41792710822155,89.94187804696178,69.89371904713495,43.02968743358441,23.37229598519655,25.31495991993764,45.59733347958136,67.57781371350632,79.32330602070934,79.23749181590556,69.34393326718738,52.38048342736046,30.23811192111791,5.0891007270090185,-18.048183837085435,-38.10085725954053,-59.084485475339314,-80.75216940532002,-97.32640120949598,-108.8853801308457,-126.18372066809938,-152.60495934432097,-157.846545420635,-104.54084665567555,-9.317603185444755,69.5819477969726,103.02412766625612,104.99571217524534,92.87933590613872,70.89416043989232,42.606039715526485,18.024048937685386,9.47371113736644,22.83847899795566,49.591690267975075,71.54125920780187,77.97832054890026,70.06270538985058,53.65345958129249,33.67363520602523,11.179326775590265,-13.575911870615634,-37.74102772412814,-56.211029134006814,-69.04333339472528,-82.60204324192102,-102.85895298820732,-130.86880766893103,-150.24516016264616,-129.61180383742823,-58.283822986409476,28.990841564510667,87.24671120819637,104.82040461838551,96.93998010227351,77.58201671261838,50.960937556173015,21.923623356836373,4.474585618806133,10.881502762656423,35.43366057863723,59.38130430330122,70.55167955081025,67.75899019299976,53.72128494733639,30.804843881707395,5.1568491137078265,-16.355702459248903,-35.28223453616538,-56.89234946189732,-78.66560091765625,-97.38060060947795,-118.94957355333533,-144.60636964538085,-150.6483933745621,-106.19739692571582,-21.086877305274168,57.14890765752021,98.75516005977278,107.64317184984331,96.94838777536205,75.46450821056243,48.27405362318928,21.900037683472377,10.822780253898852,22.640407394542205,44.9901690230857,60.380435122165636,63.640092045280284,58.34475579783344,45.59794939556939,24.73041215706203,-1.2568537267888376,-27.688390220811424,-52.04821314016777,-74.84735992892443,-96.3701530587731,-116.36768415533567,-140.41857943672653,-163.9928627087294,-153.7759562884239,-86.06229348987384,7.686906057352425,77.43288637564635,107.12024990444483,107.57706219087198,92.22931245343918,70.63588449017614,49.43786294692011,35.21737394665835,34.12416791169594,45.900741968119206,64.22098709578377,79.84129753058232,82.85783219898765,70.45347196125083,50.23823525956247,29.115710094653156,6.348287992720946,-19.983869147359854,-45.57545983835147,-68.061045583894,-89.92856201425029,-110.91798179156534,-134.2227337120372,-164.7738287218752,-182.7406220270314,-149.43607182038733,-62.590082307493724,29.252548308565956,85.252231892733,104.55535049750826,102.18838239024956,88.45501586881817,68.5174012091711,46.93723957041299,32.96992511305322,36.076011008357234,54.059857934996685,73.26360282926233,82.8644001345678,81.03798707477972,68.60540418061255,48.46478319058985,24.999094615254904,-0.5681829307669406,-27.320245198179574,-53.96542537111289,-79.51177704471922,-100.1584216063897,-116.04005420795437,-136.97009725431883,-166.31625928418632,-181.00963737382767,-146.3682431476679,-60.31597265415651,33.590836344463405,92.24953639703045,110.28853050587325,105.44499325497176,90.68191252879963,69.1009760187937,45.4727489252149,31.48956553084497,37.51554037242923,59.41522617621759,79.64981918554598,87.89017272815744,85.09426029725104,73.34068164633703,53.28734194852945,25.7107728253138,-4.14627980850116,-29.024734077321945,-49.22649556053273,-70.14873801522963,-91.36540665068142,-110.59097895641143,-131.88153652249818,-157.77515783941328,-173.66305291663818,-147.76754742639292,-70.83162875175105,19.12855978105966,80.45585977179776,104.33058466452601,102.72470944851246,88.55238146439413,67.61086034343361,41.90107518348306,21.974435155486404,22.983113163869486,45.18755162231005,70.77599144582291,81.83117230393647,78.21897667846224,68.0374653735592,50.891958894872694,26.33764447756879,0.9843131718655945,-20.89804248892381,-41.454590630486635,-62.28950565575045,-80.14614361147255,-93.89921388037824,-112.3636081103507,-141.42633401880533,-158.59974410037398,-125.26840262710247,-40.3170520773133,47.20868687038342,93.91361185342532,100.3588967574538,89.89828502100758,74.22170917607752,50.62710977566953,21.699486331852857,4.740653111565821,15.110384546814021,43.32824902696596,64.68104704792442,68.46955650921477,61.530719464705996,49.183854123057976,29.557911581670567,67.0,124.0,81.0
65.91029824339053,48.13846063444875,27.442725193126346,4.204475490588467,-20.843595298121414,-43.83096713456205,-60.268759055625395,-72.5851165437378,-87.55334165993015,-110.43067583189801,-138.66183597910435,-149.65170517788218,-113.4701265925266,-32.3854700515752,50.09427520152426,96.07384572301753,104.33382931343708,92.20678156224406,70.55865777652474,42.36649257766077,14.937098985823786,3.7168553174105288,16.868895882275492,43.20258494440448,64.1293853440101,71.0634608384168,64.76272932350932,47.8479852649078,23.28976847255657,-1.6136066025187412,-21.79545560655386,-41.185746176877764,-63.44210347156919,-84.28636075953914,-102.9443650191568,-126.45245099134208,-150.01193561275312,-143.65055461549647,-83.9493682175118,4.287814941375246,73.22173804366322,104.0677165429599,106.08339322609106,91.56857169714458,68.02800145414565,40.05303951957115,16.44669773042956,12.087317370713905,28.90682275456865,50.66540315598385,62.459828107417536,62.83715473470741,55.493085610155624,40.34959573847494,17.530615989141495,-9.019555971436438,-34.96471163382739,-58.732857804367036,-81.26100980587272,-102.17251053124033,-122.62169903914017,-148.26332745931083,-166.35115472221426,-139.8043647398471,-59.14271543402429,31.81478862461886,89.8830103879057,109.59719119629099,104.26844810320253,86.30578101463311,64.20385812917335,44.28701674129448,33.40484195330153,36.41074494289576,50.883926199870245,69.47578318499677,82.35756602813736,80.65644211889948,64.98609772349627,44.11941530128347,22.88206968757057,-0.9839879490800464,-27.700557701828487,-52.29796625425689,-74.381443155286,-96.12298601942616,-117.03375920000514,-142.505570137164,-172.99216265568302,-179.67063949340186,-128.3047714658736,-34.04318665844395,49.82008042872382,93.94321458407754,105.51386089438174,99.0877755249641,83.17860253892574,62.148366146301925,41.601124624651916,31.91055940214992,40.23222692297067,60.13927612752913,77.2379931250613,83.47274786172548,78.48288461892369,63.35425830005045,41.9119449818025,17.820296762997554,-8.256811103447372,-35.043128668096784,-61.58085811595274,-86.15543426016063,-104.94678762962056,-121.0553483068144,-145.05065193858604,-173.72183256069027,-177.14907282650165,-125.49461588890715,-31.55173829928831,55.15332569400302,100.99766673742506,110.42203372222671,101.95566276106618,85.07127945132665,62.07206518541821,39.84122642911016,30.988714558706317,42.884404056553464,66.18538530100894,83.33450585652906,88.0911757151583,82.56636162622695,68.39898254054718,45.97734922248087,16.949362961924457,-12.030639180949567,-35.091777650957916,-55.055547891582535,-76.43501806975765,-97.05778964070511,-116.26052859804024,-139.08283683476344,-164.65901945284605,-171.78477768214773,-129.83005582124557,-43.87167787407904,40.8280890001329,90.84624006678958,105.82154830363362,99.50749249635487,83.13539781870115,60.45399840261902,34.79405981634728,19.690759736476785,27.76259577244167,53.236294356123096,75.85610101919329,81.87163445547678,75.79051347440914,63.96324888503394,44.35236247617843,18.7650132921969,-5.682391002744766,-26.818340767464235,-47.51355419792206,-67.94817661643462,-84.34494852366734,-98.18647705874947,-119.99452326929826,-149.41080658902607,-155.37017695502053,-104.47809999448992,-12.694262954893066,65.71037559533858,98.9449651455544,98.15552384063669,85.90395687774394,68.37245359853999,42.29313116383325,14.599150347667182,4.79107813591094,22.50570165635994,51.12468713465128,67.46226529289748,67.15309974622726,58.53484732951076,44.35017216497572,22.538301370211816,-3.613791868846745,-28.577595065632003,-50.293856468697534,-69.82704324880605,-90.19507427680743,-114.60701076625196,-141.3086215880065,-153.18705398526794,-120.98012512903823,-42.0929155258868,42.5102143204267,93.02641867390943,104.74707813762272,95.80713501095927,80.09904901978261,57.07263860369822,27.978838364424355,9.0375700281442,14.102058146594885,37.61617222545167,61.55876498892567,70.81527254521154,63.01618719847563,44.71962689044261,21.616989328713277,-2.7972925385942022,-28.01670549276701,-53.892062583375946,-77.52805913757375,-97.69592629263978,-120.39615834793278,-149.81639003209486,-166.91416452452756,-135.70447913329102,-52.029790303516585,37.21766014930415,87.87824649892792,100.1370325233715,96.99442627276372,88.66857712714602,71.91019298799621,48.48294328950913,30.64740497929833,31.43875121953729,49.633195334676444,68.88869608968524,73.24590244981856,61.525096626978275,43.95336495409808,26.354136252320522,5.547090518681756,-20.303391696796847,-46.632456753708,-68.07955667425972,-84.78070075776017,-103.04055132204223,-130.1950379029668,-158.78574600908073,-158.80503912474666,-106.63700458750448,-21.310940066891206,54.284782354009934,67.0,124.0,81.0
-164.7816370452091,-120.87240506423105,-31.401077849526327,52.89313249145553,99.02313343260973,110.00631622471933,99.93185090398698,80.05181602748313,57.94709998886637,39.895974045111444,32.81130266955398,39.6822504344971,56.22723371750239,74.25615007914074,83.58553792640505,77.22239902999179,59.12194376109257,38.02823585091104,16.410529173352995,-8.607116071820878,-35.19286537411387,-58.78790461410341,-80.71545563401249,-102.1860800876221,-123.53789729503247,-151.4475647761908,-179.30300000034265,-171.36156283011059,-103.28839355491701,-6.585063707826552,66.79632011062475,99.89736916512061,105.0190914889234,95.22449426066851,77.46670527146746,55.77610818405783,37.18728291980907,32.459497112138436,45.417498402301334,65.92801291987585,80.24539503331476,83.15046836451377,75.05445719165276,57.57695137653298,35.167356227454235,10.46308203503988,-15.999883392337095,-42.7459735140412,-69.06150847558278,-92.26431682186123,-109.43663797490358,-126.82435936273271,-153.73284118220434,-179.04219241050112,-168.36660854111065,-100.80069520887372,-3.5336778675147205,73.01445585022591,106.62118385479198,109.14733173156046,97.81782468066588,78.90810264428374,55.05956349789509,35.35754182823048,32.345949219248965,49.27753050939395,72.33518625914012,85.9303557860808,87.44790145658072,79.32458396566501,62.765176195339876,38.07196016200744,8.191971921516698,-19.346247369787967,-40.885993287727814,-61.06973564230135,-82.64105833380191,-102.57913397620509,-122.2649961863033,-146.66365460101176,-170.11260937778903,-165.53648663485194,-107.89067397208419,-17.140528923332067,59.38134333571597,98.23291124889468,105.56020993006214,95.50739462911217,77.20486826892162,52.95391697453426,28.56874178332147,19.483222294450567,34.10245901087376,61.000311717727044,79.39681064231475,80.90021823707313,72.96656590265445,59.196008728873764,37.266537308119325,11.333752952904248,-12.03328456696345,-32.72513784292353,-53.58904810817177,-73.23284784792187,-88.2457398951769,-103.20142845843806,-128.5093289715895,-155.4870163507178,-147.0058773285162,-79.97446258069604,13.617898028028206,80.1133570464563,101.07149044693918,95.13914950547827,81.53750328332957,61.72902981602949,33.71662182116203,9.058174823684556,7.349784152989978,30.85889996126933,57.73830037149315,68.76055173112854,65.20322273461926,55.11613061917701,38.8248049178819,15.14332463741761,-11.112939542284971,-35.18576749596463,-56.05672160352223,-75.46362574579992,-96.74432305144816,-122.45408311441528,-147.5382896853275,-149.45042526394133,-101.76593197036165,-15.970284447133734,61.522264846587134,99.77498275428377,103.40065767531294,91.76598596218261,74.39719317650977,48.812023908799304,20.568821007862798,7.892383563825356,19.699153368658667,45.33284988760931,66.12002015420809,70.08592214717731,58.501972378348874,38.344249824050266,14.616354821274248,-9.969681389197236,-35.50405553273882,-61.10939444845397,-83.5912650328449,-103.58901424809899,-128.46403734033373,-157.60376304420436,-164.12385442543132,-115.55403823128283,-24.19866037401764,56.66768097489471,94.39463148863167,99.9468288026328,95.1807336432906,84.83061465638741,65.44884971435509,42.05178702815452,28.654616499196493,35.438356875990365,55.96575483636447,72.0690359147932,71.14437133521473,56.58585109400089,38.9057378948004,20.87614806883201,-1.5065814622509197,-28.154679527740146,-53.45565892098158,-73.21682332181959,-89.49763883883105,-109.85373759758092,-139.2916127125788,-163.3145486153878,-149.16745175606454,-83.50273483560329,3.1737588584447503,70.13352908682417,101.743607971446,104.601905084897,92.27793439856694,74.35918022422776,53.43013474413647,34.3046922040562,27.48893559507028,37.96358367892527,57.98145891284019,72.28927743816027,71.15422533201145,57.146111945586,37.50037185230802,16.040513543751953,-6.289081999908201,-29.50884782745877,-53.25395560424613,-75.91012618065875,-94.40217486441956,-109.14621361429248,-129.72065918491376,-158.04815758701397,-165.67347490313207,-118.73563345081436,-28.57487172767305,53.618925910339954,94.25406790569569,99.50754734040584,89.5185715916048,74.30058227225754,54.253043934407266,34.47671806769251,26.792103630402853,36.45779395157247,55.40638985369591,71.34440411952633,78.74907254044204,74.99726833462483,59.07032084734155,35.65576522646331,11.268841028733023,-11.936917491596056,-34.557012165554696,-55.256202527072226,-72.57690702809457,-88.09176366150531,-107.57550550962607,-134.18629600917595,-152.82557669893995,-130.11603589784076,-55.78790464498756,31.18720207471156,86.46901959826427,101.02136851083526,90.20327674273636,70.22420425193748,48.59454138775684,28.39708166032212,16.139538229426076,19.104292561435706,35.0510744203272,52.414647368676754,67.0,124.0,81.0
48.362470965212104,32.32739032607333,35.505010238013575,56.19387139922783,77.58172093847712,87.49442644073928,86.01224215463156,75.38743758367465,56.4363966689833,29.69028000846538,-0.34146422949916966,-26.08951632721973,-46.58555405208382,-67.25757358455593,-88.665097641564,-108.04653628657208,-128.72852548470803,-154.33406670294147,-173.2517417262382,-154.49331415649428,-82.9756014422989,8.189095539525995,74.57928848025391,102.95146820888354,103.88746802543457,90.87496657357372,70.75576743403762,45.34942203958353,23.67286724707954,21.405502781545803,41.53855650435991,67.9586528591651,81.39375306397538,79.1921947093416,69.71070925030017,53.682138876070596,29.827157273063847,4.173784408388138,-18.139435172401555,-38.68270574868995,-59.58526153725573,-78.0708019044725,-92.07517854229873,-109.21418113491835,-137.40385103226157,-158.52173634629767,-133.31115997578735,-53.09407540025816,37.378889208862304,90.44202372581867,100.97135659509863,91.63252053365221,76.67315637201825,54.29317939527342,25.344622115496623,5.562361138597274,12.207891156179247,39.464513679248476,62.86084383095952,68.80061106611302,62.781708610502676,51.19121882537804,32.62340274737668,7.542488841607858,-18.4032094790944,-41.50976513180315,-61.686055073186914,-81.25825229267686,-103.70428376121572,-130.37978616235787,-151.90283094523718,-141.27899652586467,-79.09058007675321,9.31868832512712,76.9907645913149,103.54037807907419,100.86242716645714,87.35029211553898,67.94099449554157,40.21488357509001,14.535341267555085,8.938640725138539,26.500803126492062,52.59691361685545,69.17629945850763,68.0226452521477,53.29611484107189,31.67856852226136,7.570749124276402,-17.229740971843164,-43.02267641778249,-68.03817473231395,-89.38612555542626,-109.93011340937137,-137.095194015214,-163.58173735784015,-156.3883690212549,-91.49931956175145,2.571865888342643,72.18148883772692,98.1640917586771,99.04826652556615,92.95551285647703,80.16628318381844,58.58461497770428,36.47700470709892,28.472140100444406,40.67230372468424,61.887416434489914,73.70417184400169,67.853260014401,51.45337459077814,33.8831110330044,14.996105939705677,-8.959260353331695,-35.882188771980935,-59.770001396990295,-78.02591327487333,-94.55585735631993,-117.56499788065237,-148.0963595988639,-164.52533473407243,-134.87529747755107,-58.555991477526874,25.808338270189317,82.88397480520096,104.94279334336434,102.03087307569008,87.46773892914197,68.55794402570976,47.29418321531287,30.634894626583133,28.841893838421107,43.394199429924036,63.35608248313013,73.64280932675605,68.09588340823743,51.79279305396186,31.41621309577387,9.669339677539924,-12.902478205362156,-36.35963891173154,-60.025956712175216,-81.8154091616839,-98.7743905883734,-113.97947192168762,-137.7610065102824,-164.2566889954557,-158.36869514690298,-95.16563269448541,-1.7330414653772668,69.9806961688127,98.48745563907673,97.45939505686668,85.57531337573405,68.97803929904471,48.020765119191076,30.542025941282894,27.92478249467346,41.58093120753546,60.714066190513776,74.45837293643817,78.94303685453487,71.54450490893839,52.75756941412508,28.501268832295644,4.477431356555684,-18.547688844444536,-40.83146300852114,-60.61611896137357,-77.06023758475685,-93.0049674571999,-114.71595444775826,-141.72149252880445,-151.8873490518476,-113.00458819633647,-29.534150590373635,51.54261360126821,94.40296392104776,99.65232338008018,84.8733063196589,64.00375335056651,42.428177867725054,23.64085194347068,15.282875263685739,22.800183414643648,40.472198159814035,56.14612618511419,61.847033718340256,54.33100466156664,34.563471025953234,10.57501385603764,-11.002041533919119,-31.293554446110704,-51.905125917566416,-70.2362396534951,-88.09658224319917,-114.31008239818766,-140.97688277886616,-132.20384214713874,-68.30464158801603,17.50756941694385,76.65618463885322,94.96765576337803,88.86409956008902,74.54111099368703,55.99039268503923,33.07213031089588,14.684695674753941,12.794852102183764,26.864872338947556,44.8374620441699,54.509837985631165,50.31148548238257,34.60024899754032,12.230080419656142,-13.12478761554843,-37.888013817506994,-58.69698482901514,-75.07369684023672,-94.11497819214786,-121.33658126970093,-139.70097179245656,-115.29228497947776,-43.307412478111864,35.56289951759006,80.85902911744,89.5120169960038,83.0828662343869,74.27756274398453,58.75797313376646,35.975519190800625,18.77580330726985,20.25162116028649,36.79238291618433,51.387603580716345,53.2449443806632,44.013721402626096,28.774512583782784,8.756312926832901,-15.789250194915288,-41.7051919000113,-63.49608487130756,-77.49260936179442,-90.77825639059787,-115.5086207648483,-140.04972297698734,-128.36391039265422,-65.48932672029049,16.448180097988203,67.0,124.0,81.0
25.831351141127424,-0.1072531866179418,-25.432662309769395,-47.574460859961924,-67.25606098756015,-87.30176020632503,-111.08013684423852,-138.02123406200067,-153.563533625468,-128.43864479386798,-54.06686161274928,32.65738533237802,88.79136707551662,104.83317034831929,97.53029556676492,82.50871530350577,60.67759531086121,31.719457683478293,10.300249440052038,12.046081175897527,34.03343621582769,58.99579854562832,70.6567573111011,64.82052888057731,47.53262766665952,24.820302066536655,0.4860534052732334,-24.590290036960077,-50.49220627836078,-74.61780562737498,-95.06232189583194,-116.92170811332242,-145.88302681407805,-166.71246909144017,-143.41613432052068,-64.81146024223571,27.009981291420566,83.7735588701125,99.8667268689129,97.71841169331795,90.17715160904847,74.68632823427488,51.62453549395576,32.13984180351155,30.106574453954558,46.71145063419824,66.94933928150557,73.74488058710044,63.6689092870795,46.30539807332745,28.775449864910552,8.642166955659514,-16.688619759223467,-43.32961741131709,-65.5691471747078,-82.6557812127877,-100.1908440906156,-126.0751111734285,-155.8291210727635,-161.65421876651428,-116.37389379337424,-32.98972273658643,45.954265179684526,92.60007398086776,106.03980652071205,98.53291634929921,82.3443242311444,62.511628121019825,41.51084574165674,28.272748477708273,31.648593372401464,49.31008812239182,67.85392210109092,73.58987691354314,64.1350264882684,46.13427945090717,25.22784141041735,3.234980521774787,-19.59670802050093,-43.235404490981985,-66.65536867822678,-87.27733235490217,-102.92357550219644,-119.63530356406733,-146.27738998430246,-167.70542221524693,-145.86588930794704,-68.8829638316086,23.03758524384451,82.48008910256897,100.24110741449876,94.60867992667278,81.28281911970582,63.22293136368954,42.047037594837704,27.922882554692634,30.510999152840835,47.15655179409511,65.50701835643625,76.80860517631015,78.12235249845084,67.09777171345947,45.98920234989664,21.410230200078242,-2.2270187355542186,-25.116998780281133,-46.888755783294144,-65.67355633561705,-81.46901789936673,-98.43520628850735,-122.45721781166797,-147.96615388100886,-146.57590365270266,-91.82418899091941,-3.596086161319115,68.43040010765405,99.09488465536403,96.64977598985325,79.09917225550541,57.73799850759215,36.452324717276646,19.76619761072966,15.838400422328405,27.392117287262852,45.68570270704872,59.014081577116784,61.110238340043146,49.63915224201428,27.62855098118229,4.026386615499782,-16.849748228029465,-37.275907562564804,-57.55372078679457,-75.07816169833714,-94.56083641411263,-123.20100156391761,-143.8212372934504,-118.88791331032786,-43.329281897408556,38.81299747721818,85.7125722527523,94.785151573608,85.17454006636326,69.68074235409988,49.6520422138739,26.657510114754835,12.157291428949634,15.633365160497679,32.27746640136068,48.889911466726716,54.74224178967726,46.72772827558541,28.638311414146028,5.06245629619163,-20.50443898831506,-44.4273506027381,-63.726336689852474,-79.84216183040233,-101.32301883997636,-129.03495908096787,-138.23727531075096,-98.20814787237305,-18.925279660940145,53.00984346254259,86.33541440296977,88.23985360450357,80.784185439675,70.7729585005016,52.55654234956313,29.684727511767182,17.037896421640667,24.146413386966778,41.94766574512788,53.34465973451593,51.45770610984263,40.0905902863293,23.50830249018282,2.0493207833586733,-23.349223380094536,-48.68917050013081,-68.30217194418671,-80.75114225552241,-96.57580105456368,-124.03674347098391,-141.90735897398474,-114.8420690454056,-41.52503283047686,36.598663466531114,79.5645173705478,85.4465875040803,77.60415619986483,69.56701814916418,56.899589300836695,38.324784574925104,26.015529786612937,29.269154204631878,42.23494686612358,53.64503591051908,56.63930373082665,48.77252985935381,30.942919702089544,8.833581257196974,-11.39862623194688,-30.569883605741733,-50.99504523869245,-69.31001440519465,-83.87396579020424,-99.77098933230612,-121.35867377472317,-135.5321810151702,-113.6472048961667,-49.46427069166726,22.03002884197058,62.23994653069271,69.12634186003116,67.06820045040142,67.71825074686463,63.067802871077134,50.146705345452595,40.88294244165796,45.51341484636835,60.42230742467932,74.24332206453144,76.47826031110475,64.917205919612,47.677232612683895,32.26583476750206,18.380627995622863,2.90044105627506,-13.085635193033866,-26.324129286649402,-38.16759756114039,-51.765705089942,-67.78178634398057,-82.85897723042206,-95.72497153843426,-113.34261452871846,-136.45770544030515,-139.20881884544966,-94.80521895964444,-22.048723092061994,34.596331833462386,57.03526545506127,57.46756830944285,51.89027126935982,47.48513135863795,43.69474970859235,38.55538571771974,35.897725348659606,42.83649034391319,67.0,124.0,81.0
63.20991242117696,99.46621887489471,105.39086120206088,94.36700518216675,76.94227408676502,56.304791448124156,36.373274282970485,27.381567253268024,35.72680018597108,55.30547169263763,71.1935722877619,72.20391534449195,59.47642023026054,40.2622796290929,18.956106320949853,-3.2667385550003543,-26.36623057734201,-50.10249800703249,-73.05947780803822,-92.25981576138597,-107.11288913655022,-126.30174257904751,-154.5611828524281,-167.35546602090957,-128.34209531125236,-41.311823001233,44.787360396992625,91.3118884235112,100.08023525540477,91.21868815953636,76.60257943046152,57.12889776076303,36.665919704547605,26.790339251314176,34.34652801303292,52.83786717765157,69.66268632643641,78.33966353143231,76.23290323875096,61.77629494207459,38.947660404426074,14.43887008958494,-8.880060894602954,-31.606547617805575,-52.682701665518074,-70.4529547747382,-85.95170622190761,-104.52415026322716,-130.50391467755585,-151.98856680637476,-136.43986426821692,-67.61459424141826,20.770690661497447,81.62588094219917,100.97198078014183,92.44409323563308,73.0615307587342,51.47082969257797,30.82225400494015,16.99423229028027,17.777282095799162,32.56398049034393,50.43699903209969,60.92530637266753,59.20952647167754,44.01072352938171,20.603349785929453,-2.2412649542086465,-22.679821488515124,-43.281347646869285,-62.90993651248078,-80.03675631593966,-101.97515225362548,-131.61573578446598,-142.61638761516147,-100.95034628528728,-17.842127168588274,56.86514166585336,91.46818703084143,93.11012312908798,81.07982604498584,64.4429429567639,42.973520693536464,20.96756399721981,11.242991852936433,19.627375750658622,37.66349288457663,51.993328304607196,53.76412032845707,42.3047944920363,22.22867192174859,-2.2764657985172323,-27.742362914615487,-50.55816918594315,-68.42232181695304,-85.10058838074089,-109.25134355843274,-135.26769465813678,-132.34308746029083,-77.55946379239396,4.706377466120243,66.94325706987061,89.0873201677626,86.32005438466066,78.37334002096298,66.4985360633775,45.877253242783695,24.28209977616239,17.09666536823635,28.99280626083361,46.48070839308061,54.11649549468009,48.88211606048336,35.76765001918173,17.82589810626713,-5.007992566612781,-30.918171059301567,-55.17517172473297,-72.41158487820563,-84.28219919947944,-103.58211503404469,-131.89386092464312,-139.75231633598662,-97.12864006352143,-17.17932423407743,53.51823405200663,84.19510145025733,83.57239488879036,75.28632899796114,66.70702974626441,51.79267742243081,33.45563618959022,25.355585032646967,32.54079177486758,46.10518239466129,55.54379131085952,55.51435304575007,44.48984588723625,24.645497088661724,2.6797845686252204,-16.858531935383414,-36.40318331525976,-56.70152081981072,-73.78873891311842,-87.99927841424427,-105.52984946419322,-127.4174932048056,-133.99832198805979,-98.54153053881686,-27.433065224127947,37.77985613684677,66.73061752047376,68.42961632302678,67.13632464488376,67.36167611923388,59.85968672432981,46.42209812407364,40.69495032662925,49.21413539284697,65.06319515467263,76.40155193332467,74.3377649077284,60.0538122100868,42.91649634057685,28.251381030562584,14.144203958856147,-1.8549267739728827,-17.228033084805443,-29.73724732370733,-41.811888654341686,-56.22990205218005,-72.42476311475758,-86.63326096341738,-99.93178645816926,-120.05953893791842,-141.02164493615572,-131.42397529586898,-74.68861454782454,-2.4471124703615423,44.392194793365995,58.59987285124766,55.9652774197253,50.42052525266546,46.45267916603248,42.33834581711293,37.16343456158117,36.784616322853786,46.48413541784553,59.590996469169774,66.71558661404573,65.34881900817334,56.559807326671915,42.89826601945096,29.448866997943234,19.535203637213154,10.531582518915526,0.12771884232110697,-9.408552885875467,-19.477563458357487,-32.809082725072486,-44.55954620215968,-52.272008002654935,-60.84911465621788,-72.63315104619491,-87.10805893465124,-103.53632708977051,-106.69913978663365,-72.00143850157329,-7.272435264749121,46.754908125255916,63.77987974590665,53.565187912593814,40.41110653540913,34.80453746569417,30.12611489889133,23.123304501854705,21.95667623494187,31.986823186777233,48.153310177356275,59.98997693286494,59.76262018023715,47.98787201084478,32.13440108522946,20.364144326551216,12.691323341174652,4.3647165419781695,-5.157976715969345,-13.587134483479279,-21.418285668318468,-30.265874762645918,-38.597543018099856,-45.6452606395214,-53.74770126331437,-64.09047419069,-76.91758603684296,-92.8582210433215,-100.4234384670178,-74.22972570028179,-13.411514744539462,44.351722958492196,67.35673514335333,59.918336111726326,43.90235463787495,32.44982153189501,25.905816769165106,21.85946641371864,21.475768573145697,27.670040864340727,40.33014900939875,52.95625987507708,67.0,124.0,81.0
54.5263186952611,61.80601077014586,56.134522538173975,37.66229043561661,13.688083028772986,-8.275887035808568,-28.558124821107747,-49.219962027657644,-67.97567691344763,-85.40303889363386,-110.27129387949542,-138.56760780069152,-136.65466400008384,-79.25203626663983,6.782998595504893,71.2700999050732,94.40834928903686,90.38030667800878,76.67265319328958,58.7649518802798,36.168948745549784,16.360117967486442,11.95033325883308,24.45511334321629,42.706518878511076,53.99015597143249,51.64402896155339,37.17239610248903,15.454559720635096,-9.69957417055849,-34.75384961091135,-56.23513825715241,-72.96502813771018,-91.07752744533167,-117.54523038224096,-139.05022919461436,-121.74044404952319,-54.442806075495085,26.439554674930125,77.26865830142775,89.73912753319078,84.12648471239058,75.67746438779517,61.386486018732185,39.05712666654837,20.157647347779243,18.893837171954672,34.31411628525884,50.090215623261734,53.75932867413718,45.67154738164931,31.06874222673792,11.715411966958241,-12.341076712800596,-38.35883851707327,-61.03296364879342,-75.96916131894045,-88.50143080162363,-111.59833180882934,-138.06384096338724,-133.04690249406764,-76.04587821297937,6.265111671101551,66.79333708285627,86.11293499880279,81.1997379295099,73.05163669690822,63.23533825338144,46.30691058869033,29.515792722353755,26.079515909355703,36.346107580020096,49.589019826075734,56.63042841176765,53.45193158209776,39.43094337254854,18.1851292148354,-3.207722051424262,-22.337554645337857,-42.34606940508166,-62.100429699446494,-77.98111197228451,-92.42287320365746,-111.81494804317879,-132.28026776251104,-128.70053352674856,-80.17981633661488,-5.990190507174437,50.19817496263859,68.83477244731726,67.65997532721482,67.43660365946512,66.261078225016,56.05832734168207,43.40425679721253,41.79727524225007,53.551704212339686,69.31299016212775,77.36782048753676,71.11035593935627,54.991704262187774,38.41626998364034,24.28737596660118,9.703966115667752,-6.554047344545392,-21.090070050600737,-33.115553112361944,-45.67396920714227,-60.87377643361581,-76.86717036570775,-90.26286919046903,-104.79666387460935,-127.0724824849566,-142.93992440291169,-119.30349779373687,-53.222026768086714,14.754042242225072,51.31221967477558,58.79006440948313,54.288732103886204,49.12404196400044,45.404509900897274,40.83668238664259,36.164728868041585,38.62005252643346,50.42903475958287,62.50730988729932,67.16367991723232,63.505295855832806,52.925907930284694,38.747920386317475,26.23160495929763,17.04658078703662,7.604879533318714,-2.7903961135382405,-12.048329291828688,-23.074545532288962,-36.660640028919865,-47.0486400265863,-54.44029087898758,-63.960101731209505,-76.51189692097583,-91.88762153278059,-107.04313997785664,-101.1473909039,-54.84121289699731,11.259803616112446,55.6640538269383,62.52634194153248,49.18560657537372,38.11661076265163,33.75725667978346,28.112333780271836,21.761550434865963,23.74602097668385,36.45707474862958,52.481054349819026,61.31018837514477,57.31384468491785,43.39472235053053,28.116614162186302,17.948764394220138,10.491736275942946,1.626232064214189,-7.758411175535185,-15.805829163011047,-23.879129100426976,-32.83251262174032,-40.69322296486919,-47.769612837412666,-56.51876120770302,-67.47808370463073,-81.3155257777618,-96.97311914180614,-97.22495348455473,-59.03494148795924,5.5779122406703365,55.04182227957353,67.41126320315973,55.29578718477614,39.937394199924846,30.203602098640694,24.49998341906313,21.243539291007696,22.490041869221606,30.82401497840872,44.41890365045411,55.203083813163204,55.77942433727965,47.238405403911955,33.91117860288308,20.29389228234884,9.039558250359004,-0.644112146670582,-8.447735158552572,-14.050462327047155,-21.135560334837013,-32.40091612785605,-44.646794680978566,-53.78599374003849,-59.277801556078806,-66.1459659219521,-81.6950340971407,-97.45389157268677,-83.16789097669353,-26.90538068438641,34.973807274303354,63.654610322500645,59.711342697065504,45.28327535810589,35.15130574686868,27.990652738008013,17.71388344760159,10.140009562212276,17.221248296305948,38.192919282269685,57.536489832397436,60.86098967853141,48.979225782814666,35.16709480115183,26.244896834623543,18.035641652058196,6.274808792156246,-7.536148201830611,-18.931897187061498,-28.37468683076312,-38.824385755123714,-49.53912608664668,-57.27149941898635,-61.9677705810602,-71.9824049204707,-93.85825282579772,-109.737192513313,-86.80143873134097,-26.032065611746578,31.856632151619376,57.74763649829034,58.23768281720942,50.03576387761471,39.89549846734803,28.592349048804632,18.0314284483533,14.346877711978248,23.935323385596213,44.995390817924715,65.36864532933186,72.90536119424316,65.71811966054238,49.4878209362505,33.23541568550842,67.0,124.0,81.0
27.672072575371526,76.35274438283498,85.99474463083044,78.71986753838245,70.72974778668052,59.058367095227965,40.77849699397908,26.801950606829383,28.026226653771232,40.37847659278992,52.51798630227876,56.84540138079575,50.4582531347423,33.73506675548519,11.74970051583344,-8.85426567766627,-27.934535967056586,-48.290739832601886,-67.12452837155718,-82.01855833689825,-97.31955894302621,-118.36773299893731,-135.127083494685,-119.33460425300632,-59.482996226374965,13.754462359809493,59.19261431195686,69.27729712886685,67.16314923874238,67.69817072131389,64.28050672197459,51.99764133631375,41.40300031063313,44.09755284728629,58.23213726310266,72.8910009786314,77.05487815616655,67.01994500354296,49.95015051824217,34.16075786089434,20.273278532368593,5.077663264495824,-11.08094191922656,-24.713905314107425,-36.546193511550506,-49.7851354927936,-65.60401628723648,-81.03515335985895,-93.94315514647685,-110.4615243683659,-133.73587271853737,-141.32700678948123,-103.28378386273668,-31.67649881904317,29.047553452493194,55.72322388721829,58.03225076767117,52.622049282077704,47.97760642259505,44.26609646198712,39.265338558401645,35.79715712181322,41.335388816179915,54.37360502126318,64.74986559983722,66.91131621345474,61.07162186441667,48.97146828636426,34.76248242455555,23.34023457777133,14.507017877872123,4.568490385351709,-5.560103354267122,-14.849917589669403,-26.955230139449633,-40.18384164731596,-49.24812660024237,-56.83180827146435,-67.32733896438317,-80.61751913137762,-96.80405619573284,-108.81550190259209,-91.89250300338442,-35.87023279602166,27.77184799741666,61.19171374486523,59.56304724925611,45.13746636392159,36.48175349566394,32.52065130812532,25.969035163996992,21.155553201487443,26.500986148023834,41.22369638765591,56.17413726048592,61.497861863029904,53.9984866324553,38.69626731550268,24.602815943861206,15.766826188362472,8.130388549494329,-1.1607317260652263,-10.21790003512392,-18.02997641815976,-26.443491136929183,-35.28485426059159,-42.70442630949838,-50.05542422237922,-59.471334920225615,-71.09638316163276,-85.99121300836971,-99.88762262449141,-90.5358077553849,-41.39467413354711,23.131714942030076,62.37356522943994,65.37712511833465,50.50563777799757,36.51503917927432,28.28553518130669,23.269546297589912,20.99731315893021,24.12861078451423,34.463761050506335,48.2752723314099,56.52099574053132,54.05749800328021,43.6853049329122,29.817526529222434,16.79426503607039,6.12477593405131,-3.1646027139658335,-10.199166615983819,-15.730849347661055,-24.001270849387332,-36.0671958734819,-47.70923204495809,-55.65385697547277,-60.734188214390734,-69.63358262160021,-87.30492187437943,-97.80925430170474,-70.39416765926877,-7.329526731338046,47.41950138620257,64.9767307699655,55.6760903981365,41.68474250464153,33.1448607260357,25.371073971203533,14.662673720713276,10.353571842797809,22.36209028108579,44.76670320832879,60.462327423019296,58.49630928969761,44.61239333916468,32.15155407896909,24.0705896091224,15.057848529751674,2.2816554141177514,-11.191249186245829,-21.694237705906584,-31.242296146133718,-42.02068064523746,-52.21224143676195,-58.72992887272002,-63.79558142858824,-77.26230891962794,-100.6044925921918,-108.07607093312228,-71.73013534694135,-7.037904906782102,42.89274281634886,59.660275482542595,56.249846012186424,47.23926796076053,36.72753701761572,25.2771970215978,15.906464597464163,15.618161323059846,29.220292031776903,51.63091675824762,69.15050905403795,72.19291692995,61.57676091907991,44.43136568334732,29.39367995781017,18.60817537055713,9.251087361451182,-1.4862345153078595,-15.00629130422143,-30.129430464202926,-43.37745258173985,-53.03165149130747,-61.74471952618808,-74.44320075696564,-94.19949558962587,-113.23000216360329,-107.13942108981104,-60.01169629976892,6.51378694719222,54.37097707029486,68.2816717177938,60.548311648233096,47.030621364806315,31.662848776068344,14.785861841782467,4.2770551468592775,9.99229947471345,31.171208479698784,54.0861572334248,65.1067343580249,61.82973409562892,50.76179256699717,37.76068028609914,23.37905109323855,6.16125715507281,-11.219683740490277,-26.228743838861618,-40.18540381675006,-53.66141086762623,-65.68910240973221,-78.62089268369016,-98.89952004701163,-119.9663088827034,-114.98078371659045,-65.50666623765306,8.887166214839203,66.24459802222749,83.67204842886302,73.44996272285333,60.37472013443278,51.167479845813666,36.413509271684944,17.586209739188597,10.542717723369709,23.544191466413263,46.41286876528498,61.54432076639704,61.48222630650433,51.10258874477959,36.61527261241338,20.32435393483974,2.453381178991714,-15.191693993110109,-31.012980041007257,-48.14257720129588,-66.00860698258765,-79.09471711475807,67.0,124.0,81.0
44.74741444473751,58.048775284146366,66.26514569260554,65.99025582492999,58.095864799020525,44.830075537108726,31.049578864599304,20.6994946506289,11.826313585496116,1.5146777391413029,-8.207037325213852,-17.937054329001747,-30.96837249357352,-43.280432370198476,-51.316280545891686,-59.511617577582754,-70.9129132257282,-84.99272769510243,-101.54497686962908,-108.07780811266592,-79.02730212338105,-16.22763454467616,41.5025105404015,63.59672825134721,55.57252228305098,41.72662743022987,35.28451406184978,30.96129761809103,23.94192929457341,21.473188718492366,30.096373430242753,46.0138845075984,59.01484910193102,60.55856132287833,50.0010895139881,34.13378714383402,21.597207639457228,13.668017930211299,5.589687660474108,-3.916755915738627,-12.546924270336184,-20.32422541449743,-29.060756441486827,-37.58751718707122,-44.70464211816715,-52.53590001747886,-62.593321518820545,-75.00425030114509,-90.74189485144119,-100.84825607999032,-80.1877063652088,-22.3450557053793,38.328111624306814,66.46772333375628,61.867691724241595,45.898049055001096,33.62222414064667,26.611807343878464,22.24656765805343,21.204403731422953,26.408711419340758,38.43874434333049,51.63781847202438,56.87847040919469,51.6775833896143,39.834937019378444,25.814957732425626,13.515806076400601,3.3001683721747055,-5.483755777092361,-11.791905310078198,-17.66525564266455,-27.229950268713804,-39.68337385240395,-50.43905469864798,-57.238387737346976,-62.5023226708135,-74.00690177873405,-92.46954816386535,-94.74675821781804,-54.293285135363156,11.40569163711531,56.4560548880262,63.995930745859184,51.342200737154876,38.656429428304314,31.192737996343915,22.395633244553583,12.137293769899362,12.05518615813275,28.454122170892234,50.733109260868794,61.78931769477258,55.07416323239766,40.45911176975874,29.558791892823496,21.794355885314875,11.721241690963625,-1.7785142874058644,-14.543611437908961,-24.381829028539183,-34.24354496748537,-45.180178767669645,-54.543371660979226,-59.999257150687505,-66.36656174252703,-83.58882294026633,-106.07399490734447,-102.40399862451746,-54.07603632097003,10.50854639103025,50.923039191303594,59.90494345823762,53.880137629575756,44.33344492671013,33.46459760221461,22.100794947174293,14.552688015759735,18.11975411262933,35.30994042491512,57.82322273943153,71.64486506581537,70.30548704694387,56.87070561267156,39.607391073429156,25.939138181485493,15.895409662381946,6.391261534920577,-5.10209690436618,-19.34166185913478,-34.30404047737568,-46.495693342869565,-55.44239097618356,-64.78521012195878,-79.45309765240967,-100.59627416453638,-115.29268977578167,-97.53026094422319,-41.00788812379577,23.581915648166504,61.69132755786951,67.41000286511722,56.82968151588983,42.844342713561915,26.755754561749736,10.579829757091886,4.01032977660979,14.948672897186894,38.36583880121035,58.84070144344721,65.43140820100413,59.08639472189408,47.079025410417785,33.838134636463145,18.67440597566535,0.9572160497391319,-15.78043667028636,-30.297228002697345,-44.163492147861035,-57.30705337064046,-69.04320030596027,-83.57454806695709,-105.82732876305995,-122.54346248933696,-105.18382942310353,-44.78064953350766,28.88782119676336,75.4346974609824,82.37819740684179,69.16739235844595,57.65036531878499,47.8130471852765,30.798633317152465,13.646000259585175,12.363592266632509,29.945427248708803,52.209366304963545,63.019943983872444,59.20513322071398,47.16712582973273,32.07243913688499,15.302546334283331,-2.8121751545241,-19.88028982597773,-35.673967710455,-53.49903486219397,-70.36363235494451,-82.34949420148314,-98.3171099836061,-124.45207313165646,-139.37979510399836,-111.77134282343444,-42.42664752743916,31.073486572579387,74.69140924822076,84.27156775389665,75.28083793354345,62.3849009828881,49.754663702882674,35.94201189030939,25.82107494731334,28.92040099418007,45.736400975093844,63.313141555079284,68.87400110542589,62.94605726064682,53.14883935214513,41.622081556902906,27.050477274273412,11.766408665086695,-3.1400668453415412,-21.837370423347867,-45.056446334530236,-68.41647822199278,-87.13526694754216,-100.53865647028691,-116.19276077422653,-138.01404154178937,-146.5125461229205,-112.09339315597376,-37.10226233036291,37.33332673255579,76.46458190437974,81.23671320900843,71.16202834368129,59.900956887565485,47.046196545865676,31.354788254020367,21.612062927522082,28.510493787253804,50.2943293871668,71.24166388757128,78.76675957426679,74.25940711131427,63.35610690756638,47.65370928201978,29.318209526891096,10.862104327888101,-7.72506514249146,-25.488419357079625,-40.5434528785329,-53.866725340168706,-68.78189116620845,-86.1276399507956,-103.3634208918403,-123.43458813590466,-144.75673727935765,-140.095757434247,-83.95031574355413,0.49753230069078586,67.0,124.0,81.0
54.27737773924253,56.32033835727941,48.7469848679696,35.80065952686715,21.98592506007901,10.419438657815522,0.5722779991433504,-7.567801736342871,-13.327417740609759,-19.949309108870022,-30.73004284972193,-43.13561895992683,-52.81215745878547,-58.6457281760534,-64.82669221050698,-79.14826115110192,-96.35156262494756,-87.75738788935585,-35.85376433284666,28.161460392342082,62.11030972140582,61.3340487603072,47.11383601920021,36.16050061687502,29.071998376348475,19.19794012937126,10.502595377668879,15.264356010607466,35.08349145871638,55.686478659811215,61.50409327462966,50.9809672090391,36.72283465756126,27.254563613401604,19.291455047877964,8.055571897229925,-5.761888370414269,-17.603119249546992,-27.0944736953242,-37.36036281496865,-48.21149581471107,-56.495610843254944,-61.290724842972764,-69.94486274400033,-90.57970718410641,-109.27857809908164,-92.61988728858694,-34.97996357818146,25.758292172517983,56.164493512317435,58.959507217360596,51.28439746865411,41.32067678566295,30.13532033543737,19.21438235609227,14.160048695630088,21.836968486564462,41.8938971828395,63.22389794519856,72.81012930729155,67.37522154124473,51.844241259401684,35.14920700479395,22.800055325731066,13.224177053263872,3.3532701508037954,-8.965539413603114,-23.752342061290694,-38.222911693681105,-49.31322313012971,-57.87804897271841,-68.28732312195044,-85.09742967910401,-106.58117689219955,-114.50542137223992,-84.38836407529752,-21.31282758460178,38.21541356513023,66.15023866140118,65.2162592664483,52.92435881281422,38.469750442782164,21.774409453488705,7.186161917917664,5.2999538932133845,21.03019408922148,45.273790278173706,62.349139916863415,64.63177578357538,55.89715596994263,43.33152318941623,29.757791558270927,13.711333704093864,-4.137992325429928,-20.133633030022406,-34.328725870606114,-48.090675571020306,-60.796980067936204,-72.60224768193483,-89.31313457490566,-112.42725310769707,-122.13703471692418,-91.49306575776225,-22.869998174703934,46.40932120811508,81.08076523819324,79.39179404144987,65.20744236133886,55.13677986285774,43.71739327372821,25.102582484132864,11.133688788379622,15.887739224712258,36.750669496770925,56.945059616575875,63.20734715649524,56.2605227335943,43.00324500551039,27.39939773591301,10.144930371767277,-7.975589277386112,-24.420801984460827,-40.56471482860994,-58.79599308511697,-74.19364065096987,-85.93803303436498,-105.17982958207752,-131.50130691262436,-136.62383613303558,-94.80255063050271,-19.649768952582345,47.50803267603324,80.45367740178663,82.77466300329014,71.56115585322509,58.77396132979066,45.86252418232547,32.19363352532244,25.056089269828245,32.74597295826746,51.474763056873535,66.4099626381194,68.00083008390554,60.2624507265604,50.078307128199825,37.69964447136545,22.548813609521336,7.548476779541092,-7.971869504663184,-28.234926946406958,-52.01513362401914,-74.4734439968792,-91.35913084584263,-104.38377296185872,-122.19926521677942,-143.30099479893005,-141.79747784133127,-93.23847830384585,-13.422483376402955,52.8788263758654,80.60770593582347,78.98173999499157,67.82869931547953,56.55750829162988,42.59866139162634,27.360432349445112,21.637702198089137,33.80549504268105,57.227648228870045,74.97498204645075,78.39516983879396,71.63891332050787,59.26530902863286,42.48105849085799,23.95663760005121,5.524521912814265,-13.056103161162673,-30.13521417129374,-44.4486607700278,-57.86741414731355,-73.66064591347883,-91.14371294697602,-108.60805843806936,-130.14701584456714,-147.77754254760768,-129.199493322126,-60.25098194575558,22.95823946374816,77.45439795717041,95.01518061146555,89.08244871069978,72.16964079315262,52.90894246071636,35.26272806359084,22.17605840757168,20.583455996431677,34.52199316648485,56.6039899376718,72.8263697441769,74.60536809202614,63.679365741709084,46.4013702397119,29.207497323585816,14.458715417791643,-1.7063812285235103,-22.167549956499762,-41.543275667886746,-55.97805806021547,-70.46633081314306,-88.60968545983536,-109.51987585695227,-132.3866931664085,-146.92746444780957,-127.02238119122562,-62.001456470027605,19.151933692474106,77.95616621339335,99.08397448674366,90.24930192354516,69.17264329733906,47.43458097464087,25.732094811733717,9.175396028054891,9.229890516740092,26.407645092197676,47.713512712013205,61.70243571779953,65.47906652648969,60.02142337291425,45.213751344248955,24.603477902001394,4.921843998343769,-13.059810281393428,-33.66354237436817,-55.04804766975004,-70.8171894990176,-84.23975407921658,-106.04742054480937,-131.5543207024846,-130.0509675680374,-77.0813973851979,6.884453212427031,76.2815251667475,105.71856100728765,102.13150744705439,83.96812953351979,59.8492596935618,31.151906422642327,6.171797992001553,-1.4008988917329612,67.0,124.0,81.0
31.113412982552976,19.893002925985286,10.524183107820209,0.09641295909602542,-13.055537064711364,-28.14160824473402,-41.828296012329886,-51.89554130007059,-60.46514565811447,-72.35542523195546,-91.25409513497121,-111.51296556469906,-110.31270729647476,-68.2469326019285,-1.9924450842892925,49.97481474915235,68.10156320157007,62.15094386422226,48.91391332960224,33.864146650454906,16.915347537426474,4.893494058473864,8.164073764714903,27.874411180083733,51.51780234187168,64.5387401343207,62.89178741460172,52.42375926536625,39.53381953445934,25.45331619411378,8.564840317586267,-9.038385917871489,-24.33051016889248,-38.341454099616854,-51.93112152425409,-64.15967629047196,-76.58379390174822,-95.75817360949287,-117.97998424925454,-118.14165134605327,-74.36301023820742,-0.9261311809160024,60.78897865706595,83.50141080018425,75.42637303909008,61.774389890930586,52.50886692392135,38.86573739739289,19.781987203005933,10.312837807712286,20.861742849061088,43.471304683764615,60.406319971888664,62.254318861660536,52.81829404792882,38.664902879740424,22.590128338512333,4.8903736919208765,-12.962697082824057,-28.918475939015888,-45.704678851507616,-63.82837035922133,-77.60287718199353,-90.23009192080369,-112.8682422205938,-136.7701985073295,-129.64579548080917,-74.83881806371446,2.3249775854396892,60.86909317925072,83.57289577651429,80.19495582727399,67.78882298776506,55.17150592588579,41.834161695485,28.979733270303182,25.61935480817666,37.58180033651816,56.85351661804498,68.28443585256063,66.33251065761257,57.43623682237283,46.82789877981353,33.507035630278516,18.091169954881888,3.3252695895356426,-13.254894963333406,-34.94428890384627,-58.86391545378657,-80.02518474518364,-95.19653766640029,-108.68862466927783,-128.68264802207523,-146.71032600400457,-132.84169400709808,-71.54568963229346,8.96022562256129,64.94526712146329,82.24357423558529,76.01187646237365,64.58516104965115,52.94963264730178,37.9669135991319,24.174536112490834,23.270320565852384,40.122671197414014,63.617186774506,77.41155404577209,77.18343508010214,68.5822956051947,54.784984130309056,37.169553055004805,18.62636330826531,0.15054187110068723,-18.25654971163935,-34.529136131134074,-48.26298440109946,-62.10103080541844,-78.69841649309916,-96.08769507950663,-114.26746217900467,-136.75812980383876,-147.65500284526308,-113.67997414949761,-35.329989780852905,42.737210616917935,85.86082627293209,95.06879049238553,84.87636261784206,66.57315198076114,47.57173898261604,30.771827948650508,20.193650659761285,23.109772001327244,40.659907149846795,62.47286563709578,74.91032282404747,72.50690826624951,59.02780239416946,41.20324997401173,24.763298002088618,10.19157559064301,-7.2777740481025175,-28.21505399495448,-46.12461646050752,-59.86398611433781,-75.3525962054296,-94.39181232039624,-116.04708820339917,-138.40608416749407,-145.88989647181194,-112.25881453221825,-38.27664257159965,39.652135291728406,87.9274945712444,98.8857242085787,84.65107861242434,62.81603961298833,41.158587181917085,19.900097205016472,7.122046509712404,12.863231986943093,32.798520748951994,52.78720685085814,63.79786664195951,64.84572549057319,56.67326576879816,39.539598999720354,18.61353392561494,-0.26317530507773895,-18.62703871162086,-40.08500767578899,-60.30935739771964,-74.45059603132694,-89.37240223617984,-113.9974366293245,-135.56040427471206,-120.07978141610319,-54.01660016083186,30.209073768588702,89.1024605756171,107.21878323619374,97.74011198034998,77.5419688660394,51.87857938140343,22.929183140850157,1.7010620272691275,0.7723278590456031,20.69186055413595,45.71534129197942,56.79887525785762,49.89823969192416,33.99673233531101,16.074563815676566,-3.670812865060667,-24.543759140722422,-46.143556411438844,-67.22928869738145,-84.60767443944503,-104.9926756551018,-133.18383393903702,-144.0671124030626,-102.69903527025475,-18.43004786501116,61.00122424571025,102.09996715740311,106.357801111794,93.14488076979134,72.94820416546888,46.108866886478815,19.71003420238911,7.750491965021161,15.365646238035616,32.26825012568942,44.57842157234396,46.758912498021765,40.91224635980087,29.26141017032271,9.82933808621732,-17.621374630741034,-45.77463951247539,-67.11230883657623,-85.40957854496612,-110.95540343038202,-144.56791735338504,-163.84022148575647,-134.51074559691602,-53.288201472360896,39.60297225554934,101.32288616467868,118.90514320874027,106.31817994706117,86.50799017030492,68.61347963838767,48.07236540140079,29.9225467543982,29.42240765202842,46.495337202118854,64.58020958384714,70.46320770156412,61.02010737631773,41.546031128318354,18.525347690486768,-8.124621389307519,-38.36860963738267,-64.93622611608518,-83.24286503457397,-101.4972844068039,-131.2365781105569,-167.77443262869454,67.0,124.0,81.0
-80.83067948445631,-95.51034054823296,-120.86326380216437,-139.33532863781363,-118.3601878662205,-52.89583718010019,22.548669557632806,71.0484898066118,84.4740722518593,76.92737876577678,64.07090931636918,51.494850965305204,37.77471850384888,26.580459118405706,27.56800215626964,43.08548802085421,61.50010414102276,68.94723538031721,64.10289777035959,54.52229400975646,43.33076347175408,29.115229361015274,13.73638576209044,-1.038898449929925,-19.02251377255377,-41.84479739457305,-65.4793117099237,-85.01967362805848,-98.84837820410573,-113.65463044245736,-135.18654819569963,-147.36216272171828,-119.58099537301324,-48.13240301436037,29.051524445472698,73.57494340975796,81.90629666978145,72.71404968614554,61.389098928599914,48.99272623554065,33.37762994114569,22.11039708024436,26.509647343707883,47.03636611482238,69.09637131685676,78.60220896255015,75.30838012851486,65.10258873400264,49.96802716560339,31.797772259894778,13.31350473198816,-5.243605722825096,-23.260580161200743,-38.69155429253585,-52.07868951489108,-66.61066001772538,-83.78952798917489,-101.03842783867088,-120.43334284552442,-142.58075538163402,-143.52284804966044,-94.09399762531646,-10.540554244529192,59.319875486786216,91.36528174097965,93.54160978727172,80.01008005666144,60.95846305732449,42.40688748945899,26.76628113215732,19.380797283400554,26.946521368314784,47.17689024838891,67.49604626994187,75.6883870836634,69.47054978015888,54.017134313352386,36.15718009488848,20.520932426554847,5.650371273439197,-13.205241365778488,-33.962045660857505,-50.29384981507108,-63.94443299341617,-80.55123237090945,-100.37923405755245,-122.73054450329343,-143.30297428620128,-141.2113908190827,-93.84374301089335,-14.267170245088558,57.48346654533794,94.65509014161859,96.54395493727006,78.49929613071217,56.54170306857778,34.83723501612206,14.7515611088993,6.732291575860343,17.755371276899538,39.14381093976686,57.0530955799485,65.05386645987589,63.45843728351349,52.53114685266773,33.540157862513325,12.857400963194035,-5.384632956590711,-24.525814962036993,-46.41250679863995,-64.96409980682567,-78.11879046888463,-95.475166773002,-121.87634223268022,-136.330985626846,-105.51760422477295,-29.370730500352426,51.200473718955074,98.31198067716737,106.40429104016638,92.55204220764026,70.68534519907841,43.55079352933253,15.3389682221816,-0.9910757147006795,4.807191140462537,28.37335319142283,50.89555245059029,56.3750511471604,45.765844592865385,28.944980953892006,10.577560275927244,-9.652631244110706,-30.67881740437001,-52.48025276124468,-72.59081566471826,-89.64471974923887,-112.76731695927523,-139.97154719232003,-138.2210100052997,-80.91427200814344,7.136702625174738,77.37076981015548,106.3296926442519,103.5519432043894,87.96859662302711,65.80052397300673,37.82641856962457,14.245474798607313,8.145431165603572,19.992427992965187,36.73682444287623,46.24507310532645,45.72997677955184,38.158185626851186,24.580817347946194,2.5325120832794834,-26.135652238778203,-52.73105658831109,-72.24955046813491,-91.68807407450326,-120.3171050841614,-153.2185738344433,-161.45193769606885,-115.2021382925988,-25.357075144326647,61.84013109504088,110.7169661296882,117.31219253860897,100.526954654324,81.25981008051905,63.09431003554941,41.889293363394906,27.505849987751045,33.14167637129526,52.39807026678432,67.84681739025243,69.2140496775422,56.0523399805879,35.1371412749219,11.31168364682759,-16.694893537854654,-46.82498371772887,-70.94837090107089,-87.91662922946861,-108.63573942202993,-142.02996995345242,-175.42915757223864,-170.3054944680217,-103.43332480370455,-6.219042793147495,70.28318039278173,105.1089555617566,107.52269846430589,94.31213478592777,75.41929231384123,54.59985255192311,38.46645817971299,33.73343230127774,41.282781352677176,55.719023250810345,67.69201049711972,68.67851308057837,57.79230893444529,39.886717675140055,17.170241651911354,-9.62910945951092,-37.590004118088835,-63.517105540532434,-84.4853390155678,-102.2983525992292,-126.43189995215602,-159.46474869035035,-176.96799220907235,-142.03731634613786,-55.22364161506289,36.21069998285969,90.39839988997333,105.15004235440281,98.31758115668252,83.18799227313201,63.835324715294455,43.39973553187937,29.945260982718274,32.8590072905519,52.65743669165812,75.51546039034378,86.00349362304931,79.71086729559418,61.210066529952584,36.87819064066838,10.349467331750619,-16.3973206902346,-40.298662675875825,-60.42773722625211,-79.70773003793678,-99.5262379392751,-119.47274786133644,-141.82474286569305,-160.47896589874233,-145.73316700275268,-76.71447083740429,16.304577771320726,82.94975240818584,105.43114470667805,98.5378821417543,80.47399284302885,56.474021929826314,28.50708410214654,10.30742053524287,67.0,124.0,81.0
12.892748590447063,72.50725644900396,94.36414836221033,90.73381862092555,74.70628201805353,55.420413280632026,37.454790884273656,23.43096892576123,19.88485615879021,31.917788875015123,53.69888249570519,71.42783488370976,75.2160757548096,65.65495030002032,48.81774296068902,31.340777813336384,16.375889137118325,0.7170257972033143,-19.33164939851805,-39.266326654509015,-54.2070196369058,-68.32886056893754,-86.01403780068715,-106.58327799806625,-129.39955601996436,-146.35706303129598,-132.46534000752925,-72.53374501885253,8.963968425832547,72.24568377348807,98.3335087885913,92.5295902951582,72.1241087948823,50.31085852742912,28.560457569561756,10.63479491173534,8.059676151670295,23.545327492155387,45.13694177590302,60.44126446814998,65.51977905881148,61.29119131923199,47.666271074934485,27.416725945148638,7.369818790267433,-10.591228823112758,-30.72957828516156,-52.430201144664366,-69.06769250512845,-82.16065953151822,-102.53078698965801,-128.8794935374189,-133.06829547049654,-86.84827763208365,-4.400418463451052,69.15543063363585,104.1024816433641,103.80057217255451,86.78591519519583,63.375746884150345,35.052703905987485,8.762340766832423,-1.7348696922753464,10.437635177111629,35.94722029942302,54.518833892593015,54.54720675178749,41.163234671145446,23.80521966032441,4.898243846618686,-15.679701661876546,-36.902101732348655,-58.68655070338539,-77.58662467859996,-95.25549410435352,-121.14825620024551,-144.31780294739042,-127.31655852079122,-56.397443261366035,31.00771691598056,90.05796411324398,107.849567207287,99.7932094513721,82.2841453577531,58.08137860127093,29.884656860553736,10.335350684491447,10.143981967015455,25.011492634938435,40.531528335206055,47.03407828680649,44.12905583069397,34.93855824670006,19.158109181925422,-5.373790300409684,-34.45448258124896,-58.996370801710384,-77.36421130749956,-98.82428143407725,-130.22231024350646,-159.8436312759713,-154.20223970244373,-91.98161867531496,2.2483500743258107,80.6513416976204,116.4277167123544,113.74874884233571,94.67299434387893,76.17012422697965,57.1908308071761,36.23864806703314,26.927206190876785,38.07623392162026,57.91409287725149,69.87877356147162,66.69411759001697,50.45520736135855,28.541944008740202,3.719715102998955,-25.501933099138164,-54.725069270339326,-76.26541818806919,-92.91353560394865,-116.97650127753923,-153.04081742444814,-179.78007079730426,-156.9666381518101,-75.99828193728649,19.704816438678954,84.5894850026409,108.36180171788995,104.68215654725724,89.23970451462246,69.40745868331109,49.0760041758264,35.770878332987905,34.77419540862791,45.121530874812606,59.87799622914146,69.33529514122715,66.56007729103172,53.155308557469134,33.812907651263515,9.75338129536794,-17.739793480856243,-45.43003524448008,-70.1641137843655,-89.63959404461932,-108.16177045112006,-135.54402321881386,-167.9014269235224,-173.34269596017285,-120.76481160060881,-26.79201705454645,56.51322663185131,98.0175450338748,104.6026420424416,94.49269486197578,77.96030054084969,57.78322346923002,38.33604182286333,28.809254260958543,37.22742757420736,59.7656374332492,80.24818667766682,85.81523313659683,75.31242772060418,54.55490032930669,29.35362584472526,2.5301021919094397,-23.72866916745286,-46.411647340346825,-65.94682789189373,-85.4150514749851,-105.22918484023451,-125.58288148956717,-148.48960403939722,-161.2800400806374,-131.05749596953126,-49.865566156102346,39.897695756835176,93.7070485815827,105.47584909678127,93.97887027968913,74.18445252579315,48.44580726954482,21.410100074114347,9.20112841033427,20.398802419816285,44.4400657722759,65.93291503220078,74.99322055724572,67.79901820509498,49.312589305971095,29.474993581571237,11.204930757012894,-9.845129237649392,-34.81957322227246,-58.508958815317115,-77.89513426043139,-97.36028776006087,-123.06931196273766,-146.9491572991848,-139.82374022686582,-79.45360035327265,11.394805213717309,83.7766609651208,110.4965726013977,100.42869646606526,78.16045286250514,56.60834651852111,32.92717918900512,11.30875960015241,6.64057203867367,24.270043067530462,49.474248003273885,61.92975404492173,57.81364370634646,45.58871202842191,26.96812449871245,1.0484654097669732,-25.91489089789297,-49.210782766180365,-70.26281922094759,-89.78368609670017,-107.61909278093579,-130.50465905518354,-154.2294433901514,-143.33894576434113,-73.58778608337894,20.475989285442683,87.72328949742925,113.06444030724323,107.51900048418457,88.24424610984359,68.34273054290692,48.885714676684046,31.078421889435994,25.498857285535653,37.859492414123864,58.787770778445115,71.99679140147279,69.48813578992961,54.95064798640385,33.85718248314535,9.587227171340675,-13.670758749952178,-34.54957479197153,-56.249612235155254,-78.44739991401514,67.0,124.0,81.0
-0.47195225697326876,17.270573141686643,42.87266404619104,56.46459823431027,51.57500973261195,36.29346616352344,18.548966640313306,-0.93910622186678,-21.737289440519778,-43.21478265402392,-64.61905592974158,-82.38616213659274,-101.70329379907723,-129.54196727537956,-145.1359320096912,-111.49512876440636,-30.476749118726577,52.267106671422155,99.09649320007144,107.2190233457888,95.36617464595508,76.03473202068766,49.93910117261951,22.678260114769664,8.15493005922066,13.476399066605904,30.040241863108317,43.50580741371947,47.014541823075845,42.0323419131121,31.191154395607438,12.951811358391083,-13.702882699329363,-42.33843488872753,-64.65713089563477,-82.75371799635319,-106.91147979987326,-140.16381561218324,-163.451436999417,-141.87133920232716,-65.91774438988088,28.351181584729435,95.69504650184908,118.80306453614259,108.85447585245629,89.01774438468112,71.04512678309169,50.9787961212439,31.598116340990053,28.22665744349202,43.759291461176986,62.69693625472245,70.58986856745153,63.037776888934694,44.4270012462107,21.74414120090871,-4.292034671876431,-34.34567340744979,-61.89831076876053,-81.09819098128615,-98.57762760214761,-126.49983694576622,-163.45320551419252,-179.76223628921187,-138.3536768834316,-47.34498426439756,42.77732553643633,95.30928790019632,109.32052640144708,100.92735873089516,83.82826904146259,63.309880541954435,44.162326894946304,34.14218903265895,36.80622945540471,49.3436322921334,63.58326199334091,69.88655435055878,63.5337029124009,48.0587581608054,27.341275454922332,2.0310058592385207,-25.859513142528165,-53.028348739457236,-76.32367154931256,-94.65802938093394,-114.85237620240986,-145.29503810153338,-174.1168498368576,-164.4991647501384,-95.76282722597193,0.56755085060828,73.03759285924146,102.66504538769675,102.73047936777321,90.18793855584919,72.41070412090876,51.75279230760604,34.103229971591574,29.25482171431071,42.87468143214259,66.66946141604353,83.64800304303768,84.24072597706176,70.06166995587851,47.55279194952816,21.69870334557908,-5.256989715696309,-30.7316543352853,-52.23912022642232,-71.48850991803084,-91.15437479078145,-110.94256846248813,-132.0006718813189,-154.50712322169565,-158.31345418372874,-111.71207706816301,-22.307474872794405,60.18387541760417,100.78818032320382,103.62290729300415,88.83246005538085,67.3812371075875,40.19791870291428,15.61009372892853,10.203514448845716,26.771186923042958,51.46263306252413,70.12208330805423,74.5565017006319,63.16600147381215,43.38383825339746,24.166939450065385,5.613539077345373,-16.827635212230597,-42.04321341010274,-64.50891413681228,-83.15151148353497,-104.08895033916048,-131.11715207104515,-149.62223807433952,-127.81900284241479,-54.207218235928,36.122436657019996,96.38887484916496,110.31626042903122,94.27280112109547,71.84543138511427,50.12022243620017,25.86704866879022,7.6228574055618425,9.738616323147742,31.800951539712607,54.96595917153637,62.10857740356646,54.8237354492133,41.013884249583896,20.061195179446283,-6.975503678347531,-33.0376876151076,-55.409462190545575,-76.13968858750648,-94.9389122841053,-113.37992517986784,-138.31072693376572,-156.59429611639354,-128.80864247371443,-46.27260882632188,44.119072855625625,99.10463149725426,113.91438209684601,102.5933553069346,82.29813766008598,62.80880725540659,43.217102626734324,27.70418917323152,27.364734808480364,43.74873894708969,64.01953927144172,72.87158779637404,66.23332298747223,49.366703837060435,27.008001978646057,2.585237569559428,-19.83725158008901,-40.62279016501707,-62.768753018952125,-84.48289707173295,-104.0650288493195,-124.72216425163283,-150.09116574427787,-170.60612420487845,-154.17537065979303,-80.00848335377749,18.188104677091566,86.37803513808699,108.90059707391937,105.15670790295026,93.16930679759207,74.24409299186227,48.389378634252694,28.074401725622593,27.89329705702477,47.022198962362516,69.27030159712147,80.76440786600818,79.51577763356089,68.34712784657177,48.765465023271,25.217999105844257,3.3521362642465706,-17.872992824282562,-42.21869997871168,-67.69179296296596,-88.8449492399382,-104.10549994754315,-121.08389665181167,-148.41149046008215,-174.12188272340305,-160.54568412107088,-86.53756392765342,14.690996011444886,89.37418304005655,114.68526070659625,106.14783576985367,89.8399376968379,75.00549662889932,56.59653909753304,37.30642024571951,31.31610489539993,44.07931059018293,65.94496347855542,81.24396125737138,79.17379278812419,62.44694004508301,40.711271025286756,18.76255482832463,-2.979703446543491,-24.977044258429537,-48.45563946748307,-71.21227907160953,-89.25517157078738,-103.40266568538864,-122.06581904233171,-149.5745363842641,-164.58542866068728,-129.23655770094254,-41.32582942719432,52.0284752811919,106.76074096476704,67.0,124.0,81.0
-172.24069936339006,-174.57040677855113,-115.26803965698493,-18.90213814724732,62.44373079275233,102.71169763493167,108.43463706144924,96.51556314668863,78.1293742178046,57.29151122513961,40.05041771404736,33.61038878590836,39.70265403415303,53.71772300117137,66.59560123594125,69.31230477398715,59.75054775378823,42.555364832586626,20.469369578519416,-5.915282226172627,-33.915826636667504,-60.29902572512007,-82.00637715713474,-99.8022214571252,-122.54048685719324,-155.1225202559984,-177.0220831151878,-150.30618750085551,-68.30955463981975,25.66108184534632,85.75901536603381,104.84034314572757,99.88311323062464,85.48155820502105,66.5888806434313,45.94154101151306,30.960299289610585,31.348542108643443,49.440488142515036,72.93953722288614,85.60074705971303,81.40266229150356,64.13034986924997,40.293137712601066,13.946188503951886,-12.926741078854148,-37.36532777144004,-57.87032910887427,-77.09676913722927,-96.88982078181269,-116.74180689183963,-138.69447184584868,-159.09889221297232,-150.83057502837832,-88.45174608515421,4.531193331505271,76.67690082009591,104.61672332498573,100.38139352688923,83.21473627938694,60.035281106522866,32.08195261158901,11.526482765823996,13.167584696563711,33.80644436129965,57.93973893919372,73.08847322513212,72.72853813802008,57.8168404253983,37.577754005741745,18.949455169853785,-0.35205062874963905,-24.0773724393865,-49.003132254274725,-70.13091853420279,-88.60735392272169,-111.45539765826359,-138.60541528191922,-148.7974839809288,-111.11440743721569,-27.491942783253645,58.1028764919124,104.90111332503417,107.58839723481955,87.71922300237124,65.67865593788373,43.30663284824062,19.259341047538864,5.749062576911363,14.644468126660117,39.411277804845746,58.9660388491829,61.03857400812255,51.37919387735435,35.819956517075454,12.589837422794913,-14.875301253521071,-39.81377453511421,-61.49942623851262,-81.8506340677225,-99.98930182064832,-119.82224557228614,-145.81518536810836,-154.88217405106755,-109.24587051082379,-18.36789057374966,64.4987481805199,107.03382143106663,112.5630807537035,96.96679120461991,76.51694132342851,57.21364579360111,37.82394771932449,25.672675755449507,30.734835537006248,49.9812589654436,68.20774623146269,72.38685229879108,62.13875558241584,43.3370301259768,19.97004807276608,-4.212772168910618,-25.83964499283803,-46.860120739035345,-69.24759400523591,-90.30075604956885,-109.69533496303671,-131.57679120481006,-157.57360776497822,-171.3256082359958,-138.28850708004003,-51.44268938575603,42.63736601976148,97.0639546734674,109.42262414045338,102.21164384966207,88.59360825202775,67.1717225126275,41.16550298112619,25.60306792638833,31.979547028871178,53.951160923783995,73.99027369625948,81.57970135993253,77.23094144420047,63.45366766403273,42.064518014936525,18.610234104196106,-2.6232576966339987,-24.546737299625743,-49.69685040494226,-74.4574624482818,-93.7045059596582,-108.30786988818987,-127.86391184355963,-157.3561532450849,-176.0264960872116,-144.92247905907828,-57.5370544443699,40.84707976718172,101.64115725086404,114.42967988106304,101.39034623239968,85.53468836174093,70.25204954483785,50.562589145057714,33.636306700020256,33.285949514132774,50.121210940096645,71.72129002396626,82.57602643423141,75.42586203780556,56.32273749057222,34.35178908956759,12.450558673851425,-9.238970155771833,-31.61430867779082,-55.304154536383706,-77.0183813074094,-93.49212971326946,-107.86878379452126,-129.42196377175185,-156.92025824901413,-160.78183418716142,-107.76472479945829,-12.39119825462505,72.8293696425883,113.5963052701057,113.12640178706637,91.51871737499334,64.7656284900068,39.5725254319229,20.08829233427809,14.028397968880759,25.729496253363383,47.23435151582891,64.29442763371969,67.21083029842227,56.00833914875281,36.7971296898191,14.609636151103999,-8.287736090259083,-31.365942972260175,-54.93054884847321,-77.19544461243076,-94.7521608653063,-113.16836813194563,-139.77374242290327,-154.03102678760172,-118.23017265514848,-33.95051615967106,54.13192201674798,108.55820493908064,122.47510849304697,108.40726451368361,82.59276640318251,56.34275028296488,33.650946102141965,18.511739243313308,19.57043997482414,37.57181957716621,59.076996579808736,69.17180890197535,62.3990525252425,41.14063685156239,12.042412385590556,-16.91405877925829,-42.680403471127825,-65.50231199795721,-83.96011634912314,-100.69058395183166,-125.36628595311257,-158.14225289878286,-170.02863100353568,-124.83011279927318,-31.55019024916524,57.76261397013603,105.45506573603495,113.75346105352199,102.77355427040091,84.51246134914854,60.12985055386209,34.89067577432858,23.380409476621242,31.70057400463381,49.088278210185365,64.26616440895492,71.37221499702179,65.01118646008894,45.08640596416527,67.0,124.0,81.0
9.446638541782422,17.80296064319088,41.096008233937596,63.63085249082639,74.71542592213862,69.61702005837947,52.04220232537368,31.98129847729747,13.687311820728022,-6.750666078555733,-31.436388275794954,-55.603064696359574,-75.47839926581116,-94.47163957698733,-119.33701323259876,-144.782321735045,-143.73094305546886,-90.24118940389734,-0.6557757369856022,76.57778555398956,109.54427490336748,102.99193154421548,81.14115382152674,59.506400195053224,36.22808538292062,13.532679849109398,5.884091390822484,20.99208203499634,46.5142810400162,61.35884665829401,59.00234628725477,47.51966811590716,29.92657525030376,4.737771211444003,-22.509026047642966,-46.29820177418123,-67.51540432067922,-87.33663604259723,-105.139680605367,-126.99482897025501,-152.07517418779298,-148.21861671054396,-85.55247286352193,8.659952596838384,81.2507733629732,111.81876081727322,109.43652743582632,91.01488930348818,70.89873281189709,51.52495336306661,33.01040199320031,25.18034535423375,35.37818544371604,56.113787798524,71.11988217276193,70.65992961954476,57.35426049755705,36.92477357010576,12.857378439999934,-10.748516893812976,-31.790795066947865,-53.259342124311345,-75.58946646110296,-95.94676235429898,-115.53819012910088,-138.89612954561156,-164.20841126770188,-167.95147667460043,-117.46444229989079,-22.291123338484063,63.418798045196766,104.07312993274437,108.39970616400025,98.85351656000444,83.32009473714292,59.61698672626121,34.83821028549426,25.097964543543615,37.45433928700673,60.65476019961229,77.58802791927401,81.39328659851728,74.17458752157712,57.88646528259707,35.196888336316064,12.253530195096891,-8.664826495377183,-31.539422336221556,-57.15295074001516,-80.72337407683676,-98.10315840360529,-112.9431648078245,-135.66006501356674,-165.57050169555106,-173.5363763980548,-124.18821640031123,-27.616577171052594,63.575166778445514,109.6683276711725,112.0241503480671,96.55719742244906,81.34072562956942,65.02347295374514,44.697734824556605,31.46436243113631,36.77693686019317,56.582760208451454,76.54434784865155,82.30165715272545,70.6619607813724,50.01590264318169,28.009196381306456,6.162813649500586,-15.55153256860108,-38.39780248080788,-61.98770634828657,-82.34265206951889,-97.49717218268697,-112.9930948167826,-137.4992700463422,-162.35830817254862,-151.85006556482725,-82.46403285267695,15.530620190029719,89.64248468850937,116.88580197031504,108.17018442388972,83.86781968026126,57.18608963987355,33.079434691226275,16.584857021171263,15.694829415745984,31.556717556700807,53.20230956609084,66.784087124732,65.19330077746893,51.000942937103055,30.54661598002832,8.020858296471822,-14.930415412456302,-38.12309148491745,-61.68849711598011,-82.75827663391269,-99.44811850316134,-120.19370942904642,-146.95875457223426,-149.9130647620416,-97.29698613521256,-6.7058099376188185,74.17073605545573,116.39491275790847,120.53672871886955,101.51592769563857,74.75870455801078,49.34856414711772,28.151343749231327,16.830224647313493,23.41419414192254,44.20646554889015,63.606348196840436,68.94528802227896,57.52102845014837,33.15909111161463,3.3941156296431885,-24.665170780776744,-49.61635750376125,-71.32769064449428,-88.61890571202902,-106.5823252138145,-134.68869103207652,-165.65159151331392,-163.63343993951082,-100.88720461182122,-2.9335483115475025,76.39441362310517,111.06303396948684,111.7461895811426,98.09041190161962,78.08429307651025,52.366789286555324,29.53252176521355,23.99149330776705,36.44120712009698,53.993190534138165,67.40494144008824,71.08049877122943,60.44318627819463,37.64310124795146,9.755205553477687,-17.32962549531246,-41.33692704012661,-63.46379104873856,-85.77016731223196,-109.02101329382887,-135.963697572097,-164.77517916419686,-172.38049438105892,-125.92592644920984,-32.101985362520395,57.656048058997456,103.97071580175431,110.88677700220478,100.99569613276164,85.34927105101221,65.41849718021662,44.862593741490215,30.80804717008882,30.614012889821158,45.692767181194256,64.42176003740892,71.15233428010578,62.33097892538588,44.1156416691302,22.296565918965868,-2.031552538620269,-29.97544457414587,-57.26361396205258,-77.7441763538333,-91.35339782160133,-105.66329307293519,-130.10489175942058,-157.03575840929102,-148.89245564252576,-79.89831819589502,16.558409111344346,83.27026672034988,101.93127471197577,92.87261506128675,76.81218078823008,57.785979915398656,35.914136286085785,20.14897674796186,20.83637307156579,37.139209446713,58.745266380642825,71.26540859634937,65.93122669544303,48.429666343680104,29.439302086302586,10.766959891957203,-11.10168343078891,-35.036677727312615,-55.60398090602702,-70.52872616994425,-83.26826240321446,-103.30234787538382,-131.62281991269117,-138.39306068965342,-89.938998466227,-3.193881948883382,67.0,124.0,81.0
-81.72850355898385,-101.5035260239549,-121.7243598032611,-146.53919839574925,-169.1586693608808,-159.72647559605034,-92.54244176326756,5.898807438239569,80.09711509854556,107.97205112135536,106.3442050614676,95.07677664443433,77.28190037547729,51.895882797091545,29.834659571810764,26.576341127521438,43.876744522783966,66.74880009580971,80.02473467618178,80.30162482832296,70.35887637141161,51.74851122732383,28.336946712990375,6.124620442270028,-14.903455960612932,-38.80334366570632,-64.43475410364353,-86.41784843463277,-102.22719315298117,-118.3036156273114,-144.27589599157884,-172.0377365970441,-165.90653411025468,-99.18127507018676,1.7328737860886732,82.23616257203435,113.87205431644635,108.20227925065271,91.90056233211227,77.06329177530347,59.3351414770187,39.42178806953332,30.967182180849214,41.54011356883096,63.063743645831494,80.09834504428737,80.48676310490397,65.15917758802236,43.64857080879623,21.678014400860373,-0.0982450141178036,-21.97014045083291,-45.276139539995725,-68.38710389488325,-87.17810958674792,-101.49153020348537,-118.98317356787094,-145.8353263558744,-164.77985157044805,-137.56686864306744,-54.61956754388427,41.21431275422933,102.30287312986137,117.12595355149553,101.97049031994328,76.08212950117553,49.81470811741744,27.188029139931306,14.432627245790036,18.854317248842005,37.88171703557713,58.450697373382546,67.93333717777888,62.10174707966911,45.49096759629054,24.13989191466967,1.4039517436918616,-21.58609047012589,-44.93718869722372,-68.24560455674485,-87.85849922265292,-104.50421882996183,-127.98867451983105,-152.20456098097804,-140.7477353862929,-72.978967525755,19.562350736401115,90.77325980756986,120.9653812027977,116.66901411476542,94.02218852540342,67.08977596669202,42.678472137611465,23.440989042184253,16.737185520457636,28.53692229910462,50.694081098236175,66.88817187600517,67.2806574286294,51.5388038897259,24.724187318558773,-5.061128034843652,-32.152040352051436,-56.30173628800568,-76.7342917973264,-93.28463482977557,-113.4301636650427,-144.48582052287003,-170.3762017543943,-151.74283569501492,-73.79362985746002,23.892377352656805,91.03091657017144,113.78670602531517,108.64234043981457,92.93489301943629,71.1114907886627,44.783336426994346,25.72958971267332,26.215139303026895,41.554895024564715,58.53100420748698,69.73764089886558,69.53847051406301,54.825350106959164,29.78722029260958,1.676572275529674,-24.59054514095987,-47.80388124421135,-69.8543425170553,-92.32434673499122,-116.27313066855939,-144.6075301531759,-170.78543372283005,-165.364173364736,-101.86755251821985,-3.258718148971194,76.08814408456418,109.00921099049353,108.94236557211303,96.95415465407281,79.96359496971935,59.26362583212595,39.787552057972505,29.065597573593248,33.659942054593266,51.51707711873448,68.05419801684836,70.00176820056198,57.71977965866026,38.0208294869942,15.613485115820332,-9.795236762431289,-38.24834533350391,-64.04071636302778,-82.17311578791708,-94.93828358416764,-111.4625540527292,-138.82671086066495,-160.26557900234374,-134.91578229458275,-52.09385090649845,40.72511306099858,93.11272876722438,100.95353759812271,88.49633812444043,71.71159616389714,51.551259895675656,30.150454643707274,18.446358373846582,24.273391929618196,43.444593239256655,63.90873054373362,71.58395984958935,61.57929457006515,42.80730097117198,24.16835069530831,4.868016621002516,-18.030051533382327,-41.53362858904009,-60.45351948917195,-74.11453636774533,-87.84344231999313,-111.3212711828565,-137.75953040699503,-130.53887684549366,-66.59377546583215,21.2054280174665,80.47462644732114,94.21100901820084,82.15056287382076,66.13693309921474,49.137475296999696,27.798779290048472,12.27622886240185,16.43733704936892,36.13187865070192,53.471893158903555,57.95988601028837,50.814607366051305,35.506222327626055,16.352719787296675,-4.179119618482718,-26.761701677494383,-49.51273113016153,-67.43634768343793,-79.04952525504822,-92.70931133769125,-117.23387552103843,-138.9556046326549,-121.33414136305413,-50.5394032566637,32.65361770773612,80.37800125449053,87.47360733666659,75.53562741654659,60.93220347942559,46.84325449006605,32.97733732747362,25.354888348971784,29.71829029149175,43.82756273622145,58.34775674253558,63.54589780154725,57.94312869232704,44.30649096139431,24.815580086498215,3.1146353658847663,-15.80862970178208,-32.042900736245564,-51.07779585162818,-72.30824405261586,-88.06921111899398,-99.60825922753835,-118.14673649264341,-139.6284079722796,-128.93578644511453,-63.12512593981758,21.967579059335872,72.91596813350708,81.91055127521808,73.04495419413941,63.7853631937239,56.50179262803752,47.394932233512435,38.31741999181434,35.22819635355553,42.794838055177486,59.73436782988938,74.7732941401282,67.0,124.0,81.0
110.91205238140296,114.86230460731807,94.94165782969684,68.31344248822332,42.72222982238514,22.100577298006986,13.791345085858831,23.31244209942205,44.32560525741991,62.716648675889296,67.73717577922154,58.10651139408624,39.60659529345384,17.632471062134524,-5.22760508528567,-28.269739719960523,-51.7815888114974,-74.46966639516953,-92.6147229688521,-110.23588460100862,-136.1134963003234,-154.36635840336945,-126.45279883391055,-46.511644340159606,43.83625352609286,103.77481862768242,122.60200938491035,111.28782749037664,86.22301126001075,59.66882305689936,36.39109550284445,19.776308880162034,18.302027414661115,34.58607827721036,56.62634842552083,68.78443583521911,64.23982496709733,44.60676024106215,16.058136342073226,-13.24264168151516,-39.4078883024574,-62.68146103642073,-81.75196229218355,-98.23195843741335,-121.35729842586053,-154.05723834478792,-171.2146472099858,-134.46257400735018,-44.98863881218698,47.87508189620664,101.75161467829146,114.19263197265543,104.76340475072053,87.29071921213402,63.671300539649955,37.793346024550225,23.698354333927828,29.740779468046366,46.73896469572109,62.5889289007386,71.10688819703925,66.72551468347936,48.32699290362851,21.694082817544064,-6.223826272898102,-31.572710337821675,-54.17940097392532,-76.28962101016988,-98.97372055000292,-123.94340118465286,-153.25765106473324,-174.17689060451164,-153.10296979628671,-74.63556277197677,23.74870960035953,90.3382155005535,111.26073970395481,106.12984646030364,92.52442256708281,74.23364505236002,53.19615722819712,35.44327538817166,28.657389007354606,37.91508956798472,57.22201196023722,70.35597690906877,67.62697638957081,52.50583607312664,31.740830748905083,8.679966723612168,-17.86585788227596,-46.29184255699302,-70.12478960665788,-86.1066630634012,-98.83263833023437,-118.32996847039222,-147.28007575844865,-159.37199895293475,-115.66866035910145,-23.44985583201076,61.143781987753236,99.04360468896286,98.36891056373408,83.87643686930683,66.3114017211023,45.133600352516176,25.221053405880255,18.30177306172785,28.868038503175473,49.88093878676384,67.9415172882085,70.31451521897031,56.50206151581351,37.277965873498275,18.855156654377154,-1.3830440165948334,-25.025663136567843,-47.609868579487774,-64.83186954291683,-77.65263936473855,-93.33543615960474,-119.84646267640181,-141.0081206498702,-117.492560679096,-41.12189607090939,42.9377848664525,88.68089696535621,92.14815758932316,77.42444597728954,61.59133513085848,43.282480807473505,21.939579427880386,11.204625560783622,21.24378232362584,42.13823125967465,56.164726020253575,56.93316486746224,47.064566747749254,30.170379653925796,10.57782073032526,-10.48910466607971,-33.51367126055631,-55.40168859561621,-71.26235604975629,-82.21879399090321,-98.67951001209052,-125.21099830672883,-139.48310494276163,-105.45499445519508,-25.127968396979956,51.20933761919938,85.80461840051278,84.99243181351495,71.2376118113202,56.8881630762758,42.673864916035996,29.763974929463703,25.32348247892956,33.09362696193286,48.50772296033282,61.046032786424355,62.91438989003158,54.72996677470532,39.163770070382064,18.54292766982584,-2.7947059596839225,-20.558945137422107,-37.060733262389064,-57.30936516254527,-77.66481515900976,-91.39034843282575,-103.84738114368261,-125.1207930838176,-141.72506452123324,-115.1388141489104,-37.74967044620473,41.61098608421194,78.93103718585118,80.10597697563965,70.05681613756587,61.65471556116626,54.133298628648895,44.513706002161484,36.55639387308407,36.204245399313876,47.0421148165707,64.95833246449159,76.70048118914322,72.34349131471899,56.563757456036065,38.337759254114054,20.93179034572888,5.549089075439725,-9.116320653812336,-24.444828551296006,-39.9505686136749,-54.82783702586526,-69.70889275385218,-84.60574830930321,-97.93003818031691,-114.5968580243696,-137.8953625176487,-143.51041118769035,-96.76771152038775,-11.4273311156647,55.87831041907393,76.60909472883178,68.22873806554315,55.586689525820375,46.12403520009329,35.558136986449156,24.58370298428788,23.325359075217072,37.75218662855681,59.796811288707445,75.04052948871801,77.87067035835409,71.71699427857541,58.80919788001534,40.31284413630469,20.74120995236321,6.746576663165425,-1.5174792126926895,-12.20563797116046,-27.980692558248535,-43.55203877124997,-57.90029761970567,-71.83926413110301,-84.13891497038802,-97.5301488571279,-117.56510281180778,-134.35788921981163,-116.44325279904581,-49.89698113800854,28.972680418076436,75.01764399131032,81.36759317323519,68.16015871527861,52.67354699270328,40.090790116995876,28.713402774771552,20.98230053163775,24.908733484882227,41.94208228606034,61.60188741895166,71.85435177165344,68.91282881136196,56.97241935995624,41.63846094318336,26.09959754863127,67.0,124.0,81.0
41.13726347236766,13.517145248943121,-13.886960128893707,-38.30396893188158,-60.530368624731764,-82.76828121853322,-105.79257250641065,-132.07323376324752,-161.39344356070947,-173.9529067581377,-135.62025637422724,-45.641949026462704,47.795435329723595,100.53368057184254,111.37991023653979,102.72279466505506,87.70403215003812,68.23929040808045,47.39566268182553,32.022231810833745,29.66768188768329,43.09563007918909,62.35699000870175,71.22905193795235,64.20737650012003,46.84161579899233,25.31247268350614,1.4295782615201353,-26.13674277285578,-53.92537074137375,-75.49712488700366,-89.72769216455444,-103.32075240307245,-126.20712551881721,-154.46770318141952,-153.4607957463386,-91.97799929282651,4.398644502619343,77.29985786931387,101.65418780840724,94.75759049180428,79.0838836818015,60.558414192147055,38.758392040925465,21.437379539827415,19.69950893178511,34.372859310132,56.075870859251076,70.57412705520076,67.60181816193801,51.01844302077246,31.88618845862692,13.378100970167726,-7.970337491553819,-31.92871929610679,-53.19885205066122,-68.80562659452784,-81.39366746847377,-99.90808205642335,-128.1417372081173,-140.29488849968354,-99.60236167828909,-15.023813123169228,61.142568996644904,93.16260047351497,88.63489508431928,72.75824954167011,56.82758024768462,37.045577666532374,16.990426128287595,12.02897218546933,27.01398252851493,47.47006849248744,57.69075616304769,55.02566047747798,42.71247546671127,24.63762733162604,4.695063439412262,-16.99370303616337,-40.187772007388126,-60.74708438221873,-74.6007967822457,-85.87322478672334,-105.69504161568062,-132.30168172383728,-135.69595143042005,-85.31189776752319,-0.17335972379679432,65.93323954634957,88.18582233569148,81.5194271929642,66.97607511478341,52.84715798206264,38.554730206905276,27.289564079012507,26.369118531837756,37.1521858566347,52.928837011405705,62.78345083349163,61.438923038919306,50.90622385366583,33.58392909573343,12.201395834576184,-8.350220566940122,-25.176122258525453,-42.46660743992104,-63.58271593519182,-82.36519730147131,-94.55218259386943,-108.991272038898,-131.94121808295753,-139.9870128727477,-96.6350828250538,-12.2631588345612,57.33055980711562,81.82640448949468,77.46985611006426,67.30132398477889,59.61288837202835,51.5261620465909,41.76534637782854,35.440017643180106,38.166498436523945,51.95515066423813,69.64667931610447,77.1630474951306,68.47585465026225,51.31850586860599,33.14756599481327,16.28505412330066,1.3355928104394383,-13.468931331817272,-28.957529735957046,-44.31665105525818,-59.07291466424626,-74.09865935538782,-88.58985080731779,-101.98386057725008,-121.06208468985216,-143.16648368203275,-136.0982080064203,-73.79478968057231,12.177440385324468,66.49308115997023,75.85849673125651,64.3194143035431,52.635684565318904,43.3734211766978,32.09088548009616,22.726149348513463,25.979126655541865,43.9893311369959,65.41626051912961,77.04331489129966,76.85098500139604,68.6531409477705,53.93017684153407,34.45682884447296,15.91317951769333,4.051732795569089,-4.000190494592826,-16.44185580597705,-32.67966127940998,-47.73877610858542,-62.01539515037268,-75.57813676819264,-87.59650857693438,-102.58863506352611,-123.88370734744663,-134.20814703657183,-101.48121937439716,-25.940180278717815,46.79132588588436,80.24365556218282,78.5735531230972,63.47580138862144,48.77197379801897,36.7357786956351,25.778973957996858,20.613581294226325,28.76829774277393,47.975812094200904,65.89131404476913,72.27574588781225,66.11147463936972,52.69435667053984,37.10366166639906,21.69925335364269,6.622215262448463,-8.113703090738085,-20.99276758497895,-32.009807686170646,-44.09426684643454,-57.89843899876618,-71.6042144736204,-84.13902887378825,-99.54551493715647,-120.79507179208109,-128.45626402592748,-88.26572412247069,-5.845847665423491,65.01274906693797,88.5849086564849,78.25910616359305,61.55346845131071,47.356315733942914,29.14091534055279,8.473169729419546,1.239759888521825,17.602386771868826,45.578894301243515,64.0581439460653,66.03916713386543,58.122095704826286,45.28315381147939,27.70808045181264,7.1188235847445736,-11.484964669109578,-25.067523615600102,-36.37627683230174,-49.67184884035317,-63.6294281183325,-74.28923485054493,-87.57869079190803,-108.27845836168545,-115.05993706765598,-76.67355691223439,-0.7436712108819884,67.23235121169917,95.7771088872677,89.32822793508647,68.04129179054696,43.579048904925834,19.396338290923918,0.9210682383285669,-2.858546940300522,11.093790313214653,32.720850845872,49.67287866620997,55.772213120956465,50.67942007939985,38.01425374521767,19.8269738004888,-3.1055502081411532,-28.28823961135214,-49.38130116637269,-61.06268334472311,-68.7015355383823,-85.63886410269765,-113.88104344117919,67.0,124.0,81.0
10.222754493716577,75.33097243692553,94.48153942247433,84.29179838534878,68.21157254504537,51.6744048390683,30.678013830366446,13.386298450044034,14.670831380255969,33.24526251285487,51.83481678812066,58.11247950473556,52.31483156988368,37.86979394239906,18.98671533297322,-1.3370239245398594,-23.65598485210328,-46.647019973866605,-65.47225040806215,-77.65853136812179,-90.32338041597707,-113.50033107212788,-137.49543595440508,-127.02732912533594,-61.98577170763403,22.936116037356598,76.69994049264596,88.13866328062814,77.48867991154162,62.816462400439455,48.75347836425829,34.64916847433278,25.730589807808656,28.442807739476677,41.66680099548134,56.80773852421956,63.52889151456206,59.206491067373626,46.51224107406012,27.6465268285448,5.93726998744633,-13.532910049075424,-29.83343859477495,-48.27975590565429,-69.6484464105873,-86.40228379352845,-97.90195295808783,-115.07552620788417,-137.66523432343533,-133.58729952559963,-74.33085340300003,11.760255740701004,68.9194669109566,82.30643184391646,74.46102489094486,64.83325913582208,57.51913398614797,48.72434534003917,39.309251925922,35.09536099695337,41.117575526063696,57.25518337982103,73.42564183950408,76.1578853359036,63.91963041359101,46.03044173335948,28.066535774132497,11.82366095830696,-2.8782970095973877,-17.89091398387558,-33.45695686583973,-48.61842472742974,-63.35454639758187,-78.45604872288135,-92.4054475030048,-106.55934681467372,-128.03274249531765,-145.99466974236697,-123.60026193841344,-48.66000375980652,32.782256445102455,73.08677969637975,73.41887578827875,60.53449190484011,49.93768690036455,40.38147810320872,28.72478062460349,21.99060511141721,29.965054924766832,50.529917130063296,70.12000213350714,78.02321638598303,75.19084666379214,65.04219742384127,48.621943789733514,28.671333709967005,11.709350889085758,1.727234490649284,-6.931966670566432,-21.02930442647953,-37.22100583272754,-51.87418230737026,-66.08527747716275,-79.14003184063588,-91.29192641700118,-108.32648377973928,-129.43542099682142,-130.22512766294832,-82.56878928455652,-2.313516907282282,61.012124942610285,82.43187174951576,74.73319202651375,58.9026494536416,45.12526076130432,33.4140588663081,23.299182144743405,21.43393012095103,33.629187371136226,53.87983295791206,69.15045555967784,71.60512272141226,62.71219525552037,48.253530906882396,32.60056566856612,17.32748348685131,2.29107979343233,-12.107120537594259,-24.24766229716338,-35.29385528006095,-47.95823434149957,-61.971969233257376,-75.28667858380034,-87.98699681918953,-105.34662020899535,-126.01912247100934,-122.74288513912485,-66.88324458516674,18.34275256107167,76.86472277674595,87.7229297298137,73.2295169029886,57.38124170010855,42.77190044203169,22.886089663481886,4.216288074834769,3.643322980593016,25.492811031240965,52.58968324560454,66.15099323363516,64.41990817579139,54.86990787153676,40.692982409235455,21.884354671244484,1.307175019923196,-15.905793361464891,-28.342726571750173,-39.92069899193426,-53.87989514459006,-67.02906310583023,-77.36020067130602,-93.14624991345129,-113.28189257332751,-109.34237851707113,-56.8810702427066,21.770694020618674,79.95091520280529,96.63496025949892,83.92949757840745,61.09452021052445,36.42047185609227,13.098901659227002,-2.046914684457204,-0.4203562499344615,17.191123642090414,38.489133207735485,52.67698821745587,55.31775104080014,47.6465793356232,33.30135026065279,13.630096324814055,-10.347855165470977,-35.16015498371495,-53.732309269243,-63.13824373539977,-72.11306829362262,-93.24229580081773,-121.08165417813116,-124.30168633236785,-77.52874412712143,1.8218080016145515,68.23858083867115,93.50418646032183,84.4533492470982,66.8905919404529,53.26152458941736,35.42909684696465,12.800782036319218,2.600509786351847,14.88238768515382,37.076719407402734,51.53017720356363,53.547409237212094,45.96332577828318,28.949654939652223,4.850176383270709,-17.578992724497,-35.19187629218232,-53.601768118896736,-72.87718929434888,-89.22426057982263,-107.93693312532884,-130.25394079112795,-130.11450274684097,-79.83030254359353,2.981436065520133,70.77681157086221,97.87399587542394,90.61330423985018,70.36269011865548,53.94996740966766,40.814213239671474,28.111164846308707,22.613382235464858,28.996863417784787,42.83612990318081,54.734036026882094,56.96681675269821,48.595686422084334,33.62445785168849,14.746855685234529,-7.744169465554207,-32.1151908263338,-53.09769934710544,-67.58973617071184,-80.07650325288654,-99.30653671259853,-126.65772438248743,-140.478090804315,-107.5027585335776,-30.67534577878709,43.14856389077953,78.44006748847873,81.69520587872756,72.17128253221401,57.224125220633105,38.55853147196835,21.823251209622892,15.036288667789506,22.445776852424874,67.0,124.0,81.0
75.98852447164903,73.81387428126247,58.94145993348697,40.75528668669988,23.140514179151598,7.50681064744858,-7.133549289263788,-22.36836730915755,-37.9150206955226,-52.8735056076948,-67.69198813046854,-82.70363424496358,-96.16375602868634,-111.87135744147507,-134.94803484732444,-145.28899981085237,-106.22625244116634,-22.990400003354495,49.55634870665703,76.17575409091505,69.98465854775931,57.06274615625621,47.337125885799665,37.12816412272752,25.742504905353513,22.578552753651167,35.08617933964638,56.969717369907315,73.7470372131932,78.1025303331133,72.94320111833379,60.89542322953732,42.98504571926976,23.148500341197902,8.167509725213092,-0.4721658102220011,-10.41406888110322,-25.782684758518347,-41.58823389670406,-55.99873427901793,-70.05663316956937,-82.57205188058036,-95.42654797179078,-114.59131617147037,-133.35886117337714,-121.84782323141918,-60.6623977738654,19.68262288086174,71.45134472316059,82.15642954141265,70.30093107594828,54.57152200122198,41.65502005777077,30.16177705018502,21.50925838832575,23.522365782408336,39.21445620627324,59.32533156772293,71.27131617752833,69.95966684744835,58.86228071300463,43.732310209785304,28.14098507942343,12.972199720997034,-2.00182009580322,-15.88727057772362,-27.39686609544773,-38.740165748259024,-51.94711268756711,-65.97544300107722,-78.87101055275247,-92.2476687377954,-111.63619926357472,-129.3005696650607,-112.22089982858448,-42.781395762172416,40.00082059300711,84.41245010089145,84.76182312307039,68.2559119110069,53.38233968414083,37.635582722651044,16.64509390544686,1.5641165175256704,8.088879646194838,33.829968366290224,58.32935900131528,66.90551057035171,62.19345142985722,51.255077132926644,35.69055668162409,15.892289340578488,-4.194833569440744,-19.88573122743849,-31.549335049340034,-43.719376232218536,-58.021288505104785,-70.08967317870389,-80.94436609131719,-99.30758858451775,-116.27132722805676,-99.19463021454486,-34.72153065727467,42.3618769609126,88.96250431297386,95.00405846057663,77.7827959734567,54.025198159292174,29.34229311708722,7.461761931098619,-3.547889110923022,3.448854291219435,23.57045623106555,43.62088505742619,54.679536050906506,53.982512765357704,44.08206229026002,28.14300467715578,7.060381507802482,-17.695238479019878,-41.48364672968482,-57.229906234873354,-65.13693746881995,-76.66369593748654,-101.615582955132,-126.19919508924072,-116.09435549833462,-56.05895287871339,24.22839507967421,80.09403472604852,93.36744288523693,79.19809125834934,62.69744407044576,48.974291375241485,28.826671137434708,7.7274288092930234,4.016864191207232,21.198397880958947,42.53834797085007,53.277976664722345,52.26459324691724,42.05248618267278,22.393996439253524,-2.180617591393072,-22.969250151782855,-40.223373577558974,-59.31753574757516,-77.8772462949352,-93.97374554532533,-114.61469437958112,-134.2112541388829,-121.02018420905758,-57.21056617452521,25.966228928051144,82.97190239732,98.50142939516401,85.06936560501178,64.94904482261609,50.11696242309089,36.932299267522865,25.40909654164868,23.27615585049674,32.60547292276272,46.9035094818901,56.56403250224391,55.494180625667894,44.76734694519067,28.533932797833558,8.614909890420527,-14.779629456750726,-38.77817491798395,-57.90282018656036,-71.03114154529553,-84.594935463775,-106.80003358703468,-133.64567951564072,-136.70757787399813,-88.22509046639999,-6.70699392125617,57.70987721753295,81.69773284840754,79.68574985929092,68.34528951584721,52.06942381988033,33.158807601101884,18.53175251133748,15.732612385739598,26.76715235724628,43.804847806834324,55.3894441221458,56.60480547529521,50.14845174963615,38.66206781718604,21.95688825954379,2.1929294847067915,-16.305478092250027,-33.51873805876667,-50.54010596356178,-64.86236677668495,-77.14701516487537,-94.55651047412961,-115.82302184250013,-114.06386044513927,-63.9074048787854,12.488787285085559,66.76761058342194,80.19105131409154,68.33425566230889,51.40622914614881,36.294382780392105,20.004299887935318,4.514972965214769,1.3102517621015677,15.140719392285208,35.95322742749529,50.207176161416676,52.320466170498435,43.091994058042935,25.785136869368973,7.804854209671543,-6.5800458829011905,-21.604288108072733,-38.939896031683794,-51.67803154375996,-56.83694719267244,-66.60138144348014,-88.43007878310242,-99.67961460746741,-67.60766617866022,0.4849847247133812,58.811095875812214,79.22849047765452,70.16311743913326,50.871301355383856,32.08720214184517,13.623165523360736,-4.36673535143295,-11.696583577787584,0.538352555595952,23.00006895920547,37.62261643669853,39.41777839554164,33.510836434832896,20.571970695559667,1.7632932543862418,-16.394013842830816,-31.836884652034087,-44.133397696329894,-51.44614352130048,-57.55472939461732,67.0,124.0,81.0
23.72372358408193,8.624458448894282,-6.214037576133826,-19.4328014553247,-30.53843591199983,-42.36483137654322,-56.013425267501084,-69.86046434383545,-82.45113581515669,-97.08937987668382,-118.0061976050697,-129.5967231651067,-96.85868192334978,-17.47255934532939,58.074941400709214,88.05074190561332,80.48314204464832,63.58354248100439,49.32005902770576,31.93116347026216,10.855965347505078,0.8551906712448025,14.280877940688331,42.012353735764556,62.60000124451377,66.52958706473203,59.49845189029591,47.25992874761431,30.304419366137424,9.867290557413638,-9.289533601934512,-23.497370434574457,-34.81737058780899,-47.753851729402655,-61.93582730419194,-72.96131835506436,-85.28683006488026,-105.56157285227158,-116.28788155797938,-84.69410396787127,-11.46770763191561,60.14963538305112,94.39189004247446,91.45710653159477,71.18183364209058,46.883540274767945,22.460628613092542,2.7290060818463555,-3.451888403919121,8.478018914761147,29.89942615130129,47.96645561344457,55.65942321771615,51.87761632559281,40.03518739529607,22.548597385411515,0.16535658072080295,-24.99281943494278,-47.08050425096456,-59.98669480927944,-67.43471603476081,-82.5096960943416,-110.13019775667767,-128.2892491252268,-103.36618330947978,-32.795876850806344,44.38745154967246,88.15890501606505,90.86192521349929,73.9171414223098,58.855872530848046,44.01879177161081,22.033286835391756,4.22752501059739,7.338259175611258,27.83374476856938,47.00406941273805,54.02629665011131,50.250274991506025,37.31234928707273,15.38276902317408,-8.815734645676491,-28.01867456833982,-45.48659007980617,-64.98883663883026,-82.57619728571675,-99.18417315094554,-121.4393937528726,-135.34296690845102,-107.29902427225706,-32.87873664210794,46.51298705076189,91.52605243383562,96.64276835158175,79.04447539336665,60.11070622056357,46.37478005594495,33.119622896276304,23.544411415382278,24.955263139204977,36.65001094611018,50.55969535350237,57.44310346026809,53.1948693676142,40.50131768146576,23.149560057212746,2.1718755580926135,-21.89056390395274,-45.002004017849096,-62.15067837928733,-74.49144515588875,-89.90691009520651,-114.87432645274089,-138.67971090264365,-128.2665437093985,-65.93708397034622,15.60352034680961,68.60396062991512,82.80480116129726,76.99814788276916,64.1150578646227,46.65235598800552,28.114812224161277,16.25955437558991,17.66105220610824,31.615815711271658,48.110778910808065,56.77941999114938,55.34047735921467,47.3313478902874,34.37113206024945,16.34419678334496,-3.387687189053037,-21.3051105923298,-38.51926625661821,-55.07102529570379,-68.38039773945916,-81.3263417427302,-100.99854324363487,-119.33595115674812,-104.63297609552146,-42.32565070338743,32.13095930384891,74.5684911640611,78.30666954154177,63.37105054830503,46.903956964057684,31.853671696068176,15.026592467012344,1.8258776730790054,3.7678265390244707,21.110763549838026,41.17837913900301,52.0864576015971,50.735502474857284,38.66482767937529,20.298162215188704,3.3562140358465498,-10.6097706055273,-26.55923270695533,-43.47536874518012,-53.661601346913685,-58.456239713110726,-72.0380909909094,-94.46650181781209,-95.63200843102403,-49.90767024345574,20.364932592563157,68.75888202233031,78.74539797125338,64.92787084715398,45.24483749982115,26.860158345153238,8.111254570588368,-8.19279575401776,-10.15648830131908,6.838299648373563,28.6002694361871,39.26199151113505,38.33857328660628,30.579120713379886,15.479644671676438,-3.78238509523069,-21.089481432893827,-35.82993651077763,-46.72894003492392,-53.02578530958914,-60.04626871245999,-72.6841277569791,-86.0723954395784,-79.02784058980559,-33.4603764457348,31.342987004050343,74.56740600534354,81.01650334523137,65.33464593030936,46.703869987488396,31.99177527484806,17.809911581255612,6.578405414424843,7.5636246703588785,20.96420288362702,36.28764677609754,43.4297123888896,39.82466240242115,28.18405472364012,13.335366787747109,-0.4708095914067182,-14.038204695721877,-30.344586835141968,-48.899369450287566,-63.35355284188091,-71.73494296160932,-83.18467106830815,-99.86412448226172,-98.25061486063667,-54.05924370527288,15.141626033127778,65.01590678697778,76.1180908573617,63.8681958614223,48.846110784295846,37.331513906136166,27.43777028517981,19.5310722723985,18.400384051605624,26.201996258066647,36.18285147811941,40.53440911584822,39.56216920616298,35.44232295002238,26.476337914726688,11.801382758467765,-5.006816135225558,-19.839446937816646,-31.144878916810093,-41.34615897442543,-53.01281904475637,-63.909538508038914,-75.69030447634617,-96.39533467980657,-117.36193840238296,-105.89766731961508,-46.56990351341585,27.225747921029058,70.87279173332612,76.26080322368513,62.96335623297538,48.63698249431488,38.71568375912456,67.0,124.0,81.0
