-25.81520730574944,-1164.8871234943983,-1548.2834597387232,-1371.8257830219284,-1185.7778250334622,-1134.656379939183,-1090.541578252268,-985.6650699938409,-847.5365784040251,-709.8534369425661,-577.6228961109633,-457.1896823546018,-362.7267586262331,-291.6590022042011,-231.60117084667058,-178.10168164611162,-130.94331624385248,-86.2640082973089,-40.713636962553196,4.3893119529877955,47.111137466155995,84.9231762510005,113.92541604080104,133.29814199600287,146.55845533721285,154.890481297486,155.99593207907589,152.41669589519748,149.09497616083817,146.84194099699826,142.91048598728034,132.7387128636173,117.6993587374728,113.15001743838319,136.38690291207274,187.27596205272516,245.10935897220264,280.69937338970345,283.0010523534626,265.1976685909664,242.63767759214497,217.38177851560985,186.21983193322933,153.6154575971586,126.06400185084135,104.48811480635499,88.41491217056394,75.96793142251317,59.572257962858274,33.50322550874579,2.963873428600262,-24.270434371258276,-48.284185436209775,-73.27131233852214,-99.19470143435493,-121.53641547980756,-139.37367420964827,-160.1397671260693,-186.5438354113572,-206.28708271371445,-201.09008432834156,-162.6362916672064,-98.88471817943453,-30.642867789273055,15.322456237985175,29.264948085954817,26.984366040069766,23.199846467866124,17.489026493351712,7.342273761857111,-1.311527011586576,-1.2027646449089622,4.016733381349539,5.9110109384794605,3.1347214385646676,-1.1808809378186838,-5.21778122628555,-9.668222593568906,-16.067187320018288,-25.358192198882186,-35.72001384510075,-44.800921369668345,-54.523317540023385,-65.95327279959582,-75.69424001520579,-82.99135934965898,-92.97255292635106,-104.56419682476293,-100.2465510550548,-65.762009543459,-9.962431926209248,47.89064463660685,90.82656516078887,111.72077867677642,115.93571459028465,111.56138814154662,100.51666479726505,85.06007722757303,72.58225823803461,67.2609736557897,65.72517351071343,62.00482799849106,55.05832471445067,47.58428551474039,41.09063124937051,32.57582940765178,18.174801153961358,0.6152244870419997,-15.15691653655178,-29.24338912589063,-43.172171105817625,-55.08007209472714,-66.18107282605452,-82.24419296050931,-101.8286115800783,-109.38484277488651,-88.25450613866546,-43.42698699042764,7.246615774024779,50.552325026833934,76.78864275390735,84.33653304646806,77.80749371221492,61.42859473169357,41.592739004448816,27.237667803118395,22.172080847354025,21.79864709385829,19.028827378040255,12.780175292365552,7.330689295334222,1.9646933511739617,-8.893070179285283,-23.615285952006662,-37.2935955494934,-50.76817122621148,-65.42943801695053,-78.95371952727717,-91.67550538248507,-108.00873875635784,-121.3226813941631,-112.34352273072982,-71.13962779944485,-8.380938896280094,53.231587327474564,92.69792257576431,105.73843037159865,103.35649445862359,95.28327826754824,81.79029606023917,62.60432000513731,45.92150006129811,39.54367139009902,40.57776244405964,41.560286959466495,37.68440166007403,27.30364424639407,11.824160195728144,-4.399679627643748,-18.305742117186945,-30.36235678012833,-42.53303500272602,-56.46588570175132,-71.20498497863348,-84.33473484517275,-98.15584653467761,-115.42657245804807,-124.91446517552967,-108.56745525574905,-63.455716058282995,0.560651285459049,65.1574520261384,105.39549263778211,113.94655771931653,105.98884669767779,96.26786190142941,85.88893994595337,72.13425974117544,58.083486644416396,50.657934921748215,51.32053148524759,51.445436214169774,43.41358032746923,29.654908846105897,15.539763348208027,1.3340465224982856,-15.333565922786454,-33.604984564428854,-49.016468625678776,-60.44824638376096,-71.99339137009765,-86.74599931571686,-102.11223174527545,-116.31229674849884,-131.39934982266152,-141.28081427308382,-129.97271190510736,-91.12165348616274,-34.3207553257292,25.780380059734547,70.88403865641749,90.23247875053718,90.43421464093726,84.24887439790402,74.5892958114627,61.63217690052224,54.139472925174864,57.34945965909807,63.74116397647717,65.31590942189199,61.486316349540004,54.71872909321887,45.643118230151366,33.10815307456672,17.817611787484896,5.418753149762485,-0.8664303601766489,-6.352591726359453,-17.993576366958536,-35.27777447092478,-51.84990042498835,-62.76093218204159,-69.76054364393445,-80.51110463011773,-97.36438789623386,-111.90423319582102,-108.33575225751636,-76.71542564831745,-28.797125831419404,19.150994067518273,58.91935882518805,81.54448070476465,85.23748420903118,78.77560685092114,68.05673353352388,54.7141466127798,43.119984658053326,35.154067916780484,28.425957139851832,24.57880939210172,25.067255855715064,25.417937170693907,20.87579320342101,11.62908206309416,1.854752447191859,-4.654680950956654,-11.219549931513942,-22.38328100435169,-33.174367692267865,-39.791468991115046,70.0,122.0,66.0
-78.42355799174038,-14.086914649165836,22.280608287486487,29.329337670337335,25.83925315104858,21.966903411943385,14.924030382550399,4.250870037230564,-2.262614606145173,0.20844155579213797,5.12933874643432,5.466089465564984,1.9157447936979155,-2.3869072890352023,-6.389157245724633,-11.254925663233218,-18.461520256031882,-28.40217201458342,-38.46674747202356,-47.40445914273074,-57.746176181591885,-69.10828863046422,-77.89062684665525,-85.36710440426563,-96.6556224525381,-105.93909822513831,-93.41056366591545,-51.00742321578545,7.3911200485363855,62.39727655933366,99.08692663388985,114.22154577303637,115.35005814692265,109.06802623814566,96.22902283819433,80.82167916893155,70.32985280910827,66.71922261583809,65.04951941197494,60.22660043955536,52.833736313414,45.63618843686259,39.08116056115335,29.0399725025718,13.159366894841538,-4.232953374359205,-19.282472011419014,-33.317729737757,-46.908001910809816,-58.12462513892678,-70.12600282612662,-87.97741733932632,-106.18934060387346,-106.52028411346612,-76.93639043357001,-28.712121939547945,21.02352242737386,60.153786634236646,80.72184590222453,83.6916483924315,73.89029039113771,55.655791324691045,36.54477730135339,24.89016188048559,21.927191712617496,21.457869634980053,17.418869627958866,10.972353674394865,6.039602240984504,-0.4870005229025217,-13.028412661068806,-27.750240633958,-41.07508338174703,-54.933951104311205,-69.57669194666784,-82.49886375723118,-95.96928372801126,-112.92251252443364,-121.84037360859634,-103.62883563476063,-54.34666207701069,10.648250324984767,67.49347632959912,98.86592464650383,106.02933299970947,101.44720276368554,92.0666572652575,76.6318093643016,57.02379138405029,42.94873942180484,39.41706907407204,41.15287344738872,41.05869400346425,35.363389209103886,23.19181711304504,7.012764360388311,-8.692518376071375,-21.900881695812267,-33.77338125999067,-46.34809555566571,-60.77571383397758,-75.18636535373244,-88.01432328256392,-102.94339679353513,-119.85887698913122,-123.36033466006144,-98.16959952142157,-46.321705900175786,20.30221962033361,80.14889954321156,110.7235485140614,112.46529662970548,103.07639890620598,93.5190728604153,82.25391933228526,67.813672309552,54.99212607393456,50.251518766169234,51.906949493765495,50.03736004717445,39.73597497049179,25.49222109745303,11.551738710276089,-3.1606851885615965,-20.62850216048606,-38.520566585687334,-52.61345543728025,-63.54559389265057,-75.94117030225158,-91.31343258442405,-106.2468152060088,-120.57744557177148,-135.4277408497393,-140.84270480766332,-121.34261427206177,-75.97030664460507,-16.526645242884314,41.12220267148987,79.14634324673013,91.62137129385324,88.94337973812884,81.92156756463041,70.94683397236604,58.426148893952906,54.11839138049561,59.34322733149608,64.85019161498919,64.65026070584352,59.754851515422565,52.368850395042884,42.42858131761454,28.80289218645711,13.643746654998308,3.0676786647643013,-2.159221410680879,-8.923416264433493,-22.650271584895734,-40.4328394780771,-55.672295159840026,-64.88781690815652,-72.17011005992138,-84.94203367767894,-102.4037778251151,-113.48762181107658,-101.97189940835477,-63.643859895289516,-14.522087139079575,31.85261166001514,67.5586649343361,84.27166459327432,83.99609010364438,76.04944534109778,64.33760271304754,50.96656699990071,40.55018438811861,33.1178676708404,26.852645575960217,24.377866060130437,25.458886764230023,24.704812410106406,18.551464471616754,8.626759200448923,-0.3862536784385592,-6.219845775290449,-14.019676079584602,-25.88817328257922,-35.41078353882468,-41.50162179582609,-49.01462870571224,-60.26727202064161,-76.20659675946811,-93.68903753407197,-98.12080836210866,-74.10206061352498,-29.141069647293268,16.13879549815701,51.13757080125648,71.56403721459233,76.79177950412404,71.22431524199803,58.985548182644365,43.48452011897739,30.042142726956637,23.432880241195416,23.45131752327625,25.44415904017801,24.04442783275869,17.988560661497846,10.044897580692327,2.4060363206722712,-5.903845684385385,-16.74737234193953,-28.489473031296733,-38.816898626923894,-48.2577960622186,-58.014017352906876,-68.28909054977532,-80.2047557036972,-90.31649250595176,-83.55915903676963,-51.826099143190916,-6.315725738811042,40.456655634123486,76.335926597775,90.21768409266376,85.76161938632494,76.25413593207072,67.4959126744052,55.495205642029035,41.45483580232997,32.87225974086154,31.96549605783795,33.1272713278136,28.735888937719288,18.298707013903982,8.263636313660307,-0.625234673495277,-12.658570301095038,-26.54878906226233,-39.3643236393672,-51.85385183277128,-64.6830148341021,-76.48719812969149,-89.20755721575401,-104.43183461201204,-111.82674371067321,-95.29404783337114,-53.79206670926466,-2.000873070222451,46.71955241023375,70.0,122.0,66.0
32.17441488526901,23.32104147402174,21.892627436671663,20.759323283014616,15.582002733067212,9.355365762777552,4.630753679341892,-3.5200418592123905,-17.337533133442722,-31.716450890967828,-44.9226440057645,-59.19323266971422,-73.53691999330405,-86.06837423582925,-100.67261548623924,-117.23310658157925,-119.9717133180765,-92.18560732104457,-36.186210464145226,28.957841396753015,79.48775253340501,102.9302769034719,105.39337688456764,99.20229840697904,88.31997952544017,71.051750385766,51.94584163553792,40.9379975794156,39.73479290206056,41.54853281364648,40.073879897885575,32.47868040647515,18.7281970460275,2.2607164694668187,-12.752538563016246,-25.381467754554574,-37.24676186360916,-50.342763197442295,-65.08617972588388,-78.98790923653023,-91.88378160707761,-108.02969336680195,-123.17485992837871,-119.26121586618645,-85.5056878460046,-27.883732051953654,39.5111087269689,92.51076359447981,113.51677592244407,110.11960672306243,100.25034442676386,90.6150603302384,78.30640841211458,63.6100740291232,52.63710201381233,50.448770567582464,52.155541663340884,47.84930107875753,35.73809448362663,21.399027961843117,7.5053304296371115,-7.921206629980404,-25.976127045439714,-43.07877141815297,-55.914663270596925,-66.78913524129737,-80.18503222302422,-95.8092375981041,-110.30877558221455,-124.9774768143258,-138.72415319302672,-138.20093763984516,-110.4659813289183,-59.63475373840088,1.153777925757773,54.73714174148522,85.14923942275374,91.74626744786818,87.18717798506763,79.24230943541066,67.09866077741569,55.97981131907384,54.978725917594524,61.3253114550104,65.42847481001303,63.589799489378876,57.83361252568267,49.8153750765631,38.88520542042436,24.328299402035718,9.897678056688918,1.2227837752399393,-3.5907592056737867,-12.143954844900877,-27.666357500941462,-45.35659289141383,-58.935429597629955,-66.82039070493514,-75.106233023186,-89.82984667762544,-106.95907830600834,-113.10736302188758,-93.18972218433713,-49.72478455436373,-0.520109523247881,43.694382324530416,74.52525642183446,85.52027672285074,82.17342573801639,73.01950382045698,60.44625507077935,47.51033338633174,38.24721681711463,31.129523815025316,25.62372937286891,24.517025533767292,25.67962530863153,23.50222146602757,15.892807307451429,5.709370310163278,-2.2913905222857682,-7.973280789791976,-17.24300410232305,-29.14121687095293,-37.31222575832641,-43.363594921671755,-51.83205040559176,-64.3799564083129,-81.49795467303574,-97.21262437855435,-94.31381062441443,-62.31260609746613,-15.381215243315717,27.527265443915034,58.67722722006515,74.50014566501132,76.0634182010048,68.24482977828654,54.645249571272636,39.12122315176628,27.325730971407907,22.90724317671053,24.087618828462325,25.555738953815965,22.68778645763524,15.744190342044348,7.7843644168803525,0.18992068554482594,-8.774218740927862,-20.189208218461015,-31.649189538037163,-41.56134223984169,-51.02813877696781,-60.90860188595037,-71.51091214636651,-83.80389419322434,-90.84427136496403,-76.71935226333274,-39.424115182557486,7.518386633652674,52.584540466995165,82.78553774979082,90.25455928056246,83.01471162551069,73.74639923075446,64.52488999293266,51.32445690826776,38.14929721398841,31.949461637443047,32.462828825900864,32.65672745139571,26.09032030942452,15.125249789466165,5.789725699439417,-3.7001208997789834,-16.667117116352813,-30.389676484711227,-42.92559916884721,-55.57719470476713,-68.22170911735124,-79.86857371275708,-93.53456528141977,-108.1431655496356,-109.99607141456974,-85.34245264305136,-39.19994878047188,12.901804310085216,58.51481471104877,85.9901472180557,91.83591420071107,85.52301747996792,75.92223528454153,64.55790558306202,52.83308280163541,43.607175713981995,37.05900585932301,30.840313786546655,24.801079019168775,19.92551451573149,14.34041692631723,3.8014301454897557,-10.053137608884196,-22.835410457665006,-34.486169206131606,-46.46280345119461,-59.13491848327701,-71.50347223905428,-80.71922968478793,-89.62328063727688,-103.08863270231987,-106.892562852476,-80.67867623766566,-30.87784934107163,23.24664720404292,67.9676160239499,90.51102795282691,90.94940450737111,83.66337012020983,76.44068354631787,65.09884646427216,49.77469044236565,39.07009310463186,35.49620850350653,34.5672280063278,33.34547922266592,30.02245411669048,24.54486198966677,16.019751087590862,4.638555240493339,-6.763983057134738,-19.62015088386527,-35.03991237270006,-48.49288138032773,-57.218696909414284,-63.43929389320588,-70.71533474920271,-82.92190146580066,-95.97613821331791,-91.50917102761737,-60.094903391576864,-16.821421488089836,24.89390903907503,59.9446386333666,77.8934894946622,77.00703889404102,67.60394489510938,55.09605441705393,40.776630802666155,30.60120265231509,27.365994625743458,70.0,122.0,66.0
-31.24187745819702,-47.23530568329039,-59.03424512298657,-70.28126641377148,-84.64699294392405,-100.16059712238119,-114.39485176715634,-129.406250573856,-140.83555963443033,-133.13974949046803,-97.62008975640296,-42.440522587788635,18.23985365326759,66.30164807776919,89.05930199061993,90.98817884424203,85.22708356844832,76.15240351186776,63.291388141188136,54.48464157431769,56.5000227035039,63.067560455316496,65.46878838239913,62.21071673023464,55.74091328728283,47.02253464609313,35.00443361742343,19.840367154872347,6.696370673670867,-0.25656818971258755,-5.367976854711019,-16.011548568615133,-32.866989753430886,-49.908451920010776,-61.66181947027558,-68.78210918384055,-78.66080692051173,-94.97506553072783,-110.63044096183242,-110.41610925671694,-82.3102593033929,-35.42090461235086,13.066570272760977,54.421894437286305,79.73208275670844,85.55309741146743,79.92751840218274,69.688766521659,56.50649070246505,44.41877209648584,36.109118777215805,29.23937519110114,24.808743403318257,24.87251528814036,25.59217479957967,21.810561128599915,13.004841540101923,3.0030762313743224,-3.9402991622616,-10.089887699588521,-20.738204099707964,-32.00294098999193,-39.02293202705464,-45.45539482199553,-54.98746714465426,-68.91119318917671,-86.77179887653809,-99.14640267059993,-87.86682773849996,-49.25767195431753,-2.059889867921227,37.92755936122973,64.90158715059154,76.21541399185325,74.57059820584139,64.77899793706753,50.1271696876867,35.081874189690765,25.26696514342395,22.871017080025318,24.746951479518287,25.26487523899099,20.972097740919086,13.428231676569014,5.579709727560822,-2.1436691821280274,-11.882413944605274,-23.625211235396474,-34.65630822289897,-44.27427713106935,-53.84051057106106,-63.84564495111703,-74.92706554830472,-87.05890315940857,-89.48887026395305,-67.81574328579005,-26.272620463236812,21.22892835557155,63.44539870774521,87.2068205536091,89.03189418523945,80.1873581887764,71.29543472446213,61.14209149390836,47.13631231303575,35.4832825750144,31.635235035787577,32.93370468599145,31.551020479515046,23.04326230446232,12.1620684529128,3.3139612755943872,-7.1252401056915,-20.724428036615357,-34.102794862066084,-46.51160966534133,-59.314748435835526,-71.63255937686253,-83.44354822001807,-98.04382477466274,-110.80162388916803,-105.79658503517635,-73.52589077070884,-24.157038117543248,27.277944027957044,68.74232497779356,89.65981256755494,90.71287748438263,82.93079096592344,72.80930769797345,61.080572988898105,49.81491371928886,41.54508256776947,35.29444692860121,29.020426792433657,23.267584561606363,18.590666275391346,11.892901254968793,-0.10422993377150386,-13.943612631634359,-26.23815348706438,-37.8803620837388,-50.05308227131999,-62.859548541306914,-74.55785376069734,-82.9613391344075,-93.19537092785987,-106.33498889497163,-102.7225808224676,-67.78787804619925,-15.021834595147363,37.74322533637808,77.14507885637809,92.39020927648667,88.9964394412356,81.63507875155565,73.81160556256158,60.75468242048821,45.869178408732125,37.476967971687515,35.12922095687278,34.34273873234732,32.63390387340149,28.655819930437005,22.46990878145023,12.890634657349121,1.2985506755729246,-10.17045907421388,-23.939558550791574,-39.36411191803328,-51.46153207675502,-59.125504233309556,-65.25201328669615,-73.63304403761012,-87.2241933453996,-97.38013848948485,-84.87816472070205,-47.91364010574055,-4.4153453043679685,36.094276863300344,67.29934912289596,79.20303706199107,74.7246701013062,64.30157034322724,50.956869127594445,37.126257105442974,29.05485853111732,27.20171340637028,27.2070680831003,27.59754411365657,26.69974389345688,19.981419103412037,7.92894111178005,-3.4116118123695935,-11.128404408968667,-19.018759569197766,-32.12604282626021,-47.43253055053867,-58.995774533204234,-68.1481612001542,-79.21132410042114,-91.97934887252845,-96.98946236781843,-78.98601829438694,-38.8787223694874,6.658046051129785,46.65503200547009,73.22334337165434,79.77190666579006,71.87371883968841,61.748358102424746,54.178089339023366,48.956910929460136,46.38890862652972,45.29983173750502,42.91577219588939,38.292892467311056,32.272289587015095,24.029722098033872,12.23558717311592,-2.0201801639699775,-17.57430809901561,-33.117877448914626,-47.2618721960544,-60.19569977434911,-72.98643111862917,-87.64553934603443,-106.32815312318789,-118.29168017626286,-101.7058752922983,-54.1343372411737,3.4310316184315512,52.46514391531787,81.8164759871093,89.71299100908169,86.10670854763211,78.7710600556988,67.19950673691375,51.957696780301646,40.53604842590407,36.88143286129846,35.980204554487095,32.489905136245476,25.672497658084673,17.94300031157569,9.51214921727805,-1.4376614565820098,-16.09026293712431,-32.868840175370245,-46.90095872660422,70.0,122.0,66.0
-40.700519315569494,-47.822610428164026,-58.51052426009063,-73.83081961279905,-91.67573227173692,-98.99903685305004,-78.94692166180897,-35.53822665924176,10.583037256786584,47.23948125398409,69.77220957699096,76.83579322733843,72.41693304994025,60.89487848982788,45.56352881180116,31.504318160144983,23.86694629654904,23.20729782247573,25.279640889052338,24.53136460581902,18.97764778474719,11.105180173623332,3.4085000844011635,-4.664259209041683,-15.181746424017527,-26.98284693198398,-37.52840677151421,-46.99410088994192,-56.68984032459546,-66.85943413047265,-78.51833886555723,-89.55370194057572,-85.95696480752228,-57.19098100146396,-12.67077641521912,34.5419391195653,72.6930532894879,89.6793994872733,86.92657184018532,77.45815958788624,68.74854337568765,57.35314823090205,43.15851663477448,33.5293804003656,31.787527349750018,33.160573374787504,29.77187665430592,19.801521371470137,9.445115913873108,0.6795267845833374,-10.85834189996528,-24.73449743512306,-37.7175859964665,-50.15356850539922,-63.009838632665804,-74.95803985917102,-87.31263454739916,-102.49347532728052,-111.93732470331571,-99.1536984709704,-60.26850256182866,-8.972960538236874,40.832791513365066,77.16946360793439,91.5858732662904,88.90079758274054,80.18845170286194,69.54251597911346,57.63536261658879,47.07797897923559,39.659619785212556,33.50331825768714,27.244269020925874,21.851779365670403,17.09890565003599,8.936434775749278,-4.15522946748065,-17.66875580166158,-29.5896697394593,-41.32622143290312,-53.70646700353962,-66.50957923269567,-77.26647071112124,-85.36671749895868,-97.19976434034109,-108.15010197237947,-95.69005006947725,-53.416445106991645,0.7945223455074508,51.13845601189097,84.17122561778737,92.6394556103734,86.81272384594357,79.63638113706655,70.66842780981469,56.21275253895696,42.589487959745995,36.41097351857506,34.86996238041801,34.04145579464545,31.71396046826333,27.126267462047323,20.086540728006327,9.580495660733966,-1.9798892749821213,-13.80013573185375,-28.436430943027286,-43.37312908445175,-54.03253625529202,-60.90435665686921,-67.24355346367726,-77.06739093063399,-91.34646041737773,-96.75187367260605,-76.03317652025427,-35.29586413308906,7.723336884236042,46.5793762120228,72.92589748685863,79.0852431574546,72.02551184469101,60.753126250872235,46.73194215254214,34.01066747082643,28.06611562909177,27.158256116927863,27.27663974442261,27.664326933251925,25.49959963414295,16.814144791282363,4.325892246224565,-5.963348262269181,-13.096818754690975,-22.21284661356579,-36.65710682772709,-51.25949097166322,-61.66247197321317,-71.03777728706547,-82.9188352783152,-94.93920395972805,-94.59850224896324,-69.0094533875685,-25.600769087265434,19.080793025413783,56.12583456956081,77.21098474325535,78.39986941344283,68.77767043098967,59.29592268171803,52.42359252141061,47.94147376259983,46.041774223283994,44.844771746926064,41.777148760131446,36.680370833898756,30.212814103879975,20.976332031026615,8.299628748594898,-6.419448534128213,-22.146713820762493,-37.372576442474944,-51.07838583975632,-63.85766781000028,-76.87272529093045,-92.72424754861012,-111.4449419240792,-117.16458617268215,-90.42577524266507,-37.516837477571045,19.065319784234617,63.30323492305452,86.00846443241933,89.32980981627784,84.28387320180171,75.96680727456543,62.936544783078055,47.89638158097459,38.7881987004341,36.64730272371557,35.36199896021834,30.776235541345727,23.442199770598116,15.662217711021217,6.674709893241293,-5.27101004382362,-20.921521728292813,-37.371844509937944,-50.21067660397247,-60.996080190959795,-72.64796281919564,-84.348905085483,-96.62653114505707,-109.50858083803026,-114.22002891454953,-96.58226098831432,-53.43296646407448,4.031011887743508,57.09623680530861,87.70484061532052,95.77718453767099,95.04503725680974,90.67270906198972,80.1910074001188,66.93261849091178,56.5487343364286,50.450786847133635,47.64867153340908,45.36485465373658,40.92814734879349,35.75499357069933,27.809442474715866,11.272502143933227,-9.644250862993884,-25.806549790566052,-37.495026605328995,-48.82620009879828,-59.42338938049689,-68.5761145601877,-76.71279497811511,-85.68020557653452,-99.69973020894412,-114.92025039391307,-112.4207582299,-80.49571407427696,-32.71608439386916,13.46628009534402,49.455250200152086,69.36202799885137,75.32766674075171,73.43847091111176,64.738393103599,50.240241167246054,37.148846488448896,33.155646095843736,37.46210842391226,42.15104195666141,41.92569365221975,38.670124348694884,32.7329491228133,21.26811113729495,8.80712860623375,0.21623288926327638,-7.8760615696471,-17.7532804372514,-26.82646461105726,-37.2281380294969,-52.812708905329416,-72.39786820154929,-90.9062129352529,-95.32266860849847,70.0,122.0,66.0
53.254803084325175,83.6593891794957,92.03669146138235,86.65400852875364,77.30357023333997,66.15046937150095,54.30609743444643,44.63779496272488,37.87092604906154,31.68370125487839,25.5480251612347,20.52493788829759,15.305433475489938,5.510859536016944,-8.211607872010095,-21.235367592355757,-32.93559768827308,-44.82838562217788,-57.414396317913486,-69.98676854367646,-79.67477256058197,-88.16045352006263,-101.30444274316977,-107.87262122242434,-85.96431794644404,-38.11414269253069,16.28949431999253,63.0629606269884,88.99837196026255,91.6782248750561,84.63372481208403,77.51265476552955,66.97293492758648,51.739085254438905,40.018549328906346,35.72383484060397,34.660391590685194,33.60560412267956,30.59737908216656,25.410852823894007,17.37490405945209,6.196809564887764,-5.241623683159769,-17.715538761703723,-32.97566615576199,-46.978257460384114,-56.27398062927687,-62.63500419762984,-69.52960526468199,-80.98872862817062,-94.78164569746801,-93.74158766384174,-65.42613786075107,-22.619459466906246,19.560355894813593,56.029560041765066,76.73633336230199,77.85683894558903,69.0510452987686,56.93930938472118,42.597454125947664,31.525851457626974,27.51284458279075,27.162697402700275,27.39175757749325,27.535794525853216,23.69627594895396,13.304433261329056,0.9470922430205624,-8.20491572473819,-15.238282493609997,-25.93003637261287,-41.19082689197515,-54.669418938106816,-64.24845320087881,-74.17200490289234,-86.71331728899618,-96.89352405921831,-89.92508463322973,-57.48186961816835,-12.303132658739331,30.885223276494575,64.24239949785415,79.42782200434385,76.11596571410847,65.76896118577282,57.07124637998626,50.85937213702565,47.160622669792225,45.760336716661875,44.2120673290279,40.46164702092175,34.97478923938694,27.91544239376465,17.615614323479388,4.203238545884316,-10.910372828820034,-26.67353312650809,-41.48754705742907,-54.81608667750638,-67.52982604173735,-80.99130320054618,-98.17510318052014,-115.52601081163486,-113.11119152249964,-76.84505659262078,-20.6704639666222,33.64291378836144,72.26322926553557,88.50611244738216,88.30749340915538,82.23919673160934,72.73398412062133,58.45249114907211,44.39309876710029,37.67655195226321,36.46140103180342,34.43663834075196,28.815482747672114,21.207069755328323,13.281025646629416,3.5879079817714623,-9.440543386203222,-25.84011284852529,-41.516806840324634,-53.34092683498196,-64.26460129503118,-76.06913863011816,-87.74453567583899,-100.46274290216098,-112.35745001898928,-111.89707415083016,-86.43341279256391,-37.589194498996086,20.76824178410594,68.70414463223784,91.79685981364328,95.95271719707122,94.27216767405744,88.27928847878482,76.34176636267141,63.49424918270509,54.36883350327031,49.37986346256778,47.108861894942,44.30834717619332,39.4301241944419,34.053242759645826,23.991940411274843,5.198416107684415,-15.0060195767773,-29.405760474735587,-40.74687267812123,-52.03331561578292,-62.202560410518686,-71.00299948896757,-79.04840267780543,-89.07688977291855,-104.60633138839313,-116.9636789097466,-106.04500739463155,-67.34741381438651,-18.7432862986285,25.238892461953736,56.96101518137449,72.2057486842545,75.43690856737949,71.66988399520729,60.9431219536357,45.88449139465451,34.89398717614581,33.83679564149428,39.144916253613616,42.619026749445695,41.1373414988915,37.4085752723975,29.95470674104636,17.419471121317216,5.946698021942757,-1.9320754270066292,-10.649382123700725,-20.504259300930773,-29.456108467749917,-41.161348370105195,-58.20016571734034,-78.24712988289002,-94.38604623329459,-91.84259854933346,-63.47444307115327,-21.62081321150813,22.024649182834988,59.73675101490415,79.58287820543298,79.75430576004156,69.61373562697017,54.93652428161782,38.3756537150175,27.690966496410056,26.135857346711735,27.248189475406637,26.009030359517126,22.48589629778092,14.079481765734872,-1.1103026877939841,-15.622497203605686,-23.063021333220373,-28.5748413006038,-40.36177799125237,-56.921277632931236,-69.97803432777961,-77.06378813239691,-83.71828333120702,-95.02429573260906,-103.80133088514081,-93.30791576612961,-58.26737005858437,-8.00011160597728,44.78845342237508,83.02610765937885,97.12285768225533,95.73908059984863,88.9009978623084,77.34770824930364,62.58632153796686,51.402628797314165,47.89472796798767,47.535931661406096,45.4319064104726,40.949025968311894,33.74976328207852,22.43153719603206,6.588573145145425,-11.87937488948889,-31.11540508900498,-49.19040006844513,-65.18624869916846,-81.18746033394733,-97.92714256852338,-115.07331282455742,-132.24355641170814,-140.62669592805887,-123.40478884666645,-73.58843101448875,-1.1564186820062174,68.9512673505819,110.99956840043187,121.72873281523758,117.53294976291822,108.69720570017552,94.77290163207658,70.0,122.0,66.0
27.256337241097707,27.18765214553576,27.535979562155713,27.06835205557793,21.283428951540056,9.629289232586707,-2.1172271379394108,-10.230337503371434,-17.72116334725374,-30.095034624536957,-45.535535648819966,-57.700237445248526,-66.88520631134574,-77.56540885013368,-90.39681385451937,-97.3801573647676,-82.94073415773735,-44.899484569385876,0.7624750780838194,41.89999551573137,70.78416032285072,79.99929672985742,73.27825256476277,62.96140387444244,55.048222336641714,49.504946389548095,46.5916679368846,45.46366558388302,43.373444016000605,39.00379416209136,33.15817314519967,25.32881072821377,13.986052480919922,-0.028416993369363375,-15.464201348929,-31.11124518080356,-45.46783901177054,-58.50444908030676,-71.24490328990024,-85.45056478433176,-103.78635572037103,-117.92523746561021,-105.9924178054053,-61.57022897666302,-4.049995192553547,46.883209497451595,79.25434377231835,89.59518140815311,86.86896341936618,79.93738433888574,69.04561660075647,53.96227901813432,41.58300226563723,37.05341304990091,36.17671657257025,33.179611491076955,26.687072921787774,18.976428628825747,10.745565341911428,0.21910963650583656,-13.928715587586678,-30.69435272567693,-45.28219021640142,-56.41323386830518,-67.63459682009037,-79.44999767807055,-91.2456697124438,-104.3068179602241,-114.19487213024424,-107.36814813718465,-74.25921709086714,-20.90777183687515,36.613585596494,78.07152469520872,94.2549755868108,95.75152909868102,93.15723281095364,85.32392839714785,72.42809540254892,60.39976565159806,52.54000062945704,48.553509493614015,46.515583459100505,43.03778790742467,37.95036698430234,31.968250316416214,19.340815417554214,-0.9887985677596358,-19.793651699425812,-32.7582803480847,-44.03194247210337,-55.13141571455802,-64.86653572516808,-73.35318265024632,-81.52709944287767,-93.02355756720371,-109.35481420491946,-116.94480233996823,-97.15848130103306,-53.43622258534615,-5.200574832451525,35.98288586510925,63.012695778636505,74.04832053415578,75.01041939638225,69.29745356334317,56.736180308703624,41.88681161515942,33.540729911049766,35.08385292525297,40.63484036479441,42.61820651497728,40.21034331323172,35.839317920747746,26.677549577900123,13.694271941104022,3.4498064183911663,-4.1948919319069535,-13.541482670728632,-23.120413645262335,-32.33030416467648,-45.57881631174515,-63.85322577632217,-83.84764384855124,-96.25913378253725,-86.03319766520295,-52.03457504908798,-8.93655221856945,34.050116051977184,67.71009942647493,81.32004663127336,77.46819232055991,65.77441189891624,50.08907035871192,34.31922628343384,26.476917384835613,26.5336719933592,27.168387414787656,25.237579161249034,20.77587008383441,10.22436876134207,-5.834048960592209,-18.484518999514993,-24.407710014548726,-31.16331500521343,-45.01154139164356,-61.3485406582337,-72.50053364775121,-78.6922014546793,-86.51127690145628,-98.53603790017067,-103.36726182311332,-85.43433773365746,-44.795377812388615,7.6705448630263655,58.09111871431484,89.48117237603799,97.68971136022247,94.16984787590883,86.09246949361817,73.18101305609932,58.65239563468766,49.66529166046889,47.7759649629281,47.1856199441201,44.372124272703665,39.19839462834603,30.96550352069122,18.267897829789433,1.4168851645893306,-17.42075072307979,-36.56162012677332,-53.9636537685351,-69.71691821433024,-85.98300252958282,-102.81280609445075,-120.17301522629329,-136.2874724508764,-138.92067236038486,-112.221091384629,-54.13446681021294,20.689436716650516,84.68096385650867,116.75787252401008,121.28345910282934,115.41578827467224,105.18191403569757,90.21902763596115,76.88919900394633,70.41288010673769,66.99061857387966,61.61621129917273,53.68692758223901,44.866141145895334,34.72368192036328,19.55805001787837,-0.8737829283389592,-21.399937749793118,-39.844426157489345,-58.141295467801,-77.24755699096067,-96.74732917645254,-114.64295609751986,-127.62213393207959,-138.0546878157531,-151.22577974405993,-156.77115245252205,-133.2962956327678,-74.83184818702355,2.4638791597137906,70.56464204116932,108.3451182496148,115.68419010088985,107.82380469456291,95.26858537653186,79.25433982806618,63.16985743659531,54.553391328217124,55.60130784815129,61.306791080803784,63.393393070001885,57.34704287604231,45.08029806881233,29.75360901773275,12.663431069130233,-6.015749830185451,-24.907334582243237,-42.90693646195823,-60.62018555934467,-76.21863540949323,-88.05504052024037,-98.98473001441606,-113.99915293212942,-134.3692673555535,-147.24398257812064,-128.01618373501455,-66.65882149451741,22.073836812026066,109.73879208092958,165.9918337636565,180.30695745841086,164.6250177128127,134.32422731121167,101.46865274862611,74.74351014936485,55.433928121644755,41.22565721337862,31.257118843894087,25.329465537525643,20.75404451005609,70.0,122.0,66.0
-48.71448210214763,-59.52783704661856,-71.06279410548504,-82.80186167045635,-94.89397492709013,-107.9621693477942,-114.61317882701292,-100.51847177724736,-60.34373119195031,-3.835694666746205,51.04540970536876,85.16442284439319,95.49874493841878,95.315914630115,91.58133427455286,81.89338893289037,68.61721140365255,57.67732624816407,51.0392462079865,47.90821685673267,45.775008627291,41.61313624267752,36.46681294908948,29.2916299669472,13.951840916525533,-6.999633574085306,-24.0213502897408,-36.00482516170023,-47.32157049454908,-58.09965461373462,-67.42751018635192,-75.65456801068318,-84.2798325625095,-97.49833609226478,-113.42908849907266,-114.46035587853109,-86.14549347707226,-39.24657652892515,7.744243407911967,45.51357633190421,67.6593445167998,75.08031873869284,74.05983320560303,66.31247912682184,52.30068809486461,38.47370903849176,33.08456811099292,36.67611988906408,41.773845764631574,42.216386323189106,39.18446914631936,33.83204965651778,23.026478150328746,10.26172405096522,1.2064865103598446,-6.662376174060443,-16.441680833441495,-25.65541834974892,-35.578774633785095,-50.43994380543738,-69.6827703317321,-88.88286737653159,-96.1339149739438,-78.099487686622,-39.9195937428734,3.751054136895078,45.33200052396177,73.89280584306584,81.54869403466095,74.58903263347783,61.60030172697686,45.182038201706895,30.996832797977543,25.980160994343958,26.93776788635924,26.844517523892396,24.298848172863448,18.52849459098336,5.830865371360102,-10.224602775215152,-20.697280346109345,-25.83323982661401,-34.432400945503105,-49.891534903592444,-65.27832731240277,-74.5622088160696,-80.47819088959332,-89.76620079238806,-101.49003377584269,-100.897522139762,-75.59727094686895,-30.334475269564155,23.219543488592194,69.70675692911024,93.87119469149879,97.3301086213898,92.28158304783965,82.8446720314547,68.84335642606655,55.22450651691803,48.5838884005625,47.736339319150744,46.625546914134,43.12290981556038,37.19961106585162,27.795267116866295,13.740981989093648,-3.9094254888295636,-22.99797080637512,-41.844975582575174,-58.57921297039356,-74.31431738152294,-90.82228269851154,-107.74169646736802,-125.25314513048224,-139.24544772124108,-134.6519036441166,-98.31746645857685,-33.17825096311569,41.591866661835155,97.5480438548983,120.11992403878519,120.07992844315058,112.98155573835568,101.20173788926603,85.80961852963968,74.3406238948661,69.40054452098286,65.74364270543319,59.52571136137857,51.16863486823146,42.20603723690145,31.008680196569625,14.009751883044133,-7.012621458662503,-26.883590625319684,-45.06253977533732,-63.58221883183009,-82.88194182237991,-102.24211784616222,-118.9695467458842,-130.57291385605402,-141.60979546624503,-154.58792717655726,-153.69153079418612,-119.65102385634383,-53.28190965216323,24.322854173743913,85.0462910512034,113.04144455046622,114.27486411180661,104.53371664695257,90.98012373589161,74.28548358039431,59.6501100572012,53.97510048825951,57.125645946735084,62.614303807881676,62.491045811171745,54.27362892413624,40.87281928931391,24.985695818536183,7.4067915715038275,-11.547607374416257,-30.174297615327905,-48.06654773338864,-65.48501723920796,-79.98278549174927,-91.0901419291032,-102.70016959479551,-119.5461155038877,-139.89490210430031,-145.94835967027495,-114.33888514774446,-42.762155521739295,48.97767940929432,130.2353897405188,174.17400798156356,178.1069189615255,156.80051725112503,124.60449799834639,92.91493415987583,68.50289538890685,50.884110851832,37.902696809468296,29.177317891350864,24.084583673593055,18.92354448858056,8.933411777616687,-5.351693531281462,-19.078640408604258,-29.2075217867696,-38.91119395127309,-53.51392224758113,-73.20240015431179,-91.50683393061283,-104.85484338853612,-119.96031062231542,-139.96108745336514,-149.0251179973846,-125.48561414216341,-70.26055366273768,-2.2463561512347368,59.497555690092,96.73079721542075,104.92191562031988,98.81671570515083,87.17513143558588,67.61990715873543,46.63786852096288,36.31731083972686,37.44290477215388,40.88635232788623,40.34514192210909,35.82207813887667,27.530153519511693,14.335605683878816,-3.450508682209074,-25.08132726325128,-48.06293910447035,-68.96761237318843,-87.70640901011326,-106.76088686400273,-128.09119907266071,-148.42308106521477,-152.4004012262841,-121.85227598166617,-56.157864398063445,25.510083531441417,92.76196932840047,126.62040626808849,133.44502572517231,127.76288610845653,116.43129063061433,101.65303642656295,86.39335616989023,73.59066427263734,65.38978675927558,62.44227635502981,61.15104627994189,55.956447026059884,44.409072568219266,25.069390241817064,-0.22309899443785536,-23.178810175890277,-39.72407845028213,-55.883623125499824,-76.72413845396464,-99.55435537072118,-120.8589888080141,70.0,122.0,66.0
-93.74150833968523,-68.40914007776489,-27.43975404142144,16.319739157262227,55.51165195903583,78.20887914855189,80.54871763747808,71.26891177180777,57.104628974462685,40.43812700796991,28.530837288798384,26.007607947854382,27.200609682127507,26.312638484996526,23.13081870084232,15.63959385680831,1.1066506952397983,-14.070290946226677,-22.396160321949175,-27.592721323886956,-38.35952643617102,-54.752491160327914,-68.63068008997051,-76.31215416985413,-82.5949775929119,-93.3403927301706,-103.40252419975334,-96.21725640174384,-64.06989127230149,-15.157512212699253,38.20282163342026,79.31901352064165,96.44984121207906,96.3446692865726,90.05497587458615,79.16986738861715,64.518810386837,52.44442529193342,48.02485963826402,47.63278925252473,45.85521219495669,41.68163082497938,34.91292866070935,24.218348575212907,8.904711250777936,-9.34526431807599,-28.56691503185374,-46.92249186628839,-63.10721905405643,-78.99911630704362,-95.68208765591491,-112.74130224452703,-130.13517900687475,-140.64043897454357,-127.60985151368706,-81.91080191106165,-11.333061283941522,60.823423000655865,107.4292218720093,121.56557489395375,118.41220135304057,110.15415964997807,96.85472525541152,81.77283971024485,72.40091036954473,68.47619249199407,64.25203120784914,57.24648251168744,48.625369458807825,39.381134423074435,26.763547487279837,8.095140253583715,-13.01108718992253,-32.208698117225836,-50.326124095999546,-69.09240972858828,-88.53517590399866,-107.52631525995459,-122.80503009109863,-133.4743410037153,-145.48504098202926,-156.82195338403585,-147.68579722630938,-103.1728522166957,-30.739331626499812,44.683954048712096,96.6357581300577,115.43154311855014,112.0306586760331,100.97505456962816,86.38379065122882,69.46941805330948,56.93984322571475,54.17214753582143,58.8598479710533,63.41005140091359,60.87148079559975,50.77651746834007,36.470314117669055,20.08250090055311,2.0184561202166793,-17.038981634007364,-35.36939971690383,-53.21818453831364,-70.0878451848838,-83.42990494881457,-94.16133936546358,-106.88601364353399,-125.50760039878094,-144.28894721432718,-141.33533623684107,-97.17957384221262,-17.1139312093054,74.99979842179475,147.424674029465,178.89689473149505,173.82374179395168,148.08266283280258,114.95291756906991,85.02765774120002,62.83503230322532,46.70491184711016,34.93665005962897,27.423852934661994,22.84821935888105,16.644766183206883,5.063793137195971,-9.599641657413105,-22.357845378608392,-31.78543434155139,-42.476210872066765,-58.875221721762365,-78.97304117199594,-95.73574686248682,-108.63357715003116,-125.54847412409907,-144.82615535721547,-146.1097399792179,-112.05461280228147,-51.056754917050405,17.086887838649528,73.41586832973319,101.64635919354217,103.89058729981319,96.09687409728365,82.33062902797441,61.10042001172445,42.2315144429967,35.79348558982547,38.62302280638492,41.21620760538443,39.390540115589076,33.86916978486412,24.23854322506006,9.633493444675713,-9.355907095435837,-31.76148360904921,-54.40276399919745,-74.50954419213463,-93.06530187793791,-112.66233652573334,-134.4968781425183,-152.20077172570154,-147.586548735662,-105.9547638338125,-32.94873505996669,47.72709679122088,106.11214057123003,130.66659964980545,132.6079258903471,124.96257509130936,112.40317006417254,97.15078392252828,82.33129431363967,70.67528627280687,64.05470302596039,62.17421540989905,60.22232724333394,53.32638509819959,39.67465995837404,18.084244659813237,-7.4813204863614455,-28.491685943097664,-44.06664096738997,-61.42059995710855,-83.34378090865795,-105.89358834243576,-126.86825249863313,-148.6010333163811,-166.7871698610779,-162.14506295659373,-118.29560832186155,-40.61038452800343,43.15892817374424,100.14718916774909,121.00783032987253,119.85268219283311,109.48483683941015,91.63796300194048,68.27063473731322,49.911481773339574,42.63274663507275,40.59343084262361,36.79108405367172,30.236215427636342,22.123761378530336,10.599746741013961,-5.764285042317413,-23.56801524490801,-38.772160043908805,-52.38155265121717,-69.59839397537525,-91.93658408566735,-115.68310203657637,-135.2333008278878,-138.6761780895714,-110.83690963463195,-47.92114375134098,32.74946245491238,99.03037926537989,131.61270566528947,136.4003906650128,126.97014563513629,110.08983956599036,88.23639586366974,67.87727118424876,53.53635929558506,42.06587395198079,30.033351732182137,18.061650251840103,6.563387129624716,-8.448061187159238,-30.586257337099344,-57.60854978765219,-83.97729508689426,-105.91177915532916,-126.05527814534918,-150.8259800093316,-176.96251560117747,-186.05490345945907,-159.78289031776882,-94.40382953291846,-1.4444702027278318,90.53672162439896,147.67575653411444,160.63933299140794,149.5118509275567,134.49682527117815,117.06002384882673,95.33772308020801,70.0,122.0,66.0
92.31526392863786,78.28412582309,70.95560474922726,67.49408268525507,62.504776505066374,54.83099540721343,46.06199588803266,36.27980508784735,21.956574489962517,1.9729917846881537,-18.803719874629635,-37.44290110600441,-55.65786435697152,-74.66256229798492,-94.17063809794983,-112.49061366451372,-126.1863182359318,-136.53938038718985,-149.46249152716015,-157.3025312047388,-138.56172449965874,-84.24540503339492,-7.932972254532444,62.965744363717135,105.3011114145743,115.94959475795848,109.24024530243953,97.13873013887468,81.53955103690788,65.02989068998095,55.10390359175894,55.02730597108613,60.58015971859026,63.56233397413278,58.59426343637612,46.94202758654593,31.90622291687129,15.038208218471494,-3.467596336521881,-22.447310109820243,-40.52996251095228,-58.312202179397474,-74.3653169627443,-86.63306199868273,-97.3993416658888,-111.62220706268795,-131.61486526363686,-146.86239564367347,-133.08176732138023,-76.91523517248955,9.602738104688962,99.31621612011674,160.9896239067624,180.50327048712518,167.85006482317505,138.75381422966518,105.61351003385926,77.83310422657134,57.6667696780618,42.875209819724624,32.33450711860976,25.942820199565876,21.4744321064209,13.865218102832022,0.9202541411734914,-13.664900893013003,-25.308575194728014,-34.47256085160588,-46.563178570075486,-64.59161090695012,-84.41495708660588,-99.56293249827823,-112.81769836126618,-131.48706284374072,-148.17768634074235,-140.02621726856907,-96.31571297149306,-31.277128014848756,35.44373818789896,84.8478923699789,104.27027167797236,102.14433584001813,92.92407324338497,76.7530744903663,54.77716077285015,38.971989816246435,36.08710764791629,39.73459767085107,41.140213446489355,38.143755050459404,31.577575133928523,20.515749102550846,4.571318281995602,-15.569669854174045,-38.458083592284794,-60.50005251407685,-79.91369657184013,-98.51589998806017,-118.79641995282347,-140.6569410941145,-154.09805955020457,-139.5230949094982,-87.32811916683178,-9.033816089488798,67.94064623267307,116.46386316101663,132.83012318878593,131.04128557082691,121.76082061152152,108.14043149454648,92.68892636350425,78.53869399009064,68.18910495281142,63.155276682389214,61.897856186589436,58.85195489276216,50.141724340222105,34.238629324459104,10.721241901490144,-14.295594834235745,-33.28275265044387,-48.600678170895364,-67.39344720591004,-89.99737994002763,-112.05883971545578,-132.9799786680058,-154.84455733817052,-168.80663715635205,-153.74143088588465,-98.45966552443161,-15.419871706261187,63.41817180449481,109.49390509673472,122.16364268704095,117.55324521572207,105.16601608432754,85.10656134295348,61.938469464793656,46.761805686192865,41.902295379355124,39.83680678235958,35.09825335048996,28.072003596318062,19.278243974415986,6.307156992931038,-10.990064860212208,-28.309547357109636,-42.660293515514226,-56.78319028072093,-75.64052043991931,-98.85127176056743,-122.12340395876323,-138.6064297540209,-134.3482068101352,-95.93766150972696,-25.11069254027363,54.73198130388019,112.03489173792786,135.20398413999118,134.6677006605711,122.76119855567244,104.09524152777747,81.85128363745778,63.14740595961114,50.14713801733228,38.6896428665832,26.48132265278421,14.78860391696934,2.829996476983571,-14.097280087517168,-38.117329364187114,-65.54093471854829,-90.80211178153358,-111.61387599266818,-132.56931455642308,-158.82853523659196,-182.3383264363978,-182.57627226788676,-144.68070908619617,-69.4598475100808,26.880480380513898,111.71822875308786,155.45222716463536,158.70625846785478,145.1830550353237,129.94252656919596,111.04185673540341,89.1812968938293,72.36116125022197,63.58649550325494,57.89113082162346,50.33314594934539,40.45977699213242,26.56172452708346,5.521649549550109,-20.863677137274014,-46.409067686987655,-68.69434210364328,-89.5761915473987,-109.5632046390898,-128.46513527578836,-149.30915364067897,-172.41148018976662,-180.4642327500914,-145.47419987076773,-63.49354470142033,32.46396001203595,100.33513256798044,128.01665787325928,132.2486877626136,127.2007540585701,114.4324254456644,96.1002082815983,80.05885342790663,70.4870244897436,65.79164867056654,61.29606863205063,53.52756785769155,42.296890788730664,27.959641042131327,10.885123042949289,-7.5517873557341995,-26.535624483673267,-44.342086900545624,-60.102472975995845,-77.58617935066894,-98.62444664280187,-121.21852699029947,-140.64005355403148,-145.0800844338866,-122.3240029702403,-71.67355393737516,-1.999944335437167,64.37096808180391,100.48498452217969,102.75328792803087,90.72078146951314,78.56740611061282,65.7347069784321,52.10242781157629,42.72237479281955,38.8107735510108,38.59829840048481,39.36523641634414,35.962348952893684,24.889258202659544,8.335264445597069,-8.78970512356817,-23.93350825688183,-38.44360214754073,70.0,122.0,66.0
19.81786910920636,10.592696653476512,-3.3657452011338824,-17.447802251248557,-28.0111473461753,-37.42388326033693,-51.198608087648225,-70.48414184387343,-89.38899851475556,-103.18508694215255,-117.56624774598919,-137.39272243017325,-149.36480790710058,-130.76752784949835,-78.7943201436698,-11.357329671403898,52.3356402080069,93.6021360865859,105.04721194949262,99.94799916334698,89.15225203686384,70.58937103954521,49.01566315490237,36.895225270535676,36.93840375599603,40.601734993752494,40.6777118458159,36.61981019437046,28.902713966183047,16.377031366459125,-0.8400180034150635,-22.036778861552868,-45.06859133019687,-66.3485387356878,-85.24993320954484,-104.11511601904462,-125.1301688185306,-146.20138904279975,-153.58091221651347,-128.16721506210516,-66.41737150920515,14.787358396969958,85.59148604706348,124.00396428914809,133.52088682596917,128.9084073887405,118.19042906779795,103.72087262417978,88.34080630912166,75.06861885861028,66.16356684790209,62.608960610838345,61.4523984592208,56.98923612291204,46.36421787661956,28.110153088839574,3.2148549052837803,-20.52259576315524,-37.72949241500208,-53.48574654861726,-73.72068043619281,-96.57199386512096,-118.09613030014462,-139.25137529578768,-160.5381167354961,-168.32282418617282,-141.8172337985068,-76.16471842453689,9.409051786045232,80.71733921052876,115.93763404705822,121.94044814757473,114.68388061995974,100.16502223111469,78.24934715342752,56.35083549309163,44.549381543166994,41.38080377439363,38.80991608220384,33.216784949079575,25.789154994435687,16.066855236083764,1.6136478971368324,-16.20569474847035,-32.759575138385244,-46.508930424140175,-61.62661165766731,-82.07083878830329,-105.77566040323713,-128.05874315982265,-140.25188705425043,-127.06410316558912,-78.17762998080217,-1.472655002254754,74.67261944576472,122.02622560336422,136.81984341500728,132.0496529101679,117.99921521784613,97.75408665630727,75.80595868877752,58.945252156659244,46.86630413781626,35.218774506107955,22.990666643448336,11.528738607750974,-1.339368732171041,-20.38405025177114,-45.94363563714542,-73.2721221622404,-97.20222749509902,-117.31334903979494,-139.62547193079584,-166.70266072249288,-185.72314483252572,-175.80048333112165,-126.37773323197156,-42.620764787148225,54.23772399755521,129.2372651631494,159.6744609464659,155.45421668742364,140.85408054619845,125.04273282762702,104.71099450617264,83.49183432719775,69.11073542752445,61.93115665537325,55.97618299026256,47.71272614313583,37.031365943392785,21.26388099931869,-1.7982929991234364,-28.575531439264154,-53.12043895088139,-74.79836345912011,-95.47981817799523,-115.07351906117357,-134.09810330443847,-156.0784853857453,-177.58694831574792,-175.6863616508679,-125.75641916697424,-35.12388404414599,56.27390268492174,112.00453280400691,130.74114117360776,131.51661571930924,124.35113720901009,109.4023446569891,90.90580421502258,76.61960982115241,68.79863965056737,64.69692128698371,59.43993955018968,50.607844322503695,38.47802637313898,23.252384968282033,5.649424957626493,-13.020144043775716,-31.913529870535257,-49.00892027572568,-64.78378899062176,-83.35822274034166,-105.11329333770038,-127.52349937279529,-144.14024400188413,-141.56711540272192,-110.32519706014027,-52.826215890675826,18.864406454468337,78.69834112328212,103.96882266256851,99.7917017576953,87.060303092696,75.08699174397915,61.66984448199372,48.7866076829865,41.10069900013335,38.45113655190814,38.908617364649764,39.05623371089433,33.558971891221994,20.457879567428982,3.2517744824512036,-13.368624628290393,-28.06768526163607,-42.917492063158875,-59.85463597929582,-76.5490915071466,-90.30415104013704,-106.1294932016543,-125.6955422649385,-132.87874000518914,-109.69198312618003,-56.29046497663385,14.699613558941083,80.6169697329816,117.84733553412381,123.93486824120366,113.204519337035,95.33317952931095,74.89605206073297,59.13425100035556,51.51641711086952,48.412797388969445,43.28408952464258,33.95998304447212,23.97528876522513,13.116075447793392,-2.791811350850688,-23.680723162310393,-43.93235036143146,-61.18724698335185,-78.10329938907356,-95.0479079372398,-109.27791507295139,-123.63236916531696,-142.43352265492317,-155.97230762908984,-143.2256183734627,-92.54949462960585,-10.557591526350075,77.53504970111824,136.8197002575967,152.50860396863214,142.03673199135923,128.91638303943216,116.60516395316554,98.82782546379099,79.75035832523034,68.30264648759368,63.266926631692115,57.43676510831262,48.530939586933144,36.31040126994922,20.442289174358713,3.337425205918338,-13.764103008430093,-32.2983398488386,-51.67411629156285,-70.37268977889671,-87.93851807912665,-103.94773599412594,-118.83660405275181,-134.1356906832954,-151.08890259925016,-161.82093481908626,-146.27645779590006,-92.5014985159893,70.0,122.0,66.0
-124.09056854483794,-145.6490055830833,-165.1703126119977,-164.85193994081837,-126.46252321955296,-52.08940631948706,32.96222367779664,94.77359454835866,119.89350773015245,120.69513860436108,111.26066071223026,94.47551874045722,71.36311417578209,51.70712074257416,43.102308077656076,40.869772779129136,37.49169602995541,31.20088043734495,23.334147375834966,12.429083510379103,-3.388075516170972,-21.292814469766682,-36.92877972675147,-50.47239096568334,-66.96765587345486,-88.78067274827094,-112.6026464994371,-133.21336157086526,-139.74456696833423,-116.67846336183385,-57.9388235956601,22.12658212075998,92.01281358511221,129.1847868890385,136.83649236406447,128.71690917465767,112.70261753710669,91.24006313434907,70.25018569763725,55.169409693903006,43.5929033237998,31.676850809928652,19.594551032565906,8.176606206463102,-6.062001522937721,-27.250855372353183,-53.92090101685842,-80.68800728820491,-103.22937604841154,-123.21400035394032,-147.19890441234884,-173.96874020359863,-186.60771125848245,-165.6222996179704,-105.11440528234128,-14.565904046362599,79.68654557316825,142.7848624931836,160.8998016161167,151.46952679265075,136.52324680567355,119.68951612171793,98.27422120537558,78.43428071878667,66.51109332870845,60.35240599968378,53.83669352838392,44.92109424790947,33.17560531546577,15.313024951367492,-9.453204792822513,-36.04932928096818,-59.57856915297025,-80.83889358462635,-101.2907006163842,-120.50276314135552,-140.0136843637748,-162.9679384129224,-180.8398804239307,-166.65737621218207,-102.39759038796532,-6.712251568504727,76.82644693966489,120.44331450619823,132.0601148449341,130.19700507609943,120.80738845204553,104.04313490461617,86.11487348452467,73.74782869540988,67.44078629099334,63.48207400113803,57.26615522714529,47.41785588057004,34.39657724962681,18.339745825533612,0.33447526172600334,-18.522757812394605,-37.12532583953472,-53.525527155255226,-69.74120049680683,-89.40696810716535,-111.67695119730567,-133.40830020522012,-146.01096434844365,-135.56468203409668,-96.09676772600436,-32.673436561290856,38.72932186170157,89.91861109643412,104.8771241579977,96.22436850119114,83.55315011524915,71.43514110540225,57.62689781569903,45.95232274911486,39.902933906667855,38.35928022703911,39.213734702518074,38.25035455137785,30.478991732356498,15.675734268939797,-1.7555088607559086,-17.763556181323768,-32.21253520952341,-47.60040007560836,-64.91290909243423,-80.756701563134,-94.32571011529853,-111.77735477164114,-130.07058199338528,-129.65894981748448,-96.95746534981252,-36.80527951800032,35.50590658725103,94.9427960239789,122.28588865307016,121.92494152619096,108.592677856748,89.40894376912411,69.55732696921093,56.150720515866276,50.4353276574423,47.393978896756416,40.896104908910324,31.020072557014803,21.100252809103964,9.183643299774273,-8.52098134385069,-29.835036555754392,-49.152424580165246,-65.9855803236338,-83.12587332466757,-99.47655049929665,-113.10542120761778,-128.6783548264794,-147.765124332078,-155.83955578794632,-132.52694620964715,-71.32530327516575,15.82952085658057,98.93239099248588,145.5575658308848,150.9141220968419,137.9280960250981,125.60482738725243,112.11217382176275,92.97659645418992,75.46479058558234,66.52721977054976,61.88121535827323,55.16847303153728,45.387395661398635,32.040237221312736,15.498269965601791,-1.553968293287939,-18.93270624479906,-37.90043391088004,-57.1749849804695,-75.58565836110341,-92.7276505439122,-108.31789766563705,-123.1174414278109,-138.92857750570715,-155.58294089352793,-160.93787807957438,-134.62297554482188,-70.81431571893425,13.922259065166546,88.64375565237758,128.63173740096795,135.11859307526788,125.8349202681644,112.29027459840208,95.82466522504347,77.48700750587973,61.46664716040766,52.254546303488425,50.30244510059421,49.576496733187206,43.243948758676254,31.80810008233813,19.23160016809977,5.719114852780715,-10.27801473785719,-26.97739463291578,-41.37685232022387,-53.64801394733577,-67.36171718624878,-84.71696157849132,-101.57881934420051,-114.15539440470272,-127.12181274663693,-141.7954903351132,-141.23331324737046,-107.7357605089736,-47.19792848589375,19.772414881379238,72.94756138728312,101.01818755935659,107.3728940225995,103.4683315020044,94.08648279100186,78.32097523090165,62.12770407504008,53.7694574065558,53.247713344963124,54.420389443842005,52.17745388788228,45.020077563741886,33.764075216111635,23.046833116712385,14.322711256711663,2.3778457421784744,-13.704980501245283,-28.457268562503664,-39.596405215931554,-50.14556351060168,-61.57042464082799,-74.64378673692146,-91.04517648563089,-104.86855601099188,-99.74050481229607,-67.88020069469451,-20.770530732948224,27.41923018740072,62.35473910550057,74.95748310343507,73.04391489569888,65.74647818456941,70.0,122.0,66.0
91.97388499263823,74.10408452253297,64.4237655017998,58.704004398668225,51.483025746282344,41.92696569298588,28.787454768322526,8.740482376858974,-17.26264091174054,-43.214232590298096,-65.84902652045336,-86.831113512883,-106.98261590252841,-125.93194964150202,-146.2900099476833,-169.5952918530552,-181.35799705708516,-153.17390825787166,-76.22554096668516,20.565310020908814,93.76458042483175,126.15016518623545,132.36911503542817,128.28982246697245,116.58538484611233,98.58500717162795,81.83960327222272,71.40517722750252,66.2901756406495,62.04897094483855,54.77719312046992,43.97116674980613,30.050143358037538,13.266325641960922,-5.0487381625700385,-24.019320800023362,-42.118838333140836,-58.008516787721504,-75.03202768946717,-95.67576095349872,-118.23161793303632,-138.58630407819572,-145.88949096001403,-127.06513473963778,-79.81273926080537,-11.737875632951946,56.82061590560346,97.88541752111317,103.77226871295774,92.4531857109261,80.13989232515036,67.57529107027074,53.7724067516863,43.62682465333078,39.07814278990094,38.48527134927488,39.377983799115334,36.83796481658756,26.779150951456685,10.676468064452209,-6.61273954961522,-22.01057871573503,-36.444144490154756,-52.4834941649171,-69.8334762639036,-84.70171277802054,-98.7387807319889,-117.63934927501478,-132.8315680034194,-123.59613174552067,-81.88995354624826,-16.218088024051,55.20664360904631,106.39933128085042,124.34053275929294,118.9143736434407,103.49760913398963,83.40040507509643,64.80811121117526,53.85012433844798,49.59076111673528,46.034364647847866,38.19763250244804,28.125867344853788,18.07467807395747,4.7183252539839975,-14.581877059183217,-35.776039141949575,-54.138248427953584,-70.84621308339875,-88.09654560730952,-103.61301634094845,-117.11050848630995,-134.14634080864124,-152.22703961581772,-152.97416463958731,-118.55226186740792,-47.804643726461656,41.91866537209226,117.07047292534212,150.64197651691714,147.82810830174162,134.04915232292328,122.20580072231913,107.0406389222642,87.26662451358636,71.99114650152693,65.1200904977915,60.27150948256734,52.650385723287584,41.943409682375965,27.477475894051736,10.536077191740027,-6.457965141436335,-24.262652861784193,-43.52114435594513,-62.59753088146718,-80.69509683073233,-97.3783819545391,-112.61587994893782,-127.48243856941394,-143.88147188810618,-159.21396752250115,-157.2934916314076,-119.68802745268214,-47.27504371623623,37.99444562689905,104.25090951837163,133.2552505820662,133.2928650854258,122.19062012971482,107.85079581103155,90.57864779030947,72.39427345575768,57.96811090180052,51.09767147413868,50.348143393299466,48.46259664849937,40.263806240897765,28.194712677972923,15.5097631298576,1.360373799945475,-15.19835301640183,-31.44012059712553,-45.03307726841079,-57.26781352117495,-72.07053841216441,-89.92453750625427,-105.60337837832238,-117.53623025926011,-131.5866817369018,-144.27535662784666,-135.16848152638968,-92.21185139493718,-27.533820295857527,37.29646973869565,83.77291484146488,104.5974796599473,106.86727381963895,101.38220328839984,90.10303461804519,73.23690520332512,58.72144115008671,53.0341134624569,53.711092135465925,54.238106248090034,50.636223441614796,42.04445966148658,30.387890442340904,20.491977120623925,11.421722251599844,-2.0357657321864444,-18.346655178681605,-31.953246841738135,-42.57488119701991,-53.35650089111343,-65.08433094641957,-79.05688888229398,-95.91465657900015,-106.06935510264188,-93.03660062086851,-55.13241873906375,-6.391375670117425,39.55110249735989,68.22778914062552,75.31294202498549,71.37107544601596,62.68525464561008,48.087443102700384,31.6545929644188,22.568074834137,22.57951263865187,24.759673954463743,24.829354434297784,23.354957995733372,19.520826871965344,10.534418861932636,-3.5102802938518427,-16.933981916175085,-27.295465961594388,-38.57896227549635,-51.597462413454565,-63.55738208386643,-73.77365829384848,-85.46706926357554,-97.72707828586196,-97.0093472854987,-68.44018975289475,-17.871499870071673,36.593854552636756,79.73725487334542,99.85009620109577,97.38615669956717,83.96739938727995,67.59059331424461,50.24514644848371,35.054726435585366,26.46250407150704,26.016619431366053,27.783632564224156,24.207374082393592,15.267886215804083,4.599606422502514,-6.882856747089793,-18.696118392820196,-29.945914296708608,-43.01119881943998,-58.724951816028856,-73.60366405403045,-86.75182763061039,-101.331952868122,-115.52710075112253,-115.13358122434303,-84.68465055243925,-26.64154522679539,41.14516757659648,93.45113444869904,112.50860323488561,107.1145164448705,97.18411151278957,86.0630992211834,69.2041729130323,53.07336813224119,45.446221543696446,43.62134126057407,40.69066041020449,33.483217681875054,22.508154288125823,10.192909970957887,-1.686780130448063,70.0,122.0,66.0
-40.82992314390265,-57.51251185548688,-74.50186315582118,-88.52630289769438,-103.67331998363936,-123.29997206967134,-133.44107503252266,-114.70610954096264,-64.77852210307717,4.932141080075415,73.12217866903252,114.89891167559975,124.43263888756817,115.14935562766578,97.98754925483524,77.51163557035925,60.755141341971935,52.13983125194326,48.80528156571617,44.25233175248363,35.31567707523488,25.28182997263664,14.76946960321906,-0.30109699552118685,-20.80538714141105,-41.429278203007776,-58.977978957696834,-75.79604632999171,-92.90912612442101,-107.51935612077311,-121.46938971970644,-139.83156945177575,-155.23571375302456,-147.04668072592509,-101.43493557443018,-22.57134333991267,66.75995523057962,131.48684382613504,152.53765303251618,143.93926988600262,130.47832548899336,118.48354698968394,101.49213121235135,81.97966909165585,69.3059626798908,63.85656662589764,58.394165233988154,49.88871334718685,38.16728153358235,22.696080726847452,5.600318734320359,-11.431746842160024,-29.73725267403026,-49.114068525970474,-67.93858704909171,-85.68352950247746,-101.90096200161187,-116.87492161831095,-131.9931448030099,-148.85609902207867,-161.43424172462088,-150.51684199466527,-101.71177139866089,-22.580107860789255,60.382840871475075,116.54449048886607,135.39899612417244,130.62615869566426,118.3292047088882,103.1455681773951,85.23678851088367,67.61955952921946,55.13669462987788,50.49835847839589,50.284478844571865,46.75696708769314,36.9593689131791,24.565587747393796,11.667819194876738,-3.2360369119421124,-20.08399676813383,-35.65730065343546,-48.552401238750825,-61.12678579577207,-77.08474120135358,-94.92413724214158,-109.24023355847369,-121.1619402794083,-136.087700426561,-144.87009883895573,-126.08412087440834,-74.82827140550158,-7.876563765117135,53.213939716593224,92.3498531500118,106.59936114525017,105.79505089779386,98.82730290877771,85.57878920399773,68.36325974603481,56.12296454060062,52.85586347861354,54.140084752038646,53.68892262911715,48.66729845168292,38.77741520279629,27.208842240799964,18.04792213561512,8.090352371317453,-6.718730659772531,-22.714863585386194,-35.17298157463494,-45.59549932681413,-56.63803167837251,-68.77730718767857,-83.78885412475353,-100.29440066425786,-105.21529138830495,-84.12938235792811,-41.52082265318151,7.787934681176578,50.17050556404094,72.16794393246188,74.8008592162147,69.36647356533227,59.08072140028934,43.11538640671146,27.965705182829122,21.865528952653925,23.312812078401787,25.006547425672764,24.533176388179033,22.606192246608177,17.559083789807648,6.819464018542911,-7.72854934947143,-20.11314164818433,-30.30180672363307,-42.27129512352321,-55.273960561756155,-66.59337926368143,-76.8511445367128,-89.30052631527184,-99.71105904598629,-91.84028217092492,-55.29319453984399,-1.8071662494931935,50.84813644160208,88.2074258864666,101.0344301772584,94.10666507096957,79.41199849599384,62.593622002607816,45.43755047714269,31.718936256883488,25.609440047567414,26.71406485555249,27.465900292752288,21.996965872897146,12.262053830228409,1.3810079041943248,-10.337085921109017,-21.95975964718912,-33.3943372435588,-47.39420999814098,-63.261273194936976,-77.46697963045409,-90.70179502412346,-105.8627826895287,-117.78165104084724,-109.72359284108855,-70.15518837666686,-7.030422646694909,58.9954894201239,102.53326785399877,112.47155280736322,104.15797770959831,94.38806338677432,81.7340737508122,63.966336180962095,49.92503606776872,44.643089786251515,43.12829008506228,39.066485565022674,30.627407697465305,18.946286653539886,6.749134832068763,-5.315895029665477,-20.20323213301078,-38.73860481364446,-57.90556807329705,-74.68176178046437,-87.33681272555637,-97.99458873213459,-113.07313911623608,-130.01584647090738,-131.08223632286476,-102.24537273820927,-44.635818813046576,28.666562726194712,90.49053511220927,119.32958168752438,120.23498002887992,111.90525489182211,102.68023290982165,88.66945673366664,70.88421986656327,56.261339565304056,47.137581896208935,41.76498696447953,37.40166961094985,30.502358280395306,18.82473126623375,3.1719685162641573,-13.505379507047,-30.51147656712265,-48.537967183130945,-66.84074532768324,-84.33831794324072,-99.70257907391272,-113.92496703997222,-131.01840167516048,-149.43397011537925,-152.60158389820813,-123.24362770150233,-62.60230797617026,11.64121219891999,73.13785483300349,103.29272217295114,107.40188208777238,99.83787511854766,85.78256570430369,69.77020359591874,61.60516069397614,64.51004776829572,69.15769609462465,68.78689663258514,66.30878146213726,61.01381907822481,48.85763804265044,31.943331624618594,15.320470078862506,0.04155985087310254,-16.211318216426037,-35.146217100273574,-53.58098775430559,-67.24490534404022,-77.00972393825734,-88.75134031278736,-106.99893087756142,70.0,122.0,66.0
-81.08097343602864,2.4791181654335763,80.38279934510304,125.54024637135663,135.56619819122992,127.4288249510521,114.2504857841837,98.18622528699343,79.90700835496875,63.28537979496605,53.004751769314986,50.30627626466343,49.90485643180175,44.4727249910232,33.4584489949003,20.922889998095396,7.646952702596188,-8.02599429145493,-24.844490146920442,-39.62553982860976,-52.02876581948699,-65.31078738626606,-82.2924392864014,-99.5760224125697,-112.6256369702593,-125.15434712067605,-140.1911882176301,-143.02365787488668,-114.12900731169371,-56.11895828959003,11.259791397797494,67.20772598553879,98.75196165704577,107.35473247568146,104.29227514111734,95.72069842455448,80.66165655426298,63.950099530188226,54.33599874952088,53.06772990019139,54.393437124095406,52.747713688661804,46.26692005968921,35.352911027640026,24.297632531464675,15.545943934279569,4.284756166806429,-11.508507724146687,-26.73052797131517,-38.22002455810107,-48.690991308879404,-59.99305395847078,-72.72208306390301,-88.7409265814358,-103.73376769346277,-102.02840220187406,-73.3595357896394,-27.383390737287893,21.42308301282304,58.96683075736099,74.40827035014104,73.69791652484177,66.9891551756972,54.93415389316479,38.194032939470816,25.11243060302938,21.83835458697789,24.017695238815257,25.05112078522616,24.139708655714287,21.604781784562114,15.091320190418537,2.7436166527043224,-11.71093508825522,-23.0741314663928,-33.50501341157696,-46.0608750601467,-58.78594894988382,-69.51141656857048,-80.16345399841546,-93.064548490764,-100.13828042014212,-84.08567213536492,-40.71621944473451,14.160387831309626,63.80800923826183,94.518883898403,100.5147457913611,90.24167601308537,74.70426994167069,57.546882038533276,40.91350199090338,29.04562389744885,25.420826057088632,27.367707779236746,26.56190301466545,19.429258723998842,9.187274991745786,-1.9189449688151563,-13.780424619206403,-25.1758627843972,-37.08937269205806,-51.959087056690336,-67.62085981277488,-81.22674825249874,-94.86843571483318,-110.22052028305973,-118.3357919192233,-101.52730784611578,-53.59093739529059,12.87065523270863,74.87735915699204,108.59209997827413,110.90953152617145,101.24319481794775,91.34628734845725,76.8719184422972,59.081567663616795,47.58523634679631,44.15880368039684,42.3849925638572,37.06175412445724,27.48630758904273,15.356113066138919,3.349631368126967,-9.20042949788521,-25.27187038613536,-44.37410535247915,-63.097814049453504,-78.78770154799918,-90.35402622793211,-101.68940204076236,-118.35782488832172,-132.8605126892467,-126.01432709571779,-88.23151573908814,-24.09080546175863,49.052489623224915,102.51107781505604,121.64915447898451,118.07381497744036,109.40496786275071,99.29721827039056,83.60796514998812,66.10364131844963,53.10552130272896,45.30427892773526,40.54955368430922,35.81653322608318,27.649368043568646,14.586624359420211,-1.6434885637362118,-18.33545527183447,-35.62908502307676,-53.839369738791035,-72.0440885426414,-89.02478141797447,-103.78420050953957,-118.40030308123433,-136.66236770272465,-152.8986726759071,-147.81316667381202,-108.38665006925746,-41.48107090292733,31.911571948257873,85.28541315938782,106.44536358945153,105.9943690464086,96.3754810210208,80.95860180125433,66.21143547675935,61.540376298002485,66.2035937695604,69.52362542885223,68.15661290773245,65.28665476364644,58.26671616148283,44.19919910126193,26.97719739155024,10.824292156900471,-4.410159530765649,-21.45279640096203,-40.76102953659825,-58.103680118935884,-70.27169456681284,-79.88864542858371,-93.36459381807639,-112.8821944578602,-126.6365068227438,-114.90081564581382,-72.34363387305912,-11.22920922827471,49.29274868011588,89.9709516121167,102.61861547739154,95.46828439470791,81.38082197450686,65.57317863769512,49.41274645832393,37.307161038314206,32.575979582586115,32.11880279323579,32.143221169152376,31.07852280110203,25.567517311459017,13.544433663038404,-0.5571674489126832,-12.689565537241078,-26.16898751328233,-42.64533980926333,-56.859140483139505,-67.52765841246907,-79.85834761051595,-95.91203833723752,-113.00199734475258,-124.57775919649819,-117.1696182472543,-79.36754352313189,-15.874367918123431,51.113306573267366,93.5309424357497,102.31059004656193,94.45415999192356,85.88076472569941,75.58145844004426,62.32756250744834,51.63960176910493,46.13190137863999,44.46442533950818,43.34776018823361,38.456430606289075,29.674534232770732,18.358591530034452,3.3191489636171796,-14.605674579382013,-32.885598290894116,-50.67184720121023,-68.07693036121604,-85.42896355480967,-102.32403703071358,-118.56397876998703,-135.3621767090826,-143.30509909509868,-121.02234010010858,-62.265793449348784,15.97689709543046,85.14373508197103,123.74125286116045,131.45280086206267,123.6040314603864,70.0,122.0,66.0
64.16167730499751,50.32566360953617,33.59499192690589,23.165200965916824,22.279730590644526,24.572584386514666,24.929890982506443,23.63549291072561,20.2704438953456,12.091780164474063,-1.5276653037586256,-15.365475981586291,-25.954855949588378,-36.930511122100405,-49.86319189036782,-62.09848304051904,-72.41110161852552,-83.74049694791735,-96.42767139420889,-98.53698330933624,-73.88285846323195,-25.20721633257136,29.68216115429326,75.14115819072698,98.65199646941281,98.62355482920802,86.00547877488097,69.86289298998248,52.52563496576694,36.78946997340067,27.10351527630254,25.747890389576312,27.750477097660397,25.073723852508802,16.61859146778403,6.060188965679737,-5.301243500345594,-17.164215977834335,-28.417168599368036,-41.07547555731814,-56.5957019242484,-71.76456431627759,-84.98743708245289,-99.25476856167444,-114.0553482414277,-116.71800326406489,-90.59483469387177,-35.423792892598925,32.428553933632806,88.24589829989779,111.84304902599804,108.42453620287104,98.44945659679429,87.85920212147096,71.6558693595752,54.798051420148845,45.97779829219424,43.797095617995204,41.31040018635621,34.69209631666505,24.11754391780785,11.805563805901253,-0.07453855877913904,-13.40957276859813,-30.616152216716756,-49.96608724927359,-68.03357421743081,-82.51205371443022,-93.32363063155707,-105.92987230384435,-123.56527554004809,-133.8335198011479,-118.26904452381198,-71.94905902951861,-2.6823668555476727,67.68740018711381,111.46246018325634,122.03758660762799,115.60405086267072,106.84837533911065,95.36590204481823,78.38092974385253,61.748782671369,50.39751118488063,43.729400908737325,39.343091838345366,33.92820704969061,24.366248963017902,10.073037034059432,-6.469190913137168,-23.217905186547426,-40.83414023252165,-59.13958729116215,-77.14856060590012,-93.50222460908151,-107.83147981220426,-123.24301627317581,-142.25683872437213,-154.53373447687053,-140.00587094757105,-91.15442662168569,-19.76397537416652,50.40929213542491,94.56139227674734,107.795286487711,103.91151445943618,92.38747257453525,76.15920399869212,63.57051624816289,62.34428742284963,67.71242862826445,69.44193132344478,67.46492720528165,63.919030332327516,54.86979332061744,39.28141265172764,22.13351275256378,6.424085601270067,-9.029255302335855,-26.92241845219987,-46.20410573971155,-62.150068352158065,-73.05621539771148,-83.1137176271832,-98.58381701427571,-118.36020842045909,-126.52316896525596,-105.45604879869933,-55.8164291557179,7.239565168697514,63.76447403992708,96.40913737804766,101.95010311517788,91.70557682477718,76.94992883756126,60.81214238940571,45.250656626812635,35.20903277138996,32.23537634142339,32.15118337458461,32.04500774167179,30.130882441538592,22.68552496299428,9.384619418364153,-4.235916800293822,-16.21880413815528,-30.784647717925232,-47.21931194032298,-60.12272180635359,-70.7018663415498,-84.17883027742901,-100.92907124601811,-117.37615469123384,-125.09072488600954,-109.52367462713747,-62.97681255863351,4.4387821694687055,66.86600403039722,99.12321394463841,100.72820486869864,91.85206462498043,83.30740444338869,71.86493022206339,58.73925508799708,49.544935908186886,45.34915683716139,44.30091893554162,42.433792751979084,36.21483297921278,26.689528084049105,14.440322097850553,-1.69338406965591,-19.918492319294312,-38.08150012946236,-55.7234887929009,-73.08865909415096,-90.40585345664445,-107.01454867737719,-123.42185849868719,-139.47134920948986,-140.75527313784156,-107.3963683849732,-40.493709096735216,38.16627515071693,99.87800377879479,128.62629526176957,130.00743092448292,120.55568338027608,108.97609959546834,93.52241579913077,76.59647889396638,65.85161387440796,61.241038215545785,55.194307544210105,44.649409954163175,34.433588661504736,25.851749434161718,12.81793350676164,-5.77585559226797,-24.38997070098641,-40.37423546314339,-57.66950647820573,-80.31490800782571,-103.13190969044403,-119.8226659925089,-134.19513062730746,-152.14675913879682,-167.40366106561154,-157.91940917399504,-106.71496344014845,-24.62075407540578,53.7903025972902,101.40223226942611,120.04399052520611,123.88535013437323,118.53489304506499,105.46103462716559,90.40648418933436,79.48794755009327,72.98204144516656,67.40962173425804,61.61606790092556,55.260446288147605,45.85070861322766,32.73608050945765,16.76576259875022,-1.2271253950596157,-19.41336036448325,-35.663971254995595,-50.052254171801,-64.20288502640545,-77.39328543631234,-89.08923314276663,-103.12747027492551,-121.1582786180638,-138.10357324437393,-149.23813410324084,-149.3853775773958,-125.4094666973137,-68.22333580166494,12.503011615658048,86.95669644197785,127.16210570028724,134.03078420037096,127.77831881466356,118.8614333668599,101.86465511454114,77.74475561317769,62.29484038196748,60.181213861972864,70.0,122.0,66.0
-3.6162347938317163,-17.977059745176273,-36.1502531734089,-55.43942181342168,-72.66321466994954,-85.88194747592864,-96.44667237648109,-110.71627796284218,-128.2125587856353,-132.52930637384128,-107.88915325942811,-53.6534105420143,18.885159872879903,83.93523230148493,117.46942432770287,121.02848923593511,113.06623971443162,104.07812072503489,90.89051606872368,73.20179917036002,57.87841411078513,48.085486444923745,42.352108390581904,38.05204793584846,31.675584087242253,20.663543543836216,5.375191285153651,-11.285657259823232,-28.1864164169828,-46.098837557602174,-64.4196786875574,-82.11019266281554,-97.78379146972796,-111.95916687600337,-128.48443954271676,-147.37661772234634,-153.82892200190292,-129.19646966070567,-71.96980437441553,1.8810983503726073,66.57918407172208,101.11066105278839,107.77159065422897,101.25048652770496,87.9458825711013,71.66286154849927,61.97727882774986,63.74939358741507,68.81710819482066,69.04053947096942,66.70337821818966,62.06476207743548,50.87303106411554,34.25873714936552,17.436694269404196,2.0613619828528744,-13.883692121294148,-32.53870916716102,-51.34364904252764,-65.73364607187851,-75.75028331184576,-86.83666668769347,-104.27963817781927,-122.89098715090795,-123.8197967567089,-93.53407825574538,-38.14348455710361,25.156062579637393,76.14106967932192,100.47391776178402,99.97192507873496,87.63673651040891,72.40552975912452,56.06805806259961,41.575240419557176,33.751719358874766,32.11542843382136,32.17145459010996,31.820119173119714,28.697635558128944,19.261119740579616,5.228456886900312,-7.719578589189939,-20.009795060290642,-35.601474458926944,-51.43707184723475,-63.158923108487464,-74.1659314467988,-88.79144386822749,-105.94715022443467,-121.08190010745992,-123.6107483754854,-99.16628054958605,-44.73214476179248,24.345280538494713,79.91246619494927,101.99173272522602,98.36346301122711,89.39517696223702,80.43540563209062,67.97151196214007,55.5259726814478,47.87862879711127,44.846099611363634,44.07179886776117,41.11168177864463,33.706902352282434,23.498049301177687,10.165311982288868,-6.878611660693416,-25.213455301713594,-43.2293557642433,-60.751913620463185,-78.10519624354153,-95.31647487020594,-111.6709116486316,-128.36619582026788,-142.41153320499137,-135.1353451445845,-90.83959339933186,-17.682820568170342,58.846391912514086,111.70525291467413,131.1466880951351,127.72505009721131,117.41739658193637,104.99656998191276,88.43015961872463,72.63321380329397,64.17557397155441,59.96001777449333,52.48396639288135,41.42047834869466,31.995321310220746,22.790439123983568,7.8134946631188935,-11.391899359162375,-29.215191371553473,-44.95370794536769,-63.6964705624169,-87.30443934465117,-108.61007166026891,-123.85549241297508,-138.9590423530765,-157.58315503037508,-168.32733095286557,-147.53891768343374,-84.90845109623368,0.08603227204583103,71.15994889693653,109.10919902315267,122.20998374963257,123.26197207106217,115.38392040585295,100.98098207075462,86.68014135101826,77.30146135265046,71.39800724174528,65.73480569307262,59.92719200013334,52.95009071003676,42.4012744842872,28.386975515193594,11.716512434458107,-6.567362494881864,-24.366892206754564,-39.93264361768471,-54.13404126010797,-68.20644120566904,-80.82255846864115,-92.70297749750883,-108.0524326437694,-126.45823308643948,-142.02929613020194,-150.862071724927,-145.5835317347668,-112.29965971599016,-46.30354312582008,36.23942240037991,102.69198532317367,131.7714490291756,132.73392585828773,125.53454407009325,115.1006314106063,95.05347681574482,71.73776257642851,60.69926872448007,60.42392237204044,59.09086320473949,54.21439383039391,47.58493658195656,37.85563545140227,24.621116834468587,9.954949139476026,-5.541496968633093,-20.80758071989549,-32.299599616014774,-40.89679685727791,-52.30965825608873,-65.82778079615251,-74.53173131066407,-79.60434829591671,-89.33991828432083,-103.57974278977588,-108.32122279367296,-89.14860033974908,-48.47941976523149,1.998569217866102,50.95612017125959,81.79989047514863,86.02027700170656,75.24254559344375,62.87626428243859,50.01236060941936,38.279027778093926,31.359956100844308,27.861066568552268,26.757412928266643,29.290850576787673,30.23233969858364,22.340160565465702,8.887370033663602,-3.5374751732413996,-13.752841548052144,-23.574171108925384,-35.596898667637554,-49.70867311847249,-61.52221112357527,-66.66716006657701,-69.20477492578102,-79.88255875436089,-95.0170732414453,-91.74761151525645,-58.85510166358415,-10.058455277628173,38.460495927251756,75.82236561670702,93.73311257530528,92.79890811478897,82.18077983134367,69.15105506720292,55.252751547860576,43.83756819970555,38.33373587596262,35.16047196737895,29.68379272502821,22.497881092776385,15.15143542878897,7.2397108107751595,-2.8381466586526716,70.0,122.0,66.0
-110.19007519190802,-125.90552692799946,-118.35497728257775,-79.45594740151095,-19.78773430406639,42.01188113205009,86.17282630600943,102.38198984708329,97.0465161071058,83.38515066774684,67.75067922447478,51.45608475703116,38.50165307990252,32.84420897805641,32.10680687390214,32.16274809389423,31.38195425453836,26.69484133221286,15.415027767007368,1.2181408379116734,-11.114504216180556,-24.143687975150268,-40.45016077792442,-55.241059237286585,-66.1315012788538,-77.97946502753796,-93.62824495941449,-110.8367305943103,-123.78041309817402,-119.79122369517796,-86.18243226307922,-25.16581925411246,43.07589706246856,89.94600746930395,102.61666522430718,95.69408226172489,87.00291855100426,77.1963008931003,64.07507470910775,52.75866754694064,46.60107064152192,44.55368958989402,43.64455776890678,39.3810032076092,30.98923927058316,20.050251159548864,5.548928875490013,-12.157829897165954,-30.474319838592766,-48.332313867825285,-65.76678999779573,-83.12134244782351,-100.135158862028,-116.36636531414764,-133.2310356521932,-143.55491043883274,-126.2357930208556,-71.76529535743924,5.430140438801976,77.42028874410799,120.59816869992852,131.7184373137908,124.96465983640861,114.15740889696205,100.6011448631857,83.38567571399417,69.36474335102606,62.888036788224646,58.347480517343364,49.42406039495167,38.3880716911882,29.61980001925268,19.1751563937576,2.4289098475385593,-16.853941112727167,-33.820097712438034,-49.80260466757112,-70.21442058948486,-94.07020498373143,-113.49900224053108,-127.8940279873868,-144.12235901088476,-162.4713276826769,-166.51825387502333,-133.45273913025105,-61.09711638704255,23.491748343321,85.55281241549835,114.72586348985513,123.46053665952316,121.88743985230694,111.65020893989926,96.52289740768704,83.41570466136312,75.41661820595046,69.80464002389485,64.05573986471046,58.15834343712612,50.31357904809431,38.66323717604266,23.81570792243944,6.52352713774245,-11.86767186362758,-29.11071545525247,-44.083361638263696,-58.23191342916572,-72.07238369752574,-84.1544187457172,-96.64476138817135,-113.28128066344485,-131.48874284444238,-145.41549756442876,-151.376391409423,-139.3743012952952,-96.31718455824485,-22.86805055813887,58.55410029314588,115.06525963285623,133.96305377466808,130.8816520478137,123.11869880476257,110.42408504231632,87.8775586083635,66.91173050023934,60.08094822803408,60.48292951472921,57.9261309801688,52.48979284110167,45.17738134588424,34.3150948605794,20.455238551579413,5.57764992782322,-10.122150769869938,-24.628826127828383,-34.83970032384765,-43.72394554835692,-56.30359114979135,-69.03631060341262,-76.00939360595584,-81.66517531485913,-93.39557819431784,-106.74352878352786,-105.51460024565793,-79.07561338786573,-34.456811306321626,16.94669557403993,62.46333245065137,85.57554005929615,83.63114812540941,71.61813274441218,59.262637551808155,46.289884083717816,35.749201526203485,30.13139317111616,27.21685973504549,27.166991224413568,30.15631167020691,28.93854949497776,18.65942992238182,5.041530734705124,-6.66633147437149,-16.512111204362366,-26.738325963752914,-39.5888916414296,-53.61549274374968,-63.74342944285366,-67.18793844419793,-71.13916357247301,-84.62170010296317,-96.99323247489885,-85.01005142380659,-45.528864458689704,4.506639692095666,50.85581468396078,83.18846833170673,95.0871551770148,90.26863917742817,78.54252697575984,65.16128657817991,51.46505947669207,41.65431607094407,37.469114292754995,33.87181771915052,27.68320600132978,20.376063603835814,12.977882812526511,4.641160604506406,-6.413647930339777,-20.644006904204613,-34.72318291941752,-47.22048538528912,-60.16418275767172,-72.67368374803593,-83.51985116111398,-96.62340121813004,-111.70729839675572,-115.47558961803094,-93.03431662686734,-45.774224876305354,12.04394350815173,63.345425640269355,94.55782895774668,103.67388665360187,98.89796877420923,88.72687977953866,77.23028681066519,66.01787566555683,56.72309084247012,50.881917220794996,47.498762186634124,46.75324038567578,48.38521858334022,44.58841313911656,29.10636447044313,7.598401316677574,-9.903125096894433,-21.83757622894793,-34.779706987587986,-53.76992618348373,-75.87742839941045,-94.73819010309218,-109.3812488381256,-122.95281148106206,-129.94091977933067,-114.28744570508233,-72.5906433895956,-19.00025042435399,31.708600473627786,66.57086906163653,80.0936654384715,79.17747531199026,74.16765722112174,66.29709995839579,52.49635384883477,39.02599360372939,34.565278103868856,35.231463766948536,33.39579324802121,30.410617058993402,29.7079822307857,26.60282051830296,14.733165481558265,-2.3966800260535743,-18.674386980477347,-33.56870011417883,-46.1944557507391,-56.37246806266954,-67.71283267229211,-81.43302985716791,-94.51138138222841,70.0,122.0,66.0
121.97372568635754,110.68188483434997,95.82302894959533,78.63014481806152,66.80830512693252,61.76602756710959,56.29705044516626,46.16782727694516,35.62147855303428,27.110782037327276,14.957302240558207,-3.1694592013009584,-22.0752239178953,-38.30690323810828,-55.07057040317565,-77.08558215273348,-100.40080696945765,-117.90590483873983,-132.13212957577076,-149.58629611370625,-166.23105457684107,-161.4537587183426,-115.87747896944705,-36.1946486087569,44.81926458065359,97.02918353034723,118.6768313452053,123.92306717821663,119.76087620793629,107.48117797124407,92.26274497452742,80.62499029781411,73.72527041511852,68.17405397924884,62.38540957866298,56.228146658434326,47.335767456394244,34.66293156152139,19.0352959352335,1.2316452801481084,-17.066582140553265,-33.64127399253452,-48.17320737185755,-62.32753963182359,-75.75780941802898,-87.5027988031085,-100.98601895792015,-118.66926827088822,-136.12334019333832,-148.19502205711618,-150.4260769039827,-130.4727810544603,-77.6462405042609,1.3281337819492047,78.63538407789399,124.07760821076587,134.32101591138124,128.7828041492136,120.33615875362116,104.77279119819086,80.81930477624542,63.440005502015495,60.078930147487725,60.19912799990408,56.52823210666859,50.63480862351825,42.45120652031652,30.510623190199972,16.227392594975022,1.1146635210070186,-14.620540363577117,-28.039200140596783,-37.245300133674405,-46.93526906910055,-60.33584685617116,-71.67077740237484,-77.35297929880525,-84.32400583002685,-97.67851591544286,-108.65498800978504,-100.45123219175542,-67.47978076382236,-19.8681566238988,31.460027608766083,71.9941274166537,87.11194246505386,80.46088071035295,68.0518213908828,55.548014127185105,42.77615825327585,33.67840656525753,29.098977147153718,26.80258960467502,27.90154650438927,30.654849530269978,26.792472973442784,14.717197381480519,1.3959499252441776,-9.629882133010526,-19.29860123733218,-30.15043521555794,-43.70573995439198,-57.18810762950632,-65.32777334220758,-67.71745181575545,-74.026970423028,-89.38361893101131,-96.76521411400535,-75.82158644003125,-31.37517902760814,18.7456623127678,62.06468204150742,88.77145631949625,94.99818753216832,87.20449414053516,74.80025625369676,61.108985967840574,48.01743843121534,40.00427052962861,36.63015322311521,32.32956244998898,25.59822251149146,18.260130672622893,10.73149291512407,1.8122136034793992,-10.291979047064265,-24.895224921347662,-38.41810590132915,-50.86041345004651,-63.95849020532121,-75.8813691591426,-86.87351334023255,-101.12813140805635,-114.78157480447511,-112.00226481558501,-81.41674271634915,-29.41488321148178,28.28392294326156,74.77291022826762,99.2215711607453,103.26376305075031,96.26187910321725,85.44457375225414,73.90965014778122,63.0370390806127,54.6788820272038,49.71658407603283,46.92436216157449,47.18573768691934,48.29706380412662,41.29902493707789,23.010863160378147,1.8410883990837767,-13.715036040310899,-25.132592305749366,-39.61671205465184,-60.142262151295554,-81.8529039806664,-99.25867223846794,-113.36535808224835,-126.29791031918573,-128.3529159707355,-104.4522005097119,-57.617051924344324,-3.44742031758529,43.88388286464214,72.57641768816575,80.7850188428073,77.86963086346061,72.39032340622533,62.86819677330442,48.05535605572463,36.71179754998592,34.67610438094514,35.07686042746327,32.41474423661379,30.000351481622857,29.449821547098296,24.12568915406767,9.964184055349756,-7.288909355277945,-23.102748575740303,-37.53709077015791,-49.26686722193901,-59.36922812591278,-71.52762580146485,-85.40819278933665,-97.92726471593106,-108.11458725934605,-108.9351526167016,-86.70285181589388,-40.536133688861206,15.064077976190093,64.06776528633232,94.05157624910522,103.22359262540132,96.50616899748229,79.83749162666969,63.21636110574337,54.68129139366854,51.42825706363657,46.951331197842684,42.30838840405644,39.43899674555216,35.489597668453534,28.810830692054864,20.68360543377061,11.631814643631007,0.408049690214373,-12.83365407164562,-26.146749090395176,-37.908886481902954,-48.45430958449332,-58.39880399243236,-67.19916882130964,-76.17112142534486,-87.62969364505757,-95.83603145247851,-84.64297136770277,-49.443355226301925,-7.451333345158685,27.708462914113138,53.55683866258322,68.39632651345224,71.19111439976423,62.54952232461263,45.503078877802324,30.178313706126648,24.604458609670278,26.443249529871768,28.4204433303602,25.12953825640102,18.697602579645505,15.219803908658827,13.30629984631314,5.982969887799392,-7.530576538834061,-21.19765712444859,-31.84459954334172,-40.98068898946209,-50.400958613775245,-59.952374789192724,-70.53698187076253,-83.11433217959049,-88.91414279997784,-72.63661479006406,-34.2368535953535,12.120901479349204,54.935440562597506,81.54691951230647,70.0,122.0,66.0
60.320827702598656,59.52504886916719,54.972142451705,48.60046423726354,39.38354510050639,26.511266218933148,11.947943098689414,-3.4288804439912957,-18.922204991416237,-31.03871146486186,-39.69942420572817,-50.53777529270929,-64.17917722603976,-73.73966765169362,-78.81922194138768,-87.62155905980003,-101.82910064919399,-108.88229111685222,-93.1860267248975,-54.6936350422731,-4.933414105754762,45.09606469006789,79.25687693079554,86.72677168745707,76.91831030885209,64.51554604801753,51.760453961603226,39.60117555784066,32.013960804455124,28.21767060020461,26.69096291893389,28.84116124929284,30.542309182863967,23.887799845781412,10.711887338757059,-2.0298575487422577,-12.470448882132422,-22.187467328614936,-33.82244166753904,-47.83605138131255,-60.28603605718559,-66.34556975318642,-68.59345763866347,-77.85502801131467,-93.5166732418612,-93.95662823214539,-64.58751272654146,-16.813044790917374,32.41663723073176,71.84826533141542,92.56611653745749,93.71593577077519,83.81328575306804,70.95783469012456,57.07476563710231,45.0332106644554,38.7889264038126,35.671264617672925,30.56113927294944,23.47799536387464,16.137898779899913,8.375074845761187,-1.298494661203353,-14.409741278756927,-29.020343689588255,-42.007408188497294,-54.593599809271694,-67.63707380877308,-78.96757203967952,-90.56019759385651,-105.68184645721753,-116.45440895181483,-106.063798336634,-67.96210341576392,-12.569690112112252,43.550238843336636,84.26921051237754,102.12478498321887,101.95777774010897,93.33464513661949,82.11453391164899,70.63720928613596,60.27027721352287,52.94373552285624,48.70319679572743,46.62423602701012,47.75623725810189,47.48470846187612,36.97331538113736,16.67752438562922,-3.3678519277764067,-17.14057185845839,-28.716168782252204,-45.0202096620503,-66.61788870017398,-87.41443775353956,-103.48604530904521,-117.34588319276281,-128.7972551836832,-124.44028086556088,-92.6170370444931,-42.06205032716204,11.536941086170293,54.42936304318071,76.7869664431957,80.55351299583704,76.43600738469628,70.27459272243378,58.9052075066443,43.924205406404596,35.289223089772634,34.96910149306301,34.59079372140488,31.469001709995663,29.820030963120217,28.77356396583427,20.823017725975745,4.957564084660861,-12.018405106169318,-27.442704997891607,-41.25739076068053,-52.17735981649732,-62.57319074845684,-75.51210544631999,-89.23461227034065,-101.19531137193223,-109.9279126493091,-105.32408941259153,-75.33166407757017,-24.698406281129188,30.56723481222832,75.00763915701697,98.64172985882217,102.70234405868413,92.34547872297019,74.53543794356203,59.814099034442044,53.56856217479623,50.36326570890162,45.4483601157967,41.364491549538634,38.55912165551107,33.81094619783041,26.54346306933069,18.20551396064883,8.655960874130013,-3.2796079310529778,-16.76989558764827,-29.731079938741466,-41.02524315697664,-51.41010266303659,-61.061043830641424,-69.63987769518764,-79.22859165193883,-90.94749217825223,-95.2821030837976,-76.43351504204551,-37.11813246468718,3.6257683427265603,36.17662743171223,59.06909771403436,70.42213147213185,69.83569510629201,58.16814064950561,40.36242396714974,27.493501798118025,24.66764136328046,27.328489620580797,28.09224636429999,23.290158636297807,17.248281603003413,14.81010800177886,11.98103342849293,2.4899111037207344,-11.718044327307565,-24.575966569036073,-34.52137580780452,-43.659099442209616,-53.15695645709651,-62.799269430324934,-74.08465395490954,-86.21016807351889,-86.92930796380514,-63.25471213259073,-21.074376074207823,25.34396975181452,64.862087766911,84.86992590702982,83.86867740713616,73.7771694519365,62.57787302004877,49.85307384130424,35.99684958064605,27.04094409126656,25.610205535286333,24.969147422598265,20.72033693226171,15.632784950149219,10.060867041839508,0.640439128847228,-13.24821816467301,-27.799007683124255,-39.75473574388117,-49.59676923139142,-59.399755716450365,-71.04273296990552,-86.28488338791468,-101.44999966456005,-101.37196763250415,-73.74359832666431,-27.93952734342314,20.24278756450272,62.045705657815276,86.90140165408941,91.57701586987389,85.32548914448705,75.92510864505503,63.8434410712954,50.77171722103511,42.27022619478153,39.07563605949708,35.30749811220101,27.276776587584276,17.782736838517152,11.199748436587786,5.443498892832347,-6.25949678914392,-23.471292676864415,-40.62784973694006,-54.0863126281605,-64.69912659173951,-75.44116826001198,-88.10502173966167,-102.72438457174356,-113.33090167985243,-105.61862446107524,-71.45821731620042,-20.338780519791673,32.62783217639297,73.39143499399611,94.4119330227948,98.68095905946008,93.20209296600306,81.88754657816769,65.18497530665957,47.745524804000425,38.43034348575793,37.9535555984591,37.29594532860452,30.60776301463084,70.0,122.0,66.0
-4.725399939746406,-18.666830512506035,-32.96644688311304,-45.568074441595456,-58.40036405781063,-71.13201649575039,-82.05507875292733,-94.62865415269026,-109.95021110020836,-116.28050072389654,-97.68057034609718,-53.04025105150203,4.342522629639403,57.469296034053144,91.76792889697656,103.49064354833682,99.9820776088864,90.21165708794425,78.77001028917682,67.44782836318203,57.7725854742011,51.48028861829919,47.83849858472791,46.640248603466674,48.25290475562259,45.742109876562395,31.753139484979993,10.400824697680221,-7.975078952734597,-20.363482218013974,-32.743452699176366,-50.91851162407151,-73.00789720311663,-92.52694849894436,-107.53948401150244,-121.24044333742073,-129.97602968467294,-118.05497021118695,-79.19392876327123,-26.270467377553818,25.614940190965225,63.17171783871471,79.37750487912288,79.7034598751318,74.91301568330329,67.6812859329317,54.56178784001004,40.39121234336923,34.651030012865505,35.19885854789923,33.81906171600813,30.689150314216814,29.75198233266848,27.464298116230314,16.79115268999815,-0.09317977414807448,-16.601221519310183,-31.670746648204616,-44.699460868411194,-55.037521152099636,-66.03131750613267,-79.56839198276121,-92.88537339896482,-104.2705682060413,-110.6588267351814,-99.45136945345222,-62.16433365407396,-8.489654567476377,45.14337759242539,84.11512103951566,101.58502567636896,100.9707772922068,87.52599355637052,69.52459603758604,57.21186071055343,52.6981203415805,49.08771372626752,44.04062646546318,40.5605139151558,37.48930203536123,31.907101440618707,24.200893789059467,15.637618460339967,5.461606475529347,-7.105237800484157,-20.65582706617708,-33.158810315973014,-44.07306908728913,-54.31216403151453,-63.61207904989956,-72.16134707093232,-82.54383887862528,-93.71982390680941,-92.64207241512553,-66.37842505192495,-24.776044958963595,13.964859141655818,43.85631592034327,63.601453882520985,71.44709591301982,67.53418241961609,53.211084582200115,35.687907343944325,25.71745412870875,25.204178163369622,28.033382787040324,27.234116999389503,21.340051232321574,16.176189807712053,14.386593622522478,10.028670109747523,-1.4268516493017989,-15.751760596967255,-27.685708396566078,-37.14095886305223,-46.3807515747876,-55.90805588737282,-65.7863649918363,-77.79927540647246,-88.37441247977677,-82.74528304910419,-52.27597594224679,-7.608089475197362,38.035503218746456,73.072970341493,86.32842762853412,81.33061124509543,70.57721063142657,59.14413961272936,45.780220781936784,32.603069637203305,26.025227911707777,25.71432808902322,24.054273646372447,19.20413451253418,14.205849295953705,7.859200270265804,-3.022066232927693,-17.595137813495697,-31.559371423430722,-42.731061932155406,-52.34255699120562,-62.490889715576685,-75.04383219322031,-91.14728569781705,-103.82696230410542,-96.2380933360154,-61.535927279954905,-13.819330876384162,33.38886161096644,71.40455287728096,90.05849796713322,90.3965786015761,82.81840093478596,72.74633764889315,59.936191695355525,47.64805242304436,40.99335939545508,38.33394703015154,33.40546520603567,24.452361593359974,15.49056865483992,9.777484797585508,2.8421233276752482,-10.895653153249052,-28.668502091407674,-44.944273523011645,-57.31253591667215,-67.67823211808259,-78.85994675678326,-92.21356691715357,-106.72502133293597,-113.65866113640797,-98.32827206118417,-57.75177652923123,-4.572989117801359,46.19503892019232,81.53131303522295,97.05550863288462,97.82743143099039,90.49516815038447,77.56119555123979,59.815804736769365,43.94231179351592,37.67517489923165,38.239312516318186,35.93929360439744,28.01557922146202,19.351260659884456,11.374099953206875,2.0814031413184795,-8.268666254277132,-19.105569918825044,-31.725756885828627,-45.61876959492187,-58.19343984333919,-68.71260595345346,-79.35844907278242,-93.79441057922423,-111.86107229664123,-119.4758135346788,-98.92986406497837,-54.051931119643314,-1.0186144197082596,48.38439986701612,79.48868786380949,87.29489581970554,84.38158836205723,79.4343000204865,70.13817082024812,56.068529039903176,44.949836826788705,42.442594356249586,43.08129707918285,41.12829782950266,38.93827179495026,34.73315170495011,21.972928776860353,6.035728256743102,-4.624225670547104,-13.216109539629457,-25.31319454316496,-39.39940820065531,-50.1443914980892,-55.785109886726914,-61.31130193188233,-72.3371862613369,-88.24695630948376,-98.67204315644085,-86.75813929579236,-49.037889524614364,-3.0059231791962295,36.33574483043678,62.86220586226006,73.81378334020044,73.18089213522701,65.24230888213204,49.99943440262258,33.2781647252599,26.5497754113742,29.11372021711414,30.74807515895612,29.107823047284633,26.193780146083448,20.795512630677777,12.081218587632277,0.5838984878928585,-10.846158740442611,-19.33387325265215,-26.899477108201996,70.0,122.0,66.0
-96.37051552592682,-107.01945164787756,-109.89768822436407,-91.2470368900968,-47.602016210532234,7.705579631010222,58.446831012455185,91.34203889665994,103.02723253516601,98.1418630805947,82.30348338823455,65.04811785067201,55.34018223241553,51.85457772657084,47.64608026004244,42.80794145713176,39.802597344816476,36.17958143847326,29.820777097430888,21.805018354188384,12.935567501970116,2.0493702818433417,-11.01679392736417,-24.443839966027735,-36.439174454568246,-47.07916948187264,-57.13288033558848,-66.0777413545914,-74.85213274243759,-86.02278947024779,-95.49132292398322,-87.7010771695639,-54.987270552273,-12.788497228037674,23.546469205578326,50.69996215613506,67.11947774633428,71.4940946003769,64.3191690610605,47.946797487417165,31.72230509538705,24.78380540026358,26.023840971194826,28.400179915296604,25.8864668067433,19.47801984378706,15.458183537175405,13.737753226532384,7.407153884476751,-5.584132357424532,-19.54362266648653,-30.571997577572148,-39.76143588171169,-49.12979792484264,-58.66767944731552,-68.98156215603426,-81.49587270565736,-89.14622643072201,-76.3190895613973,-40.122261635020806,5.92175183285993,49.86900500649535,79.3407527520605,86.19523786106127,78.38293372786485,67.366970898084,55.52042626575292,41.678476720736356,29.815828992328232,25.598625612461877,25.648334235930182,22.83326811416096,17.718154677758736,12.681723424673502,5.2466573288954566,-7.021505027653013,-21.87147476704458,-35.06166219646569,-45.57258563505524,-55.13876630883932,-65.77619036813167,-79.39606021470327,-95.8137186406685,-104.44463258092917,-88.65634630507019,-48.27878324081497,0.2136485076505776,45.8122189460128,79.04963680895695,91.61523453386286,88.60306209617862,80.15129108584301,69.3025700117836,56.05260385672075,45.050821575232476,40.08754366946465,37.36276304895486,31.125301235473486,21.62917087053743,13.534080768938626,8.266707735931053,-0.4029262317798989,-15.880717711475214,-33.7189309488521,-48.900693580077395,-60.36807259464208,-70.7382032624163,-82.4663260109601,-96.4739997845739,-110.15280880895544,-112.03765465212463,-88.80560281795087,-43.00075389672855,10.991257533446205,58.41003030131131,87.94785741696182,98.4609784181263,96.33035084832741,87.34011591957893,72.7811363504374,54.58555478875834,41.027503837889704,37.54557671277508,38.226225131696864,34.04985620005882,25.399637693279757,17.063742187486202,8.872968566955086,-0.8671730792362,-11.306514825354862,-22.52476821349,-35.716082892087016,-49.48371672601443,-61.39206066872102,-71.62627891932598,-82.98409265876494,-98.94709895443818,-116.106958286317,-116.77809697126884,-87.7146616637364,-39.0026487723803,14.19939019148585,59.8730958828337,83.77960276104845,86.90501019895292,83.14376003897772,77.36863342046159,66.34336433292285,52.12497277011402,43.38873831015347,42.71143067074532,42.781193882849124,40.38690044101062,38.284668290839555,31.985111226350213,17.161350345300026,2.341179003605022,-6.979844616984515,-16.273925654075438,-29.408675534637275,-43.04886787500003,-52.18997209115977,-57.07359177725661,-63.810831110775815,-76.67670899528119,-92.55692345774423,-98.14551931443734,-77.98962070671422,-35.679643438949164,9.391153145297668,45.529147609646806,67.57878203314027,74.53391793247016,71.6072767288179,61.54630709616098,44.77954534812634,29.985659498737263,26.79287115561878,30.003909892978044,30.480311667885328,28.4051481045542,24.962546185860692,18.615901720124967,8.977884428619312,-2.911822829651275,-13.613094456731746,-21.41659143139886,-29.528992173068268,-40.6741973205905,-52.01478825118984,-61.58291591629777,-74.47858575172899,-88.99323563306527,-87.53038211590973,-58.59777474199345,-13.590538866526424,28.670586991370918,57.20883209666127,70.1523502039964,71.55412856734961,66.72016591304295,58.34400623696519,46.209336490425514,33.040973739376916,25.66276538012262,26.454135600511595,28.77688245315583,24.745151146299506,15.179365345233272,6.252124201921061,0.053840421145618766,-7.043480730300318,-18.678496870023967,-33.634575553981726,-48.27246417366624,-61.587853490280956,-74.7956857856426,-88.34316401196448,-101.21682600503554,-104.74031734904511,-85.90044615892006,-46.84164107073517,-0.9417117258528974,42.91789579828524,74.4453092045258,87.40794604284609,88.86778559736062,85.17711848991671,74.73104632264626,59.2183613151089,45.90634895929659,41.01808918094794,42.9560107853256,43.537400298619495,37.195764077231075,25.083439083186523,11.826385537491598,0.1418041760849006,-10.932514160637918,-25.842528256205462,-44.96267034500576,-61.71680747642332,-73.33998301357612,-83.5620396148574,-95.35897618587637,-107.95614232652862,-112.91462266124822,-95.9520432033297,-53.33281802716703,3.6685600130284355,70.0,122.0,66.0
83.58182547011485,84.81925808200693,75.24706021563898,64.11102091214998,51.68598144515162,37.71930023540415,27.745091644758617,25.561649648774907,25.268664211591556,21.41145200918766,16.283566286340296,10.954442904440295,2.194228644361398,-11.253076679587421,-25.980101354308427,-38.32297460616214,-48.33456770004498,-58.02688735981892,-69.31193251196137,-84.0605097394714,-99.89355285120456,-102.89558166986292,-78.87924813551084,-34.42549166342146,14.00658445156278,57.217880565484116,84.85092910213035,91.83922461324968,86.41942772199675,77.30744729919377,65.61089929741925,52.36209107154793,43.02099516647651,39.38366906748096,36.04746748797156,28.54120519821041,18.942461917963385,11.884630715832937,6.443910406294146,-4.280151334039879,-21.05994913522764,-38.51979546736857,-52.518505886957286,-63.337378003798634,-73.92242028956039,-86.27723112481071,-100.77591971841527,-112.62699275367876,-108.18687687273453,-77.31891317451877,-27.577211808550857,25.995952879401724,69.05326086581843,92.72467161914625,98.8184224440694,94.29892133402963,83.7192895469353,67.63734302728463,49.762286426782666,39.04392453860083,37.791559492328695,37.722798935657075,31.756507338509472,22.857632933729697,14.797766533393926,6.215620694958354,-3.8627321029875183,-14.396920254587412,-26.13288799138484,-39.763438793334316,-53.17103216235821,-64.43453784681401,-74.62492902719552,-87.03033646651011,-104.32383839802056,-118.95358843674123,-111.39568766514411,-74.8479081090508,-23.622036724207895,28.847492947998663,69.41666586178408,86.22838167165116,86.0309271581724,81.79841644171276,74.81869569937274,62.22338088105811,48.68621951441444,42.58843606777238,43.00050826918639,42.21490865411692,39.74449511300861,37.2920306269813,28.397966234899453,12.386041371516937,-0.79973844284722,-9.356483215110945,-19.70851752713689,-33.55696606376452,-46.28526648261182,-53.83021726958568,-58.53545726247621,-66.86829649529136,-81.34163263584135,-96.04211304971963,-95.32176344592767,-67.23909922584433,-22.183431460052308,21.009413828347935,53.528144529085594,70.97628687231165,74.4568694451936,69.46815768536777,57.21613963517357,39.70313654499928,27.79388768266624,27.596039475061655,30.575734015394257,30.005455725924286,27.61382085262757,23.47312469089364,16.158572007206605,5.6623372962962355,-6.296321319263479,-16.096906361387333,-23.526826427026066,-32.46063284603572,-44.144078449018586,-54.83036036279609,-64.72368120389771,-79.06850331531865,-91.10835862006017,-81.88664902377579,-46.34454795035866,-0.42757553643456164,38.566012446852646,62.44221880404734,71.49461728365625,70.60287565348551,64.65037935798709,55.21995887413361,42.23196581964938,30.0429485907573,25.19337424591038,27.409100131056,28.427612465767623,22.281875264172537,12.31271606260323,4.263668628476695,-1.679059607210056,-9.89230484178695,-22.825686134592537,-38.01726105054167,-52.20598198703508,-65.3783986953905,-78.66484926032186,-92.30456109572484,-103.8431803619209,-101.91873317252424,-76.0994889498186,-33.80382631911449,12.30635755893228,53.80345533953014,79.99304077887712,88.54381259288489,88.32880730515421,82.92712992846718,70.50540721056629,54.7858664975127,43.5094559096785,41.189131859223636,43.6279088088645,42.48866115023865,34.09445348175507,21.188368487122236,8.25148442262718,-2.9608451302991856,-14.659969967954565,-31.161013499381546,-50.33757290950817,-65.49685823206113,-76.24626466091887,-86.75875976120237,-99.09226663839627,-110.80667263940522,-110.77056411809784,-85.98136175488251,-37.62667592342516,20.364660651032427,69.43333125754737,95.19472721200307,98.91477855897188,90.71541533683207,77.67129961182333,63.166971705567654,50.50125423855283,41.160737541711356,34.74475354164651,31.73361009096622,28.8674503475224,23.140983238785836,16.50384707306476,8.608993958931803,-2.6527056288836333,-15.855657927254555,-28.225131987895043,-40.20006632205492,-54.10313693697148,-68.41550814747025,-79.87665012984795,-90.02091605533336,-103.08603459666205,-115.01773213991754,-110.13883711465249,-77.58755428426832,-24.296323792158944,35.03508143687348,80.79640237986594,98.26915648538899,95.02336782763305,87.31704773032388,79.13416122240744,66.72438602957747,51.48984220218193,39.854574541099765,36.46422229335419,39.07428567206315,38.66410328870003,29.50700658240016,16.58846769275197,5.359193403534398,-4.657556944522133,-14.632383289071987,-26.001406802889704,-39.101350103424075,-51.25341931850687,-61.14249995009566,-70.77990600423584,-84.90873799524678,-102.58121438451289,-105.87172110075764,-76.9455227957933,-27.627014894940523,18.643354267822318,52.38343205226935,72.12091440633077,79.6154374662215,76.6401396259869,63.6740134872046,46.967978014293855,35.93641106160023,70.0,122.0,66.0
29.221434989618125,20.431812718470667,12.47906353837467,3.4132075315680583,-6.875910392108086,-17.58736021608046,-29.924490019989783,-43.790346747268735,-56.65560526123581,-67.37395860335853,-77.80393695709195,-91.55145444353573,-109.59281498389528,-119.84840829112858,-103.41207986456465,-60.805308769211734,-8.133849385424437,42.52541613527456,76.8127952288473,87.21466226026983,84.92726835202964,80.25035412523782,71.73546543766813,57.98967518735745,45.94532642759404,42.39146360275338,43.11820506660637,41.48424509201404,39.191134735601516,35.714438232497066,24.113506031592483,7.928366652761465,-3.4892991822644683,-11.928592151962803,-23.482433166761762,-37.60649459229944,-49.041537013243584,-55.19861723276866,-60.33327148890523,-70.48924244910205,-86.10337004960445,-98.2303753786674,-90.02803792265689,-55.013330900225014,-8.94362998122004,31.72863413708585,60.22875619422756,73.1670097388807,73.71885630335643,66.72391803953916,52.36065813294553,35.127435230998955,26.710682032474292,28.636423169741022,30.774785097780235,29.40896998092502,26.684632553495284,21.70566177846639,13.428836507104966,2.2023145606845613,-9.471916478871288,-18.349550932959495,-25.782628897509444,-35.66799066875129,-47.499196444951444,-57.522066314994454,-68.33068677086852,-83.57825855751209,-91.33611325979665,-73.87888781415367,-33.23620754135505,12.092846955785912,47.14159729297225,66.40903604024115,72.00741894997124,69.25431931253267,62.30854183922325,51.75974372244985,38.29985956389854,27.709348186152205,25.378007279725207,28.245839820666394,27.404173685308248,19.485366176441186,9.650442146549022,2.486068722029935,-3.617649803650809,-13.174318441843585,-27.166116366918402,-42.288198124659246,-56.04795804761794,-69.18818758523305,-82.56867491689256,-96.16581560590008,-105.35644132655982,-96.94347859442598,-64.899176972403,-20.50069955603874,25.215845435130145,63.346514659005685,83.96867418203891,89.00673048568268,87.40395865379827,80.03649084279593,65.97756256996325,50.74417112663172,41.927496703382175,41.788307614032774,43.963130560655216,40.78776277038635,30.605165377939567,17.312967038473754,4.8445328039548805,-6.077755980542769,-18.842822813561018,-36.74447686866129,-55.31883542960431,-68.87623092752504,-79.15372119345686,-90.12928574505169,-102.8406827651502,-112.70394391640247,-106.44347048079088,-73.96057638907314,-21.08936575924424,36.30147530052738,79.54115708121624,98.11202993468916,97.35390792987067,87.26260812849333,73.49596423070332,59.181565479404476,47.48758774753699,38.98247831741151,33.56169183896372,31.132305490191946,27.46522970676635,21.237044397046247,14.474788226714956,5.717529472543335,-6.412221124942616,-19.583330355844975,-31.598759986388284,-43.99121453319474,-58.370553915512936,-72.07705626471012,-82.72699847976625,-93.4190135007431,-107.19143937763019,-116.11510797767181,-103.57173904649902,-63.72064362920865,-7.029795721340717,50.610621167336184,88.86097460544357,98.65241164253939,92.7804433862219,85.16683935274106,76.07156085542627,62.36718961405002,47.46357120654825,37.96720870480023,36.91796163535786,39.7070510467925,36.86866609512449,25.798503514841798,13.119013064371055,2.4096370597292585,-7.4992825430993,-17.700116208886364,-29.690000186447843,-42.834971606727905,-54.316543293903095,-63.772244733578944,-74.20428574560353,-90.0987583172077,-106.14215085886846,-100.9333273760269,-63.608178376451185,-13.246862385511763,29.80932448912793,59.50423769204877,75.41218443877362,79.83720564533053,73.80136632440963,58.774546719203585,42.90509740416797,34.38330321888642,33.15675866399844,34.53382236038857,34.33396033661938,29.810741399233613,21.07059181610049,11.435885479669256,3.0349201695220667,-5.185231111762858,-14.590199277442347,-25.748914201403736,-39.02777866210536,-53.79016590154663,-67.3034456368023,-77.1128760172472,-87.03037322592483,-94.9196526056966,-83.79289168495933,-47.23970785353727,-2.4356653767206793,36.00774019907503,63.426564840900475,76.45099252211101,76.12944907563575,66.92038586963552,52.38871108267474,37.60729835874782,28.568196112257848,27.809970233482385,31.021564489469146,31.1329724647233,25.808818670326723,16.893934984429915,6.023699364927572,-4.935231746556998,-14.220326155909815,-24.082485484912503,-38.2571014219476,-53.05985998739931,-62.69388154200317,-71.33484910345821,-85.89846087349862,-100.01025611023644,-94.64694795757342,-62.202206118564206,-15.106988241738803,30.218855910581027,62.97869060027106,81.13946128285392,88.10020519247495,84.4796886117415,71.79595582577531,56.26833733866129,44.58084676529119,39.10236638793131,36.25646765274308,31.99433165452599,26.605907504317017,20.604607856139634,12.247479991908202,0.9906779011225689,-12.243394891693388,-26.820036496604523,70.0,122.0,66.0
-28.279683404926026,-39.07124021290987,-50.645258840340304,-60.25489509917204,-72.4401922152485,-87.52000251284487,-89.29617570280462,-63.812763634569244,-19.78195316751668,23.69300704247039,54.34752124971222,69.21502819831119,71.83082528332005,67.58476596815427,59.66952595095778,48.009871862755254,34.60784135693573,26.129570786900494,26.04528200249617,28.72783230470663,25.720471407424217,16.53959282093118,7.2583982682877775,0.8191562534231245,-5.873442459447484,-16.86042690439144,-31.592493366066464,-46.41713551095501,-59.843013050211326,-73.02086076916416,-86.51364380341452,-99.73998388420343,-105.35350887444169,-89.8405173803964,-52.70053472488741,-7.106182305963712,37.52697085574377,71.32643360728949,86.58397178425419,88.99812776137342,86.00718071637928,76.53126093005412,61.33828150817665,47.273283241293825,41.139185918737866,42.58638850896058,43.80630737894759,38.46091055604866,26.86032907121482,13.527497792526612,1.5961832828266265,-9.339867208647515,-23.52385940494881,-42.3942357524301,-59.81450814151742,-71.9726455147685,-82.14155175858292,-93.67327945082643,-106.42710184111175,-113.23797610862609,-99.79830461652132,-60.182019121131084,-4.150611470189163,51.00697857696634,87.46105288318779,99.39408687016812,95.05191492361952,83.52053369835028,69.26513834989369,55.44021049495947,44.74435515062823,37.048802196913876,32.676407912044134,30.396688987566783,25.81801485371072,19.326712633032532,12.277486447086488,2.511027796023004,-10.256398680559178,-23.18278495312658,-35.00205595964759,-47.98542631139368,-62.582292330828736,-75.43605978285677,-85.57432306608025,-97.15668452650772,-110.96916349709156,-115.33688481741576,-94.59522876807678,-48.44155320700181,10.373336210447691,64.49092976957486,94.36926452839897,97.73204879013433,90.50857733718077,82.91000208187253,72.56802499727274,57.88847573467875,43.91415385848861,36.83834450325447,37.73531030388774,39.817279347839445,34.30652004025838,21.992161582736593,9.850586359634642,-0.48405299899510446,-10.355005204004687,-20.93321262727449,-33.49814068934492,-46.40430734977065,-57.192462724760844,-66.46177015829541,-78.14520001814496,-95.44522141727032,-107.86164811945493,-93.05310507391171,-49.20389729697912,0.4061412989917483,39.83969660871024,65.44944488690378,77.75996997864053,79.19143653416354,70.15098040352837,53.803387120162036,39.5231269737995,33.469025473775076,33.492256544362746,34.79559518512384,33.53690804676802,27.61059374115098,18.21594718252281,8.886514628657881,0.7222479309178961,-7.75078062583425,-17.610569297992182,-29.36817568402111,-43.211745396690844,-58.00391646527104,-70.465701719253,-79.74806643365955,-90.09245004308255,-94.45000597620295,-75.37297597035166,-34.2197461697152,9.6091307650565,45.2283496671153,68.74648376075005,77.53560718939009,74.21073031194054,63.098584401883656,47.86147458991177,34.18573880981881,27.556145370495685,28.666793518975084,31.602431567487876,30.101397975632096,23.510421575208014,13.893890722570728,2.7569946282260935,-7.794658423958698,-16.78919821890212,-27.713444502574628,-42.83153103820013,-56.40275069680984,-64.89056197102272,-74.85308375642414,-90.78419013208982,-101.23034499495029,-87.78440974666682,-49.30122096102981,-1.2282108661193567,41.26113829114023,69.57762077657817,84.20665932791306,88.16103680624445,81.54333417841598,67.26543094308754,52.27859014823159,42.42085515734888,38.25689779983394,35.229084737927586,30.482204201026892,24.988778385184254,18.508344436867684,9.255214101076954,-2.6652610871188998,-16.337495041981278,-31.22304494402257,-46.70284283370963,-60.91773680025243,-71.78989028220013,-79.47717006958358,-89.04029163864678,-103.54394857944006,-110.86764754199108,-91.54305454876057,-44.32325203129942,14.181439047423865,64.02893675316004,89.8173350450554,94.5314333919119,92.86411977849214,88.44443354504692,76.69592269418568,60.56149343879455,48.42549073615795,42.994963308853045,38.970067074419475,33.71703958409072,29.643306793960882,24.767414670324495,13.393070496649017,-3.3260274260815086,-18.407926524634252,-30.289650079221055,-42.09461865078414,-54.92248791510279,-68.10783001424807,-79.61869201975534,-90.07940678291793,-103.64658656269333,-117.71171729439418,-116.90040198657785,-89.03828894106049,-40.514575039761084,16.84288664508024,66.50391894044814,90.28200238671043,90.79998967630789,84.0840872761535,76.09629660656366,64.45117789433314,51.182166064551176,41.92231196505488,39.78262085737582,41.09898838778583,39.14668515551694,31.47261846261189,21.972418318280674,15.34226837778739,8.284147535857153,-4.91195789900752,-21.232085211514903,-35.74051591819989,-46.74624522653231,-53.623852713640055,-60.03883536072677,-69.38628278909854,-82.13567155624806,-96.83629616017953,70.0,122.0,66.0
