6.3378278720238415,903.0247288518548,1199.7058993623423,1056.919446394304,907.9977020071651,857.5491819476454,807.0585830966494,723.1468425798878,638.0374030623825,565.3119841423065,497.44249447865457,431.02167203923136,365.95285050117707,301.7392713323011,241.19760727574797,185.7447504311278,131.89291848057843,77.86200142702045,27.31563300144948,-17.549103805242616,-60.58328384066363,-100.89385949592979,-126.52874817646514,-131.71570918486836,-129.21943336902396,-131.5651441532797,-137.81257206865723,-141.41542657297657,-141.08704137525578,-142.34987703412966,-148.25400270325912,-153.68127656384772,-154.8949458519106,-153.5583858667509,-150.98901983985365,-147.26168681822824,-142.11093794025558,-135.40191108329515,-128.36817598058354,-122.72427890863123,-118.70799920094392,-113.44139356649575,-106.01937287849113,-99.7106873133333,-95.88277491885002,-93.39881250790104,-89.77799924381144,-79.84361842643281,-60.02132484017422,-33.5914571092782,-7.461437829389043,13.137352455708744,28.201600771303138,41.71195370321466,54.236851647080826,62.4711211461302,67.52091570329536,73.28965150264551,77.76766003627556,77.40541607313774,76.1082932502048,78.33003825345888,80.58468545795805,77.30325242240028,68.74295623925525,60.56243959711673,56.68869201744497,53.68917072988002,46.341916719005965,34.982900476176994,22.885649981801848,10.882549404494618,-0.7622152147635779,-10.4056069439417,-17.657002298008432,-22.217300441512275,-21.330100699247634,-12.627774755095595,1.9020451104962495,15.277064669904629,21.89912588663651,22.38575885830285,21.08860912138766,21.487060406719447,22.677898883451636,21.494911303454103,18.132552865674686,15.656788654871846,15.65390462040703,17.317621825663526,17.272274419789756,12.283143465829783,4.520799562647178,-1.7529296582871596,-5.8096563966543115,-10.543904981691542,-17.637737417710706,-23.662872854729894,-26.645821671913342,-29.43317391726051,-33.908849140353354,-38.76231223722307,-43.84619695551619,-49.18955495841981,-54.27059666012814,-57.60663620967512,-55.77705420893218,-45.15943755254366,-27.370978722379462,-11.184188171469442,-1.9943860124295436,3.6419114451852836,10.919117607016618,20.232931717872113,27.389325964910643,28.61548747977738,25.772383218549972,23.576514915505214,24.714612778047726,27.376477724367042,27.213390268752523,24.64165774863779,22.220234110704585,17.77933317863937,10.618722680559088,4.3271014483805095,-1.4101428433513776,-10.43579951419097,-20.917610481224358,-27.884320794376148,-33.32749835106495,-41.948379410196914,-50.698302853616745,-49.16853967864891,-33.27956792126522,-12.08936561338708,4.537756699828502,16.13853024528448,25.713575808470353,34.48687410117169,41.74583145985431,45.605321588436034,46.636922493040814,46.567301578239636,45.754439462324335,44.24491677594411,40.62089884786465,34.35384157429156,27.44766319941556,21.011993507963865,13.662829701530661,4.50305762563637,-5.590358514757041,-14.79852285815537,-23.242842011502272,-31.988956796732378,-40.67052379106355,-47.81397695492568,-54.04204143834226,-63.48762210599702,-77.6861217445758,-88.67411476560311,-85.44779304965802,-66.64873306441369,-40.75150787572735,-16.413614931049366,2.235483014603171,14.61426662768779,23.68290348613634,32.58682319847047,40.06162035087521,44.49648433362612,47.5322030668707,49.19055363949713,48.71784256323623,47.81025967459409,48.97578695279439,51.1123994048794,49.544278625615625,44.35193155410197,40.036217530524524,36.07288767451565,27.91554191797046,17.753460151503308,11.707447624615181,8.81910590368121,4.309581303336436,-2.719223985728721,-10.383325976754836,-19.185272436806063,-30.856885796930037,-44.56460740347875,-57.0904515845197,-66.91120294283486,-76.22390776114088,-87.73628230527139,-94.91007072261729,-84.65864426338601,-57.17758467330334,-27.02481286179619,-4.127635799491328,12.18443986100882,24.203275894663495,32.74011196100522,41.54001078515442,50.00901640031927,52.86448314352626,50.497440577994716,48.240176295767235,47.62368993707833,45.890060734605576,43.258800289124785,41.16019239932045,36.95916340612973,28.468511645854875,18.26307391132408,10.391920365998976,3.2099449184812525,-8.72514781517556,-23.606119966865855,-36.07873505227443,-48.06357856969906,-62.09658688504277,-75.6104306556878,-83.55374315769144,-76.62192259915206,-51.56943005438001,-21.031967908372646,0.9820495074406824,14.179792700637723,26.843795054834093,41.04474920322614,50.64568085183484,53.23047546395463,51.13143571657934,46.69156669866974,44.19134783869372,45.536476399421886,44.5427046084018,35.388539615031036,21.50115027716072,10.263173584738224,4.088113420450289,-1.9931922607417891,-14.415432848372621,-33.02322915612503,-51.54925950512265,-65.77327765256824,-79.22834756852086,-95.5843012022067,59.0,95.0,60.0
80.32905764774975,75.1869395244716,66.05002740853814,59.017975614384426,56.01920238906058,52.122598451674975,43.31827094373709,31.466261452696745,19.428618171340023,7.416078658851368,-3.812529894446491,-12.722503197509967,-19.331167207011884,-22.673764540035844,-19.639466118017882,-8.786254699524973,6.2343163005252915,17.971225461227828,22.510917151455512,21.982364894326842,20.974707160801383,21.900396824862458,22.666306672132627,20.623444463604347,17.204382297981457,15.3983594724268,16.05515399267803,17.689862006216224,16.353475562053692,10.112650000258379,2.4320041707377755,-3.0683940393881604,-6.94942319474974,-12.42189032402547,-19.687254244572806,-24.76578027496661,-27.313150225945638,-30.58416566269527,-35.32195198677634,-40.18160316070158,-45.38864392061595,-50.7115422120305,-55.534754879795436,-57.79239730868277,-53.70487082517188,-40.44790891887153,-22.118676524225513,-7.825441135884655,-0.2820773072695124,5.448388573581478,13.523488084615353,22.762761530705173,28.385717167439786,28.00430589248585,24.886796918667592,23.54444674844953,25.53145472298681,27.735390031428047,26.55100201123347,23.936784714368873,21.293025638239776,15.852824146843226,8.590690309093594,2.792922875961329,-3.5924918353760296,-13.591038639107257,-23.364266884419553,-29.35524904496167,-35.41447364408224,-44.87452156460614,-51.74278430013145,-45.86214515982141,-27.116037549496696,-6.634815725401988,8.265219707940012,19.015830030157503,28.326092797645554,36.82454328230851,43.256659703471,46.09328645946835,46.70097497641657,46.39437619738708,45.42317154856873,43.492721942417326,39.02486842306641,32.318614940797815,25.57523004471499,19.051924556778317,11.20219147183282,1.5928105517752864,-8.384901858143495,-17.259496093633235,-25.719842364593376,-34.56405584330726,-42.94216340006793,-49.56810155023123,-56.240152130502295,-67.25774871487863,-81.75414388311698,-89.50473858579241,-81.36278743071186,-59.42657918319718,-33.30543117849311,-10.345553428388378,6.383717922702739,17.3853156547182,26.236437370970133,35.03384868580168,41.6117111416454,45.452829222603555,48.21659232304553,49.2486687684579,48.369948895396234,47.87680792751659,49.68672537540867,51.19700049138335,48.2125532145033,42.888164062057825,39.06608898909064,34.249715964688285,24.860137260955963,15.460093905636942,10.774162219102791,7.827686266828012,2.4520671266771634,-4.912421340567649,-12.71614666448395,-22.230300568116192,-34.73488215653202,-48.43943324515064,-60.17718484546843,-69.47681785595283,-79.35580045355728,-90.86598064209566,-94.12777236899798,-77.96422626065416,-48.07081940784594,-19.546417061168246,1.100172682615232,16.09002874343643,26.904028277911877,35.109488788691756,44.26520547270461,51.55572676554166,52.501244635826325,49.63099740376097,48.00211066343016,47.32045068510005,45.113353420162035,42.63561306737759,40.3370414224522,34.92039570359184,25.485777855532984,15.662247344297823,8.515244287197998,0.3687937741515989,-13.02664815853345,-27.524247115959277,-39.374912484005506,-51.9595173944615,-66.21688037771656,-78.82042594186717,-83.50128419087702,-70.94867769348308,-42.5184384977566,-13.48895680187075,5.366176441592617,17.58178225383331,30.99417158792251,44.555046868963146,52.030561038134174,53.00604370438257,49.94951197670651,45.55171924301182,44.32115133550905,45.877992609810356,42.76475620096448,31.51859129371122,17.728536851705687,8.058367977239497,2.6633085506349907,-4.774226703781814,-19.371644612969398,-38.69275751135783,-56.08721266091883,-69.452677529694,-83.7276790287911,-100.1185229181203,-108.5342917793486,-98.52218943338067,-72.1439201104356,-40.38268437820967,-12.887807674814061,7.6086510080087795,23.67605821964962,39.14917963381789,55.00791624719477,68.59273889417487,76.26410925791673,76.7488581258522,73.73262931624961,73.05714180845318,76.3448228048972,78.27162672719085,75.02838481219338,69.02609155195826,61.2739804733508,49.177261589566726,34.7576445364884,22.83727292156862,12.017276320621505,-2.0864118004962706,-18.812412326750735,-33.60780718487053,-46.487451765702374,-62.206071942430114,-79.38460140906868,-92.35234499875263,-104.86514758692867,-123.32257051849676,-137.71185991455732,-130.3797553279223,-100.2535001224194,-65.1483109836839,-39.109326597189714,-19.626350358878366,0.20979993765817873,20.30584308257617,37.384882055614,51.4728760425618,61.20340063343329,64.12532802323763,64.0986074904583,66.37242371019062,70.9507877615128,74.77186267880371,75.40368850523687,73.23325158023026,69.83974779287067,64.37837162400541,54.31298345636786,41.905310283629994,31.8458178169026,23.007078211444558,11.2118918674988,-2.934736641588052,-16.509878147916577,-30.13802894898438,-44.356080485937916,-57.628552104955574,59.0,95.0,60.0
6.73482892255078,1.2213630705777923,-6.141327036869092,-16.724292377678687,-25.429326644078127,-30.835761180176082,-37.859216284594986,-47.62217318752583,-51.64518714798187,-41.38885513179593,-20.847675637762627,-1.714345927969806,11.64440902388648,21.790256349180464,30.88125068630331,38.99781306457115,44.43730795660845,46.40032330147479,46.69758146302481,46.16508525323534,45.02794770125376,42.511522809782306,37.22537757702469,30.297543811365344,23.736339682490872,16.970072758388287,8.581939101043757,-1.350992556695247,-11.067429521200774,-19.686169594027923,-28.241773694691123,-37.10692204851678,-45.04311416588053,-51.302457587383515,-58.83561032543801,-71.39626495612453,-85.25038425179385,-88.92265531555384,-76.07004590747235,-51.88296956003693,-26.149497213554437,-4.819837939644229,10.029836928883574,19.985520187052217,28.826021398797874,37.2767852983553,42.91202391495755,46.346500949599516,48.74934484829665,49.12731069669651,48.05497889052286,48.17078882456686,50.39296768661798,50.84751417794723,46.672346186941276,41.60413414044121,38.02900280923934,31.9668669478812,21.80619868455059,13.626549709759331,9.991192814208969,6.593614364184088,0.4210697901119769,-7.115168297480789,-15.193142694996997,-25.549167730727206,-38.724842001603314,-52.12822180616929,-63.03523931012908,-72.09300020880016,-82.71647250713168,-93.32885149417974,-91.58291344934307,-70.0532934608895,-39.155996302882556,-12.789963285903621,5.874039170229692,19.650398671924286,29.35379421003566,37.62079836922955,46.847766279161,52.51243355479023,51.79964859738149,48.91575900711944,47.86087436560594,46.851641905434825,44.320337983715866,42.066010634529356,39.23024566395529,32.511932788626225,22.469903341114254,13.343127051864206,6.564401564080408,-2.9884962416779914,-17.41493094441846,-31.15196980081874,-42.76356708357192,-56.02448884109196,-70.20907539595962,-81.4112849266433,-81.93049284199219,-63.83331042017847,-33.45947349486452,-6.906212604115209,9.164227053511805,21.159187180718718,35.20184538524093,47.497173966753444,52.859353337944746,52.451425422725194,48.62972696564966,44.7125165508624,44.74637852538866,45.79641183012091,40.23474221667731,27.432026109067746,14.347995237051338,6.259680959987552,1.0596252514871976,-8.211419205237965,-24.754312819650377,-44.168089748085094,-60.22649268153565,-73.23628583172817,-88.4965405974762,-103.99170884811517,-107.70725556915777,-92.17728689606021,-62.98717594655693,-31.742646579812085,-6.2944472175420385,12.525121822611185,28.07882484849286,43.76321281728117,59.329426585402786,71.55578484641805,77.07211628798086,75.97030596596231,73.08718899347498,73.73516309800597,77.34205143314813,77.83522898716254,73.4289038667585,67.07030250462954,58.28379505661995,44.98999458371382,30.968991397640785,19.824162352751912,8.380344058551499,-6.839387174383272,-23.44221634718359,-37.319944506573954,-50.604602221571845,-67.31622710177577,-83.6488166145746,-95.57395067554538,-109.6511493532228,-128.76189681728764,-138.33974281818413,-123.44288897385232,-89.70708247015712,-56.53002950897096,-33.18464442322639,-14.082224366841915,6.164741772144186,25.608046323497064,41.7345807854897,54.90085930629137,62.71318941462197,64.11921157223053,64.41567130532229,67.57251030258935,72.27957703222079,75.3220233446592,74.98530204621945,72.34262224895087,68.60631744459705,61.97643363823273,50.71690709702901,38.66585917983392,29.376769534550473,20.00078450713295,7.199909743563193,-6.954905872719832,-20.363290022158388,-34.24247170199998,-48.34277576583455,-61.19940818526299,-73.17640570637664,-85.92076299072042,-99.47261148628844,-106.62881575634896,-96.33990391935575,-67.97951290413997,-35.287265111472124,-11.763162250964966,2.8171312489264957,15.172001243971476,26.67434041317991,36.93365867064104,45.60514749429788,48.81242105679059,46.05956909103342,44.46864149083186,46.67880030691789,47.116189552183734,44.52386229194878,40.88401541538993,34.448682735132465,24.7546195920111,16.623586172525666,11.475847699063554,3.481523023622812,-9.5361384212517,-22.333272425736112,-32.63794118477103,-44.32149429385137,-58.91634865559454,-72.36799214019528,-75.0722481828612,-60.72816388053461,-35.7399888098068,-10.651332041456111,7.781964655654266,18.91235386109146,26.85504190394537,35.028308908214385,43.43179135094938,48.47934759685128,48.11075993794001,44.88906612117439,41.81537398368383,39.874497252121806,37.84430607954052,34.073617158472565,29.641782508043388,24.378659830260965,15.980933448102077,3.6066711394551287,-10.749423724854646,-23.510514679311814,-33.46123426049619,-42.8925787216794,-52.25002080711307,-60.93027826472806,-72.4377294846372,-88.71894059503443,-100.67213668000797,-95.0492917938226,-72.0669813245848,59.0,95.0,60.0
-1.715433429027344,-9.340009635485266,-17.870502738483303,-29.129082986687568,-42.73498889624054,-55.58289010171621,-65.71518112758898,-74.86754302700406,-86.17371821320332,-94.72700786425838,-87.23767220066074,-61.34223850735639,-30.70951823306621,-6.718348427001813,10.271599289859632,22.849234255039132,31.675296783281734,40.28110653915757,49.11401997606941,52.8786169768909,50.919390562749875,48.405865583745936,47.71703610760016,46.222813517909806,43.57494841868006,41.47158268884684,37.76600754212406,29.797541469208777,19.547594560062347,11.280528395171128,4.357914895357707,-6.825561160714516,-21.70321845066002,-34.554006555050336,-46.33963328205984,-60.177339917818735,-73.97941764530223,-83.13122417373269,-78.68958849990656,-55.61415634749573,-24.799149893116233,-1.2983592003418951,12.62716290765346,24.991823822444903,39.271895584053844,49.800918548422196,53.20977496064245,51.606707176354504,47.283898800960955,44.26057556133581,45.29834125493073,45.103996609998326,37.042446741209645,23.33761867056172,11.438435845225293,4.740314006366709,-0.9137486147318055,-12.313511685833781,-30.390991682496747,-49.31305315438501,-64.06449186893897,-77.26459079407792,-93.37097384647821,-106.84266470804249,-105.17413852918395,-84.65215160927887,-53.690222343303915,-23.636565196164778,-0.28113291854575806,17.167420099875457,32.52175384433192,48.38656413529789,63.37542261226141,73.93399201836337,77.29178591693132,75.03815381374895,72.7782089843129,74.71027273143334,78.03832746509434,76.9500944506674,71.70013171314586,64.93201661376648,54.85960191452375,40.74367083747089,27.48026264398333,16.785871923346587,4.380578255450431,-11.72518478891577,-27.78936634974378,-40.9620884900927,-55.079867972989376,-72.40292883757593,-87.44490459981552,-98.99764885414785,-115.0068835447328,-133.41013835762354,-136.76341401365391,-114.82569575093304,-79.29502032325135,-48.84943663932476,-27.600543318843712,-8.381217096092344,12.05277681828019,30.60027213505504,45.87003939483297,57.8758275595336,63.62862501122128,64.03689106148076,65.01270335841552,68.91226946294348,73.45920358285464,75.56709864894232,74.3731262345665,71.38600873501116,67.13666637883775,59.13608920063737,47.057418829215436,35.71227542882981,26.903375406449015,16.659490075632906,3.078363797451427,-10.880474680617981,-24.273491940180435,-38.37565739731106,-52.2089045264676,-64.68844845333112,-76.70376221962033,-89.89425348194246,-102.72778276169683,-105.78440429350854,-89.59988649759451,-58.20058670794216,-27.274291515081064,-6.956782297238282,6.431667776526549,18.636493777686514,29.733803680884886,39.71817732374878,47.27858980481995,48.404778706605306,45.141926879746144,44.91019925974175,47.20146906990636,46.556507046083,43.58478386363151,39.43797953873869,31.83650567516876,22.011714556347684,15.01387856989347,9.730001911145242,0.0851022538380816,-13.51692479946612,-25.44345855898119,-35.70335300098795,-48.30536432994916,-63.26186872166359,-74.72925655860499,-72.62647460504498,-54.09444093698365,-28.11713295977925,-4.474837638763877,11.604577370741362,21.336707734205266,29.11173749275335,37.54794644589475,45.41366473895029,48.88444014804642,47.30582505826069,43.90538757224937,41.144521091452845,39.40696466420948,36.92898333295215,32.79754259721488,28.3027353567816,22.361088825258907,12.77968598094454,-0.49095334276979874,-14.737732994086182,-26.607912354516642,-36.13857245741952,-45.67653683231647,-54.75444932714215,-63.743591312313335,-76.81204772602827,-93.28647794531791,-101.21560091914101,-89.68228037441408,-64.25596615005254,-40.07066856212257,-20.120382820174477,0.5937487303645264,19.992479866040338,34.26015028535883,44.11307565930834,51.190360553142696,55.29665230983323,57.59782648794678,60.33918811371439,63.289991674299266,64.79353227242662,64.42991268791494,62.66824456123429,58.60404413847788,52.171558679767145,43.64449252597327,35.34705296450417,31.605904425904672,29.16967125166057,20.981710177293394,7.977009984642368,-3.4806770279719363,-10.575143594120785,-16.64861747769771,-27.038464994650248,-41.45740789934061,-54.43620131623986,-63.79347172033412,-73.01416899544111,-85.5986871224838,-99.0834480938077,-105.55954293700775,-96.4392345588043,-71.58323229177738,-41.71005424532367,-17.433455666909925,-1.7691735825949426,9.465607252487658,22.0629421660156,36.104714910022125,46.53599583495776,50.92799782645608,51.76804175401879,51.51997841979972,51.54122405754438,52.54401305439809,54.235392213749776,53.153414650476286,47.14815682816294,40.713000670733535,35.89367342184483,28.245852091127595,15.571559001502498,3.411791834087467,-3.5498197813329977,-9.056891593242282,-17.922034597596138,-28.954235281731076,-38.768745060895064,-47.683208185411516,-59.0052104995423,59.0,95.0,60.0
-98.08795240049002,-108.35525443054084,-100.97954772374715,-76.2373945362941,-44.51316755104443,-16.13521053743351,5.220606535228765,21.64179701151781,37.040024579895615,52.948142236167875,67.05017653177399,75.6782768242106,77.01252038310065,74.11355258813066,72.87300812312452,75.83042059679872,78.30891857609136,75.69952783699931,69.88855514110999,62.51169343208079,51.0422727037087,36.5982705480324,24.257504344572485,13.58258646499265,0.02597445065631,-16.604044889627268,-31.833611587010502,-44.69420629041763,-59.89620875411281,-77.2656980230805,-90.85782653628398,-102.87559489655047,-120.69285551039505,-136.74624228631762,-132.90355052662557,-105.02133923609118,-69.43066381765564,-42.019275596537305,-22.14550329163619,-2.5259996609727677,17.76040849370797,35.303206219537536,49.77049508803028,60.29503777496999,64.05323768019704,64.03671611889445,65.88632665951108,70.31032161227408,74.41888712183835,75.51752977394686,73.61744754779306,70.35286836972166,65.33942814751515,55.905868771664636,43.486705619624296,33.01990111467946,24.290830286079782,12.994510024430683,-1.0504202176918256,-14.739566232201668,-28.267727774992068,-42.484322483584556,-55.946547381660274,-68.13278604500232,-80.34412312705534,-93.90376190152301,-105.17373995708296,-103.23203791447455,-81.49688190531297,-48.5063383252245,-20.259183955123767,-2.7356551277691947,10.002343705777413,21.99533814650162,32.70743650816382,42.333725897285944,48.36528814896458,47.57759043081646,44.55065479415468,45.60450976770238,47.41506916640906,45.80406710715822,42.58393678306277,37.67295371047871,28.999669648920065,19.558949535325247,13.591774135775355,7.5622923591265065,-3.6869507955323737,-17.304613716772476,-28.382646636903942,-39.00059662637747,-52.52059017980377,-67.35745145978656,-75.90589896914199,-68.71050325082031,-46.849726666401985,-20.714581824063185,1.0200033659758725,14.876727019658178,23.612967259366858,31.449102025443228,40.043349998296996,47.00282063311282,48.83557477690319,46.360189825341784,42.987725038539985,40.57658761308862,38.87188870673463,35.85060323059502,31.517772853876547,26.849567075708556,20.023802224257363,9.25076513615229,-4.67775600950662,-18.50084349084568,-29.48700905585364,-38.84883100310307,-48.41516259349606,-57.21354066681414,-66.92838549953049,-81.5658129469122,-97.13629022694255,-100.00829321015429,-83.07117900506051,-56.66172621594324,-34.13477053675232,-14.280799014397227,6.57179104318765,24.69055943100666,37.45198458296852,46.43318302924916,52.68802314874047,56.023800640208265,58.30407496203755,61.23639650634789,63.93740959499388,64.84388275383752,64.08567485559149,61.76674368885736,56.964682235880545,49.908780032555825,40.9951674853269,33.739246242576705,31.138540254696345,27.5496502317026,17.451269831289437,4.260565804037796,-5.931472922041364,-12.175723509082275,-19.05673117413434,-31.007570667121136,-45.57409615901089,-57.438165826085864,-66.24785087479836,-76.27749806233318,-89.6801843500784,-102.09971467912,-104.78213846818588,-90.5368744941226,-62.89010996231002,-33.83007183002561,-12.093755392960851,1.6280015730232342,12.817966040339735,26.152199905825743,39.71578839659379,48.367350774201356,51.39593742547008,51.733988643855085,51.45971004420114,51.70513278659525,53.04842840253115,54.41712672772166,51.821073757224,45.08977029634854,39.277965917871995,34.20914703345567,24.979524683705616,11.661483087358024,0.8889118330902979,-4.9971169145486805,-11.206828458254794,-21.064455326307854,-31.99319798539855,-41.30872413864335,-50.57392398515266,-62.97334303422248,-77.37316710874063,-85.69836495698793,-77.36926046505945,-53.74608911939705,-29.251334900230894,-10.943672029543674,5.488824530437521,20.746721480596683,31.686325068832133,40.45292615379169,48.79847195838372,53.24381066463787,52.79566741081513,50.33563163489359,47.417957155943334,44.567463258704144,44.13841969497788,46.14853518332272,44.89118163606991,37.71714096463447,28.7008059830578,19.737573621461696,9.483905456436213,-0.6609429843951521,-10.18020935260706,-20.712203021732172,-30.6568930379408,-40.6536127444697,-53.82699921908802,-67.65994107058863,-77.32357935463435,-83.68289099551401,-91.6901915037578,-94.94237596594276,-80.7354428074546,-52.663714540232085,-24.950783635664326,-4.381348768312678,11.297640430948949,25.292102484267105,38.02497285418519,47.347358686080184,52.68791555981138,56.35113635579217,59.46075324159383,62.99270130089921,67.30303027200375,69.84209139379222,68.53069610234249,63.16683873073249,54.96908934330556,45.913817206585804,35.18860036965918,22.845997094914324,12.318314640969522,3.8595836273584063,-6.133055930637903,-18.17466322418006,-28.440799130304715,-36.38567791273214,-47.109148687218806,-62.54508973593027,59.0,95.0,60.0
-59.56520383771967,-71.57614936813195,-84.12736265574688,-97.78754670053526,-106.48718656879448,-98.91237503504121,-72.3946266392313,-39.28897973156106,-14.235356219052214,1.1150007174778191,13.549931132210103,25.22696387978624,35.61572749640016,44.664107510864035,48.81511315484442,46.54168183238227,44.39228397178905,46.36173278865409,47.28482298988995,44.94195333310915,41.46351135376413,35.54828371718841,26.081706431283873,17.46675002155545,12.178599361252065,4.888571153588035,-7.674929941351767,-20.814011820086886,-31.27957085530566,-42.576183155860534,-56.885965523674756,-70.95458081461061,-75.68315527731387,-63.4987485325391,-39.27424307478883,-13.707115898099751,5.806752602793379,17.715470492313003,25.831349671399266,33.88031432074101,42.413057421679426,48.12738543025501,48.408598500372285,45.35463860350654,42.16132778119181,40.08659570863006,38.20669316749743,34.651515479327664,30.238491393951147,25.21313917706967,17.338887929803033,5.440506007125301,-8.854641505606349,-21.994220186636717,-32.22378176939198,-41.60857962594789,-51.064290952782734,-59.722436943456415,-70.58263509746928,-86.48183117397532,-99.87761668647784,-97.00936653102319,-75.64106002110432,-49.52764737989132,-28.428699171161803,-8.286983941263403,12.302695757899357,28.907219204239812,40.33759060139862,48.53843939133623,53.921250821346725,56.66454607387519,59.08521496017853,62.12063565173454,64.4176171074071,64.75561255029227,63.62523343680784,60.641704941060354,55.14585391545445,47.46300422070056,38.47698000861439,32.600191245991915,30.585977842019947,25.310264583591433,13.647339736680689,0.8348898059603068,-8.01375234711347,-13.825123206161283,-21.947502099440168,-35.21571309701709,-49.424325215289834,-60.149542056279955,-68.8200501437449,-79.87195818204015,-93.70749917268782,-104.3017221903798,-102.50874850556711,-83.45167809030129,-54.10966201139284,-26.616929396405553,-7.468778429539004,4.8205759944156705,16.400270371188785,30.28731731944794,42.87716011640484,49.70243779114097,51.65233600995571,51.65248965999441,51.44652019541306,51.967804113827356,53.5849770143649,54.23974217463702,50.09076519435873,43.15959813383454,37.942865494915125,32.13799816566123,21.31405953208835,8.000401269647163,-1.1622060139273034,-6.491105914490969,-13.710161222376511,-24.29403068379682,-34.8637293097626,-43.830109951427154,-53.75833320720597,-67.15620375183315,-80.91515606738997,-85.30450371698412,-71.5720157792622,-46.14558951478213,-23.418943417546544,-6.210000461394085,10.196755335736407,24.369699672510183,34.256132148898516,43.00220430228125,50.64871781616032,53.50682212492658,52.175300608198576,49.52839428722161,46.521587288497564,44.07606430797857,44.65003700180769,46.397202122257696,43.313031952753875,35.10421739504172,26.166415842903245,16.915753186043027,6.430813368364195,-3.379567836281481,-13.128153222638522,-23.739897091652313,-33.357045120747095,-44.118278741780045,-57.99835697798872,-71.00864910800559,-79.24376271555013,-85.78101352828503,-93.79076005044794,-92.87895484697036,-73.4243889659968,-44.094368000335926,-18.266341995368737,0.46449228274558685,15.440595706676591,29.160057378645423,41.178310371132525,49.20844527557813,53.83504272833779,57.28378235661422,60.374214936071596,64.22552098772161,68.35930989209439,69.88590116674085,67.38428863429763,60.97996301638371,52.416050732795945,43.06773057352075,31.659247681794913,19.490183777888486,9.801971458725946,1.2656421308139398,-9.53288332618134,-21.486607808561683,-30.803621086625707,-38.96668614213198,-51.20380436199628,-67.3307082244983,-82.82713396440509,-96.17360124190877,-107.17826507762953,-106.94619669622969,-87.30959762343142,-58.200536099426074,-32.98850202255991,-12.099476234897764,7.021212494080285,23.741406781485612,37.273350965412334,47.15803880686382,53.356128683040794,55.83377625085952,54.6144830313887,52.39734202301195,52.76112967802114,55.102089035861695,56.7298028422303,55.91656789113187,52.44630655742698,46.662055568112315,38.93852718954622,28.26698626893559,15.243327353329068,3.386341645268231,-6.572067673051823,-16.414638273450837,-25.197534133735452,-32.18252480172814,-41.4869049595946,-54.91250997843769,-68.87712636961274,-81.80732064618314,-91.64282146420882,-89.13871027479429,-68.76737311734789,-38.948113443177434,-13.018527041592295,2.7425665270066757,12.521063004636922,23.03300821974768,34.78006451051806,43.36238066839378,47.04037533486604,47.94066915646065,48.28757975485834,49.55225629692419,50.590336686406765,49.83381256925798,47.697840738113065,44.231988386341406,39.60403080604048,33.39724061108247,24.80226220179356,14.309257599711696,2.5537046874800984,-8.5361246629675,-18.47612303428169,-30.831410226886437,-45.58992715710267,-57.03374747679748,59.0,95.0,60.0
-67.85039877254056,-42.93811219016713,-22.761610554708234,-2.206086765376355,17.666639518935142,32.666815897832684,42.972656815960164,50.4112048716185,54.91036012350499,57.294582139273366,59.93252013308164,62.94444884027588,64.7159317164784,64.55532041628162,63.01283876530678,59.29516847614214,53.15172386514295,44.86931167265129,36.24381928524216,31.856675060455878,29.72382598304722,22.46971063065524,9.753304779102406,-2.2136299466995606,-9.8109951580564,-15.681830225614599,-25.32908864732956,-39.50072923556929,-52.93722199593799,-62.66586250285849,-71.62201524112685,-83.74575245278771,-97.48531590556877,-105.44851218846131,-98.69860962124312,-75.47281300180653,-45.530442551151104,-20.152572142379167,-3.4541576946770145,7.979744047233529,20.226687364514795,34.321816152502876,45.50933522569855,50.620450201672696,51.75733547801071,51.55878420388622,51.49456453513895,52.33834435871896,54.06495635158929,53.60900471721803,48.103730939259165,41.43495212728193,36.576159580161075,29.590385344320904,17.40341370472755,4.746980290401236,-2.8509281771955393,-8.180815995201488,-16.533135996517334,-27.504883955049827,-37.568311136636225,-46.43013653489727,-57.27367280752648,-71.4158129692076,-83.6838081828126,-83.27399343343679,-64.73192754471074,-38.87418499056942,-18.10674285955252,-1.4759537694733262,14.719643356972728,27.581242784274153,36.762545138083496,45.495788805764526,52.05492484316086,53.40694818844493,51.46311397093085,48.6936187640744,45.65025336070029,43.87125572433176,45.30018579177388,46.1917476349721,41.26723824369022,32.47169965693912,23.616841710556876,13.955718839119958,3.4643399255646603,-6.089085494557263,-16.183873524055336,-26.64020138122811,-36.15312519784444,-47.89616303190649,-62.096825057638476,-73.90161133774816,-81.00636721314487,-88.12626975918154,-95.14659152004351,-89.10903183245442,-65.26470957888945,-35.89770828800822,-12.223414591070329,5.011574283687568,19.495685296775964,32.905809446604046,43.97074261307766,50.77409436371392,54.9003056954794,58.17788913122708,61.36300939791611,65.50512977889464,69.18039078614093,69.5865738381741,65.89878700004927,58.6123124993186,49.826996343434054,40.024549001404864,28.046001159349736,16.382628536076187,7.399313788735221,-1.5554045583725842,-13.054818760200165,-24.53255248306674,-33.03669569119758,-41.936347424564495,-55.65643120655219,-72.0361964055005,-86.85248937498542,-99.7687487954347,-108.8694830193817,-103.17780860253231,-79.09691623257554,-50.268922289254185,-26.69235910977296,-6.3981195846401855,12.145830367535545,28.001671725079934,40.517267212868674,49.318438138218404,54.47095880257665,55.81483995420989,53.87364258822088,52.176118145527155,53.35314094117159,55.75167792419355,56.77895755784189,55.17456526609439,50.98886694933537,44.6433419850656,36.214274145915,24.60194954956625,11.572477718737378,0.3961124831532566,-9.394487524613417,-19.173715348798318,-27.291251239257907,-34.41553369204866,-45.05947700267221,-59.04348856301559,-72.70687108627743,-85.25262534059868,-92.66754573159048,-84.9585194425195,-60.50172920518551,-30.5710374914964,-7.438412768556789,5.830632556817577,15.309414423956751,26.465900529249822,37.76476611320167,44.87082797143585,47.472946411512105,48.01018022671528,48.54750803410484,49.98509576869177,50.5569628070765,49.33956641945571,46.83800441627231,43.00222377437414,38.02802538938556,31.15404395813756,21.940499815331783,10.989790696983366,-0.8227333879328041,-11.416323881491525,-21.6383290932011,-35.07366820547714,-49.433767160911096,-59.54225848680635,-69.92112028950163,-88.30104734445452,-104.86055739459596,-100.3168597674752,-75.10651371761386,-46.15495940095477,-21.58178693129398,-1.9389842353227948,12.26007989580465,24.02415725902945,36.89883913420768,49.11670553187635,55.49597210555944,56.332988142686226,58.09679955396602,61.65524366998177,62.7431369944864,61.14994797117958,58.91408821574191,55.27422116518669,50.84990501416238,46.57865137320608,39.112095275151695,26.116554597261686,10.919191215509803,-1.9791019999027195,-12.562599160271537,-23.831248258328174,-36.73972477805948,-50.34348809100337,-64.60668535889401,-79.88728807503169,-94.94627058723319,-107.13247051500157,-112.03915689455354,-101.42220191755591,-72.84399889622188,-39.67463144023693,-17.138951493136126,-4.075526674087054,9.829824810994285,28.146865132796535,45.683834398489424,56.00899960318174,58.534438267561335,59.04600883252161,63.38692497294578,68.29731786371322,66.57704450019371,59.9977053018667,54.54289747696555,51.299741457989875,48.420235547090606,44.328301951322196,37.422930695790576,28.92076874095311,20.780864780337737,10.423552606158243,-3.086575831569867,-16.596110751481948,-29.821287695393863,-42.64724181116578,59.0,95.0,60.0
-61.11079050580959,-75.56308471125745,-85.36809151468441,-79.59034350458538,-57.27276744925385,-32.14480019205831,-13.154706108662875,3.291088944302804,18.933894589490496,30.44965888471924,39.2807525076585,47.81977803059602,52.977906462967916,53.03479562680486,50.699021143579834,47.827206080584745,44.871897951220376,43.98423585188634,45.92259512833418,45.4346976290798,38.88680940609706,29.878994362530484,20.98974642734789,10.902658103812769,0.6156460238263256,-8.863732727248312,-19.287694724193244,-29.409758612923337,-39.16612594701864,-51.91944749232664,-65.97894240566967,-76.33713595673714,-82.79973854018209,-90.58791829798102,-95.3410802605578,-83.71101773974878,-56.66733725752828,-28.25722470092591,-6.745502490786559,9.349330384413456,23.47940326088124,36.46661569049451,46.371001682670325,52.120881913507716,55.90532075127029,59.05393260982031,62.45394807974121,66.75834283847581,69.7079064557908,68.94326333501039,64.09484662992553,56.13354030331404,47.17332241366483,36.762147790481485,24.459480809446042,13.543634570060815,4.997710017207071,-4.632262066134033,-16.58192844821402,-27.274302362234177,-35.29234313190377,-45.367858371163535,-60.34322543520689,-76.57607492164118,-90.71915490317566,-103.13877078402757,-109.27134807697925,-97.72308653804855,-70.53013946932475,-42.87883531720406,-20.647053755730887,-0.826110615116776,17.04030500853756,31.98313610473089,43.44608012169348,51.17768453481356,55.266876491467734,55.49389187206512,53.15966729276111,52.23124581162318,54.0494003011585,56.27736884360435,56.597767411851116,54.21769662883435,49.34818935231973,42.46872438903264,33.19764117946895,20.803767838728135,8.090764699908215,-2.470079634094972,-12.24882747360207,-21.774896020886697,-29.26248537537621,-36.98672107755667,-48.939601603224936,-63.11254069417539,-76.46503628505458,-88.33334530085277,-92.3615357734896,-79.28010542460981,-51.77757636314047,-22.82869552283527,-2.751037721978125,8.610551639097018,18.292906568803268,29.932470013813944,40.36294406686418,45.98441888354339,47.74124582584643,48.0811677293719,48.90961303000992,50.33498732550935,50.361290437373086,48.748096859716185,45.859361485361774,41.6888162327399,36.29041425496923,28.704857525362204,18.938282671731894,7.58113740194245,-4.074101619622841,-14.234753028450017,-25.121111523992,-39.423944519136974,-52.84085161350423,-62.029601598784005,-74.40905174113759,-94.213343797316,-106.24409330369613,-94.46390942651402,-66.482682765583,-38.56641281319794,-15.35575354071244,2.6746947791383464,15.693491779956977,27.58747195761853,40.72207976686115,51.731210408668474,56.044818002412036,56.524635915271,59.123965698771954,62.354679055793504,62.432620828372166,60.56314276091091,58.048885493279926,53.973255602051516,49.67691479612616,44.94611293724042,35.87895086124575,21.70534455471412,6.854419935363068,-5.154850592014504,-15.633918356727541,-27.43614074222503,-40.6214887037345,-54.37463785082604,-68.92666969451291,-84.36800499279346,-98.8943426033611,-109.60204612920508,-110.94014072029013,-94.69379717843468,-62.880152066450826,-31.757183105077612,-12.851550576133448,-0.504051058137128,14.777252340645484,33.63814769622693,49.5738486960967,57.37921038043532,58.54237790705447,59.832829326036595,65.13774801899255,68.61215238203185,64.87300959180652,58.145001368319114,53.4551888598464,50.50157771413417,47.441402897525535,42.65445057290801,34.97975322258459,26.57269775459183,18.170968239781846,6.722685296787015,-7.091989200196329,-20.378720134312687,-33.68265288566472,-45.86227108760102,-54.810111724175094,-63.97858510209564,-80.05004426878703,-101.16375669134526,-112.32912819306577,-100.06924883878759,-70.50491182658958,-41.23283039794813,-18.557351447183976,2.723358843257476,22.550659296472706,35.99625125177026,44.30745168301574,50.86019578735442,54.379710336866566,53.16553518112559,49.46058741492981,47.66308104494107,48.367492244452,49.19912371471916,48.79888936000118,44.400961231011955,35.72108152303049,26.86501946993706,19.387615839921207,10.87590466272794,1.1188912124164023,-7.99436494567707,-18.211112244982424,-31.332492392155075,-44.39822815378722,-55.40181604967941,-67.56942177242144,-83.12780227947,-94.593951189746,-89.3030201134342,-66.15937910827355,-38.04037311511654,-16.33937117937114,-1.0951901168157054,13.698880554355839,30.328230724862642,44.46677922762641,51.1669906594863,52.10692467003557,53.59606641740338,56.883562333143075,59.06015693320855,59.11036787319633,56.98794931303305,52.31776948263755,46.880527082267335,41.23441966215684,32.71674976272187,22.485224543080363,13.754919142434618,5.327979086340202,-4.688964470405582,-15.893815337424794,-29.11064395579519,-44.305560371529445,-57.6418485147543,59.0,95.0,60.0
-65.12782839664858,-80.90483930760679,-94.47414272864721,-106.06416537783043,-108.08283290320108,-90.8497283519981,-62.018442035530335,-36.007273218033326,-14.767499584654571,4.587709410706588,21.686628095749473,35.67343616639491,46.05876804725366,52.73818804295581,55.732127272101245,54.9308158205131,52.58785164322569,52.54360452742849,54.77609990367197,56.63305840033293,56.184116364601074,53.052228974310786,47.54405322707892,40.10492104725718,29.8850052705057,16.982769361386623,4.823336692553519,-5.279321275590394,-15.109196874614545,-24.16799275089124,-31.233564445744282,-39.96937050243589,-53.00775876307756,-67.08181653921832,-80.14817050087491,-90.79677537096768,-90.52698695194594,-72.32360452352175,-42.95488298407534,-15.904938910092111,1.157229066637937,11.280368890483565,21.493150786100234,33.29919249485253,42.520302599273414,46.76924053311314,47.89546717172243,48.20287108383016,49.343236390933264,50.54772848901081,50.027266337122924,48.05469797838236,44.76879796390699,40.28625239400962,34.35891061481199,26.071572679696665,15.800167976070163,4.135949018072224,-7.1651875421157945,-17.10248961652667,-28.955311898542693,-43.697217756222976,-55.79852665569489,-64.79661869687516,-79.6827330499392,-99.49272180934182,-105.43752851695226,-87.19913006352463,-57.97861414429729,-31.383301240441188,-9.55873284909713,6.833398205488905,19.045413319133363,31.298515966083052,44.382952331615556,53.72434072709158,56.24326018970893,56.96336498563221,60.21966127375793,62.74193234708651,61.96361259409961,59.947739729421365,57.02504388749225,52.66648576822522,48.50305390729755,42.92474377377273,32.17716330230351,17.246599148898085,3.064963266309212,-8.190724928425519,-18.843102920363403,-31.159378209324775,-44.54233971661986,-58.470580763124225,-73.33860422123993,-88.77529321068548,-102.5385830642658,-111.32619186863711,-108.29817344398377,-86.54794512972796,-53.00869960791392,-25.00396668400863,-9.12877123000149,3.3830738547177313,20.074736270317853,38.87284782948058,52.73732859810462,58.154985011032046,58.57616698612918,61.03972469239295,66.73167005007942,68.23965823047776,62.9213292478155,56.50771027069209,52.51771035459871,49.69076241800752,46.32214412790905,40.706044753013934,32.48740769064306,24.263671459168,15.270221445521928,2.803440562526517,-11.012590884402947,-24.185277911848075,-37.46140143692729,-48.7637340634886,-57.11724873446405,-67.72958722415042,-86.0947739939629,-106.24226515900453,-111.35734551091784,-92.5273218487888,-61.390188406202455,-34.165475905211636,-12.46717746954893,8.849758003474296,27.188080124450288,38.71425694812955,46.35644182621643,52.31217495356313,54.50405065127962,52.1483245795913,48.6049812378669,47.72103496744413,48.65948268305722,49.29969762339712,48.063257991598626,42.187810248613864,33.00449015703666,24.637610662401965,17.13827017374617,8.075943482505103,-1.5857809085521577,-10.679373679061591,-21.757467166339737,-35.29535119288672,-47.733338662044616,-58.582310009904724,-71.82817844969927,-87.4550654473743,-95.18145220650335,-84.04001698010885,-57.86768840672599,-30.891527656545787,-11.516263511319176,2.9880539729268376,18.408469010961134,34.94954981407962,47.26028806352721,51.746614302001674,52.28088459781214,54.476675431105086,57.73154291923175,59.27700949894928,58.75279900327629,55.86967384216261,50.71421702345527,45.37770501801609,39.137595139103276,29.75100058733452,19.769746158440427,11.425587505737376,2.5951815456112812,-7.809655963634621,-19.43574484628747,-33.41854264108445,-48.533247315124974,-60.73542157144381,-69.53722285040259,-79.08510467300967,-93.25630701328292,-106.39176802989503,-103.94681697980809,-79.02905864384496,-43.77048754581734,-15.895730135938383,0.11791134197190747,12.78178555372569,27.28013681164043,39.337613095932994,45.810929506364545,49.21602448622654,51.8752076440738,52.96243259256293,53.04567288653493,55.729245851141286,60.96730921318779,62.6252031585052,58.29817211753227,51.80807844988174,45.12825441656016,37.474458545105236,29.285498933278348,20.95716866184336,9.529307915256737,-5.1523164389089615,-18.747915512254092,-30.064119909733872,-39.91362604753512,-48.11280090994596,-57.01967941748369,-68.8097412375588,-81.83290972188499,-91.04533890723793,-88.32608659445391,-70.36602176717032,-44.512249112583795,-21.0219802339228,-4.220420910989949,8.992517655247804,21.542372694456894,31.551372240327066,38.134787104561326,42.10527849824864,43.34158650955417,43.04631669641043,42.61311742119898,42.216478039817495,41.3750771413054,39.92662784901148,39.027470044207654,37.534019331389096,31.97472291245677,22.788423048049037,13.037587661950566,3.7704055068373927,-4.574735835696844,-12.142403547811085,-21.161314033799297,-31.8323254415161,59.0,95.0,60.0
-58.405201579859614,-68.13159180036557,-85.52235014656682,-103.54964113552839,-102.41151504939226,-79.03526704005932,-49.794107775268394,-24.586472593250754,-4.230424314865939,10.614375138237373,22.42938556125495,35.12067825664956,47.7254649797978,55.07516163807038,56.298969969495346,57.6816539503459,61.2437305022825,62.80918423667193,61.41466615316331,59.26508258135996,55.85304975036714,51.4077529999411,47.2310628343665,40.43211199454555,28.094096926111234,12.874770650969033,-0.44586023280585035,-11.177177191900793,-22.218862369837364,-34.96518441896388,-48.502708737426794,-62.64858827915099,-77.81459270649263,-93.04333000088242,-105.79326856334784,-112.0837832314621,-103.98236641588382,-77.33243258846414,-43.68481340771728,-19.387827359420914,-5.66445280876502,7.691737753453117,25.58393553317609,43.66597410494574,55.14678900056662,58.4839991627021,58.82084410469491,62.594962479412885,67.9311311065216,67.2267201094571,60.90543498092613,55.11018882734168,51.672682686056014,48.837187318744604,45.011120802953464,38.5056506440963,30.029071279402455,21.910186575782735,12.03072521014449,-1.2234905485170886,-14.847390322154954,-28.03589463076063,-41.06662978696742,-51.36898240084708,-59.602882167284434,-72.21295324714447,-92.37853641523184,-110.01163113504,-108.22090204859454,-83.92500606407698,-52.728511881702666,-27.60945175359118,-6.331486464694774,14.735257253240496,31.19292322419441,41.119861253308,48.30270746988972,53.437530073439746,54.215389085284635,51.02520083822701,48.01404857575901,47.93626175576595,48.91534878819411,49.26513585031555,46.90369717989829,39.673679559781945,30.39334417972179,22.503744631099224,14.724171181291991,5.224250952311104,-4.20655710700329,-13.54745711393546,-25.54816207053923,-39.1380819979383,-50.896898128437506,-61.990852037460975,-76.3663333708691,-91.13817311005951,-94.07358690856009,-77.44560771675403,-49.55839398251884,-24.46189676524372,-7.1184864879062175,7.191896437954389,23.254247546482492,39.20561771225494,49.3405082590238,51.981163539932965,52.64929407507225,55.45921353687024,58.411103600320736,59.32622644285721,58.199199415319605,54.53758707514754,49.12131312067369,43.81827617390218,36.73011406088925,26.740308294990054,17.231731430888455,9.040517484582537,-0.2826984205649572,-11.012577166023755,-23.19323892909995,-37.8499033029713,-52.484892499952544,-63.51353982820835,-71.96768439529795,-82.70508325958998,-97.73102511473449,-107.91466918626564,-98.85644266044842,-69.02284658396039,-34.4160575456808,-10.296504176892816,3.683054700699472,16.855252009343154,31.276880429422448,41.74153172615229,46.947630763882266,50.05232310286321,52.41157617193567,52.94335335467543,53.42341280378453,57.1792976192704,62.097923932885834,61.861785101379816,56.476991921523094,49.91499410769491,43.044415932196756,35.09493074158528,26.97490696033093,18.11413321224918,5.446254726593154,-9.343647369060237,-22.197430005533892,-33.06985639068151,-42.41787368027535,-50.45042317642808,-60.138663927261064,-72.5954944148549,-85.21720062385033,-91.82241667411088,-84.55891109058216,-63.20295201580298,-37.139767165944,-15.503383095372817,-0.2648496455521796,12.715686003231529,24.799836804341275,33.76358559951762,39.54591947037323,42.73311649576155,43.32309226687969,42.91373479290861,42.5031834575771,42.05298773039629,40.979101029770135,39.57523735889469,38.820178602266466,36.43537250676209,29.549593872918262,19.93587562686354,10.305060409658918,1.2312750401096066,-6.767035337121711,-14.50208801596655,-24.193285163509188,-34.7369811748085,-43.122449837098124,-51.38492746337417,-61.86265559747632,-69.09101188441782,-65.02554003711624,-48.7330972423286,-27.884491171619537,-9.00886806639345,7.1383471947529,20.12767057385137,27.96536557861588,31.73034332474323,35.85970003630887,39.02227922638251,37.55933240575547,34.02363824689162,31.92692045977726,31.037140839045797,29.582505368835506,27.950561183222323,26.24657807540253,21.90814638221399,15.273112363514384,9.08270299117084,3.3321589542794947,-4.024118388614753,-12.120881572598906,-20.202082976480554,-29.62121358364304,-38.86729809290945,-45.603923275208366,-53.129135341996395,-65.62655666792779,-76.35658975521021,-72.29704874943158,-50.98820310166958,-23.867796000778757,-2.7739969937111435,11.039582592649861,21.5372999272623,30.226940388429547,37.10908791264966,42.964301354094516,47.282521764180956,47.53222414301759,43.30802085257308,40.13707044487681,41.23213064589925,42.23696656974731,41.01403742477052,39.1470835164731,34.70746455733617,26.202449777990775,18.166020916001315,13.386051240179013,5.873445858344692,-7.423330014692703,-20.479507032697658,-28.98430701820294,-34.896824232469726,-41.81274834140369,-49.439443461285954,59.0,95.0,60.0
-44.41807294518083,-53.752051525432016,-62.47295145152951,-77.42700804222773,-98.51213672881383,-112.05603210877494,-103.05505693480885,-74.77359338286294,-44.703474956969764,-21.376111287652783,-0.13541732773861656,20.207338749292568,34.6011288460776,43.33067246700802,50.10048168411444,54.17839145136995,53.56476010312983,49.92551822366983,47.7114040150252,48.22696007685759,49.123420227622645,49.013874470783065,45.29164399759562,36.98388157363732,27.9400347878455,20.384011632783025,12.127885340412893,2.397558252631701,-6.7923663211685685,-16.672591227953422,-29.493238033585246,-42.78896040578051,-53.97708126612054,-65.7248177962247,-81.01524861719142,-93.8042417877461,-91.20312314918799,-69.87207364819257,-41.556239829679214,-18.750463040794664,-2.9710315515323,11.594618937113493,28.119212476794964,42.94826684244088,50.73257348171573,52.06697996000864,53.24738855523247,56.449529705178755,58.899443566964806,59.21596657361321,57.42442191162752,53.04257006578024,47.576757767703285,42.10356634497831,34.03594579241235,23.796294024918236,14.833046979030783,6.534531920520064,-3.2770732580629525,-14.32137093234341,-27.189788339429253,-42.29051447150739,-56.09745585108028,-66.04861760479906,-74.60130351027189,-86.7707334901542,-101.84852589393455,-107.73663523270812,-91.89285734031901,-58.62841010323437,-26.058938091233557,-5.6129238071826,7.248152851446736,21.09130354074395,34.903285673010664,43.672223145079855,47.92657678474983,50.85001133388825,52.76743649253253,52.90507299494585,54.115121061071065,58.770696193038916,62.73558123247096,60.642428251676115,54.58652814020346,48.00893316266607,40.85101965860447,32.711068888309505,24.633003807827087,14.908045924016408,1.1658544350351732,-13.332696690831193,-25.483386883869674,-35.95833089165488,-44.779511909430695,-52.946387836440664,-63.51285815916111,-76.4165449628643,-88.12228739053606,-91.38418253541379,-79.53924643038499,-55.65599448549184,-30.185804423761454,-10.571309717000142,3.5323405474560357,16.394470843219864,27.77209938221009,35.70649838455947,40.751310434489845,43.12428181958156,43.23151059473095,42.78608616706433,42.39511053931784,41.83110995378178,40.544336387544874,39.30775208977783,38.485322661695896,34.91774855210629,26.89280775675113,17.103684106994336,7.612691263622088,-1.208214937416622,-8.920971592669042,-17.053185423488152,-27.31877109119842,-37.41286721646768,-45.31543277975269,-54.271869266313765,-64.68726418228474,-69.3132804602848,-61.34605733024128,-42.76404635263668,-22.123992072310394,-4.081761457207795,11.29156994322139,22.990791673648797,29.26253759975669,32.783498554377374,37.107711397403975,39.079505658141805,36.53425393088539,33.21506285676751,31.629488677370038,30.71728413955788,29.057064983242437,27.569924896595474,25.338604936417035,20.105168339453442,13.35501801887923,7.480167990023719,1.4014380306470178,-6.381237130497615,-14.40021141197727,-22.76662364376928,-32.469135306112,-41.05568365047374,-47.4137871656224,-56.259783019826244,-69.51820665426135,-77.12361049759488,-67.5978214433521,-43.07915093406989,-16.890427853321725,1.7937462236038986,14.275518777621361,24.244271931753723,32.37279124302452,38.88331075085361,44.45628756606973,47.89251532912148,46.62033318235577,41.98314306067205,40.1152977934479,41.76384548363876,42.03130243915063,40.540467187234015,38.28836781753215,32.57047068885851,23.554661097663498,16.58363605194967,11.836441496549682,2.45944976923594,-11.533743271765378,-23.42053028973179,-30.763134505450992,-36.722954760504166,-44.026103271750195,-51.61839544555911,-59.98239389658464,-70.45806881500351,-79.24223270481859,-77.45295697259932,-60.336189171849156,-34.343700182072695,-10.802318457813673,3.0213252868308533,10.415809995909028,18.650406414570824,28.034959192825983,33.22683813254348,34.28747637764957,36.83131861035995,41.26851091099437,44.35244913245972,45.184246346102796,44.48470692091493,42.305516624480155,38.835757324812,35.87881888604543,33.793618581783214,29.178368272380975,21.300274242656744,11.824172967412029,0.8439977460364322,-9.835259967647438,-17.122877483093816,-22.80324604760486,-31.47194971275846,-42.518686410062415,-50.512388274496594,-56.10529789861927,-65.01481816245298,-71.62287183905795,-62.75544260750545,-40.15238322303821,-17.427032775200495,-1.3882478566954317,9.455059226228116,18.855842300266687,27.460965380850457,31.76128037575222,32.62012999496266,34.28283792377292,37.31533846823629,39.857121883778646,39.35392033448827,35.947733471909594,32.46256201606988,29.862294548967522,28.7428575330895,27.162749324096474,20.41830978148554,8.99663126974934,-2.595437107515553,-12.078008241453775,-19.36065646360221,-25.617031633356827,-32.77783070968382,-40.89203930804035,-48.50837312740446,59.0,95.0,60.0
-59.35149524016013,-68.44443793078166,-77.5726864089823,-91.17089105254901,-105.21076437309584,-105.61354479842228,-83.36851107439179,-48.347514717235,-18.83779135726135,-1.5919341774809808,10.98134288433461,25.35298582718615,38.05685335381508,45.208592433391935,48.819917048757155,51.57702166187753,52.9374577019219,52.95915814580853,55.146180416975874,60.32207482218316,62.79523663003286,59.09085612473609,52.68297373571633,46.0551586917722,38.557537661229695,30.3574048900904,22.166606456123237,11.311195962427231,-3.1712239157698727,-17.090867598816857,-28.64327816845057,-38.70310658727228,-47.061986550959816,-55.673259508024465,-67.1001944955858,-80.1656497778611,-90.32773315253279,-89.60856615472683,-73.4582383561567,-48.00501857692724,-23.774587415406508,-6.134801361165725,7.2724519637600284,19.95943834471692,30.431264348321093,37.41679244670034,41.73311479075286,43.31079737943368,43.10738010429865,42.66590942551764,42.27812655985378,41.53624681416495,40.112352585847816,39.109457301008085,37.909451214095974,32.98906920140034,24.09905337037319,14.31091657161296,4.968494372767359,-3.536712592542657,-11.104725951763209,-19.81809115299223,-30.43197580471019,-39.853392285223805,-47.620000259225684,-57.34382856718494,-67.02454376928578,-68.41946421627443,-56.7258432261473,-36.66281188199401,-16.61450161795734,0.6344108958651264,15.150307282489493,25.362475339372985,30.31623653937692,33.96854723583289,38.14790809668577,38.70648927219139,35.46218745531804,32.57628398862823,31.393101931490943,30.308664446827116,28.56451154343888,27.142678311668504,24.145563657333703,18.167529646188314,11.540896893164435,5.866137296354333,-0.7037923952659203,-8.739373816618007,-16.69719272854288,-25.478140652893845,-35.21501982971416,-43.00538509079832,-49.44582655031013,-59.860583186227586,-72.95003726084776,-76.35475292046564,-61.56226377750242,-35.06753462314771,-10.623079978960872,5.8338157183380455,17.33075007109053,26.797035059951828,34.376454784002725,40.59439388858443,45.78431802517234,48.082596152591535,45.379660420218926,40.937258313206726,40.43835604568368,42.13014920820155,41.67013810943602,40.04233143828775,37.1169027730922,30.109099954281806,21.118906790901022,15.255409627908113,9.83525561180821,-1.3941929637759296,-15.427069999954313,-25.94140431418918,-32.42976875559364,-38.69907277375463,-46.24390789187437,-53.85094756626473,-62.83085529772233,-73.50953208707277,-80.21212869819553,-73.99317084309814,-53.24785700738539,-26.81324911520539,-5.747007921630638,5.449713808762142,12.516239422666164,21.454220934880276,30.155066326383903,33.70981944327018,34.704226294687714,38.0645903500281,42.40529980193212,44.787503188444894,45.12587937835222,44.014473655510386,41.39122608158355,37.8262910635748,35.306090540213944,32.85430459854382,27.151147693389937,18.6980748119266,8.799070772078673,-2.4416796214926237,-12.334304146741491,-18.708268314334497,-24.87353610250847,-34.64679142444245,-45.31750487992358,-52.08641539257705,-58.257984108460505,-67.80661753042106,-70.98529906992395,-57.06231676854243,-33.08371213062321,-12.070558896233539,2.10921836569835,12.184748502310939,21.55166415994294,29.261686697217655,32.14604445905796,32.91453680161562,35.07596071187205,38.21429016894817,40.10899871029914,38.54312011025232,34.863083441767415,31.60523459661881,29.372768575216952,28.555714088914772,25.86784352958948,17.40711364764636,5.497123057365529,-5.576573804780255,-14.38626257181582,-21.181073825212284,-27.540652693454806,-35.08146972206575,-43.19254601567727,-50.62369137448133,-59.36909564555745,-69.67657246713475,-70.74979268621051,-54.453528108445255,-28.90735876916014,-5.931771527465644,8.723721505734144,16.917899141772676,25.043086396681527,33.55537637387255,38.17912098794277,39.42200103659672,38.89022686097205,36.942739328602066,36.34214844793985,37.86981912427419,39.057985752149484,38.55955745105633,36.695183176147765,33.46954069592176,28.780632652602225,22.457271151079258,14.010363608922841,5.049137860821903,-2.6514873475081595,-9.976509232204437,-18.279414901435807,-26.961717903090538,-37.18751143041108,-48.65881012365552,-56.68606116760136,-63.00494167184961,-73.9640000771083,-83.350871019125,-76.6114090846851,-53.1661916748717,-28.25969692215989,-10.280348080660504,5.286724081864566,21.14707169261468,32.69610242803968,37.922914161370734,41.12754601557092,44.62119444168107,45.25572559784694,43.483198277770164,43.208144491326635,44.58903074886957,45.35802739302521,44.08590977246145,40.220821267027205,34.71389295910314,29.712236050948732,24.608941780236986,17.16962321399527,10.310561478246397,5.225905184661043,-2.4382593690994687,-12.561824787539045,-21.952057177922658,-31.125893247139935,-41.01544359354199,59.0,95.0,60.0
-33.42356625633723,-42.113504845214464,-50.13766061290199,-60.46190198029902,-68.64361301677735,-66.36103505203074,-51.37687383599357,-30.616706108355327,-11.354584402457773,5.138131793267693,18.65212489879872,27.246394891469528,31.278984025174978,35.25640920319812,38.84375313359488,37.980967397628554,34.44948477609695,32.09952482846292,31.159234853190696,29.82263669717606,28.131757530548303,26.577468503326266,22.672005325434572,16.18195111948838,9.837519549596248,4.164300068586612,-2.953377554063258,-11.06304169071205,-19.068824458076133,-28.301214003033028,-37.770556731378456,-44.79629655847818,-51.857582099220394,-63.78058221135291,-75.54198627786428,-73.95156247174802,-54.494440433330325,-27.294688106161907,-5.089859593202857,9.468680867207249,20.24133159826564,29.18353069134657,36.26725740758439,42.23650364174485,46.87862345812293,47.8120584508713,43.966056735136895,40.28842738574269,40.96586341908432,42.25995920715779,41.228507650116,39.46429697573589,35.56179592086837,27.450074807049198,19.01226175543298,14.001047420731558,7.26177753926654,-5.501533165138533,-18.9786072631019,-28.09322939739415,-34.09952299217842,-40.80823563822465,-48.436525383626496,-56.20553447114963,-65.86544257597143,-76.26090104015412,-80.0482024925516,-69.24009261340045,-45.67471059731666,-19.77211065776399,-1.5997196431210559,7.535393861883435,14.837661884303326,24.265459587904722,31.77669532676505,33.95979614162516,35.37816941969288,39.38566020165597,43.352470933794706,45.05108354507039,44.95159260563756,43.41633477569101,40.380495069658394,36.9286913075412,34.76342549393081,31.603712517450393,24.892498179921244,15.992310431900261,5.63495675858644,-5.614958956643681,-14.491440074469683,-20.271152892282043,-27.299158919225384,-37.919414262000295,-47.71734058226006,-53.59418372943635,-60.815031085607316,-70.08161395489257,-68.76589871224647,-50.49280789150967,-26.342698342389973,-7.325491285219567,5.259918357674783,14.887540852447636,24.13663107300478,30.599471124880576,32.35435962831969,33.35781270888907,35.9584197515248,39.0151526859144,40.04038344513116,37.54665546306053,33.83667084095795,30.82244243780045,29.034551362886354,28.223131279459842,24.035155595997367,14.096270710498082,2.094243753624092,-8.36175419631513,-16.51659062109511,-22.962045650959613,-29.582508663640816,-37.44026926486873,-45.406967239766594,-52.84798120039515,-62.461813593181255,-71.56737927680553,-67.73798785895823,-47.417806335598115,-21.623935601415987,-0.7659261525993452,11.472930873751059,19.067406839592476,27.668387211976537,35.38590601861556,38.7563831269211,39.4607989366782,38.388871936068874,36.502834218123056,36.65289816304582,38.35462936493012,39.08706108932546,38.14285377055008,35.92039292722364,32.25397567606407,27.15913842979802,20.21107104106691,11.360651610350713,2.6788709548259857,-4.712082198030093,-12.281689315870391,-20.758941426777046,-29.661222154891725,-40.55727312411028,-51.47863157945185,-58.33456729014104,-65.63967537085573,-77.50334083065377,-83.52123969022153,-71.00463161829974,-45.44381431651107,-22.403119279342416,-5.824839290560464,9.965044865917195,25.157457510286537,34.74350061354,38.822413574998855,42.20310379596336,45.21644608321273,44.806419221263745,43.14273770478194,43.54088926511641,44.95328698161303,45.246072243141654,43.22649666518756,38.70951142270538,33.147358498521456,28.39418753833547,22.674992443869577,14.930220355705726,8.817693716029039,3.4283602251426664,-5.292959866741577,-15.391678557375238,-24.556167400598177,-33.90315593503564,-43.972692682563995,-53.805562593252766,-62.84868369302496,-73.45660516818495,-83.72995461513977,-83.0495612625504,-64.94369276621754,-38.92530605490259,-17.67970485004892,-2.8049706121566067,9.284585814308766,20.460513114214866,31.844456212548266,42.94586784806914,48.48982014481523,47.60126917711331,47.19762614883315,49.611019026084804,49.88734193080835,46.403141429821886,43.15692019976532,41.70578475272009,38.46233906177347,31.37603229624047,22.99868620495072,14.927660108309873,6.326349654645723,-2.1254437914414366,-10.680314921521813,-21.228518571173623,-32.435879346594156,-42.35185592640907,-50.319769076534655,-56.257145973076085,-64.40744078717773,-76.26893652789602,-83.47982748040972,-74.8678285101224,-49.66036796355498,-20.127017113336407,0.8313091564055656,11.53940624534321,18.053064216412444,26.211690099784008,37.06022670358742,45.802330290875055,48.4084198508288,47.27121618254876,47.2519856664583,50.92941631792805,56.45400195685535,58.79420589605311,53.491455119591336,42.728394367220744,33.240189144946406,26.493303637188493,19.047876436082152,9.590006026179761,-1.158261070165587,-12.022062401037244,-22.852233339290866,-34.6090781734864,-47.278230365317704,59.0,95.0,60.0
-50.61106688369805,-58.7416985702938,-69.00734849617822,-78.47389021782206,-78.58741447264397,-63.362007588293466,-37.908707866039315,-13.43917264280125,1.7236869093295188,9.49880799704245,17.399817683723118,26.915235728140917,32.8785973415296,34.162516387617174,36.31920886810271,40.694506488331776,44.08592621934937,45.171397989724824,44.65978258581711,42.686288867780256,39.32208564076497,36.17726469956432,34.140097859990796,30.017814039176653,22.463805387512956,13.170172487347962,2.3672850586974503,-8.570411612665149,-16.34624452896981,-21.95245411194088,-30.08311053158371,-41.11698827351843,-49.71032665119179,-55.24488807227421,-63.666472989005115,-71.42254975069949,-64.9810496267901,-43.45098573244569,-20.105135130171682,-3.145448515669331,8.168010640043608,17.601685843540782,26.48938050666645,31.485074385322775,32.52379797392439,33.957689121771224,36.88622317658735,39.64490903630696,39.64143150805965,36.457562529844225,32.88038395303332,30.13694033338601,28.81983252949797,27.592454471606207,21.67110245391913,10.61979314059332,-1.1566690701548004,-10.950171294520478,-18.492202812872158,-24.763946709969126,-31.74460822828341,-39.80955116347835,-47.54024114209253,-55.288684867555155,-65.60799203678,-72.30334197034867,-63.22929023652345,-39.949340099215256,-14.794122420383568,3.6242161890687816,13.81644649629023,21.36961048788612,30.230675738218775,36.800630529550425,39.13116959819512,39.3504288182071,37.79559887671465,36.26612085911496,37.107012929536346,38.741164188477846,38.96818199639819,37.62740381724162,35.020304341848174,30.924168704144456,25.383486663022996,17.784574937106832,8.73381902720915,0.4392408798599726,-6.7948170688173635,-14.680205456237452,-23.243491873673587,-32.55926163595892,-43.95926516420695,-53.87702016896142,-60.01501710703291,-68.77991370487416,-80.58068566715838,-81.99323992837216,-64.22914662608784,-38.0356220671008,-17.162093944682386,-1.3794701011836956,14.63752238101436,28.65299301860677,36.2912820056259,39.70380923384292,43.281707566612845,45.472789544561124,44.245609599042155,43.014498065289175,43.96016164458956,45.21726345546963,44.934912593303636,42.148208890834404,37.10103656229901,31.683528973196697,26.993769034463735,20.5189238998809,12.873640557270235,7.416929118921581,1.2899968964691553,-8.25833615706088,-18.111377298762648,-27.186762367407983,-36.74971380400505,-46.912632907993995,-56.43077478315758,-65.6604222343821,-76.80630313558,-85.19890351563328,-79.47879308729452,-57.534989907434046,-32.010813976269134,-12.881029811763218,0.8423121267216328,12.571931720105079,23.66622617117129,35.251009145714136,45.35578338919284,48.65373242236629,47.136579874388325,47.766308284496525,50.12944476006689,49.14003673162191,45.25528169047767,42.650748249368675,41.142616478726794,36.75348885602462,28.943908332237093,20.66605959593165,12.507618028214704,3.8137221164711903,-4.484112326079481,-13.507341762515265,-24.52580014249279,-35.458836232486824,-44.90499729521595,-52.13742445043054,-58.15369625523796,-67.64433071927665,-79.3897845607199,-82.93887671789838,-68.93195376825982,-40.86483088429327,-12.874943689646217,4.770633023481034,13.544487770043776,20.072394922042786,29.19671862597093,40.081674017623136,47.19398038344685,48.243167807643474,46.96520243955266,47.93024651990895,52.520110250212404,57.71623314888068,58.11490525630609,50.645630977390226,39.62865377030228,31.14344638046017,24.540622547141623,16.506017312562104,6.56404931745372,-4.322121145962181,-15.124175849131198,-26.104590572595654,-38.263378994197296,-50.704804984132046,-60.23611057129128,-67.28030288134664,-77.31394800230176,-92.79905027001098,-103.95196495791473,-95.60762504409166,-65.98481106778117,-31.11850933212921,-5.848023417310641,10.726412336319335,26.427770959854794,41.03900876875866,49.99175352835634,54.329500059271396,57.18523106553236,58.332810350323065,57.57473007419442,57.8157442631384,60.08388578252791,61.73897869384198,59.88509713059855,54.25284631993079,47.56538770679305,40.813763095352186,30.66978796940256,16.9867944989316,5.919959060149464,-1.599110315756731,-10.580289715550311,-21.913599640848986,-33.4282306909405,-45.279314483943864,-58.79740701106253,-73.07863815998022,-87.00135106955666,-101.79662180344452,-113.50595039949886,-109.0839607315857,-83.22415491144785,-49.125838087718634,-21.858057994580566,-2.3959321923271317,15.312728857998442,31.062158727588944,42.06217499890458,51.182108148298205,59.85173134364118,65.0362301468176,65.02395674441166,61.40787587700312,58.94210491662907,59.12903991118256,59.56787961614801,58.72467213732765,54.52254414388167,45.35307840725119,33.23869878910473,22.06159204815775,11.310829734668157,-2.3175593424223973,-18.36553170766616,-33.73883675078571,59.0,95.0,60.0
-49.641679919853715,-58.01515044952801,-68.51627258865878,-71.6023439005203,-57.4550975564855,-32.36614295233369,-8.567872849608435,7.269417408691762,15.951515344990792,23.851154218223176,32.57992882918901,37.82238349564275,39.35958327347039,39.073672527316575,37.195178806807284,36.26507940046369,37.628297560097586,38.99272972980655,38.71591575205796,37.01353413997475,33.98877476121063,29.483826811691454,23.426121195973476,15.221429848373942,6.1859137453569595,-1.6927776630773608,-8.949644271788607,-17.137622720070347,-25.76757730354264,-35.68027078717209,-47.23545516488404,-55.8720475742989,-61.96318714221684,-72.29059176023326,-82.76162845362084,-78.69850552239862,-56.734161456434784,-31.190035561055026,-12.382312023479416,3.1566765094951608,19.15882501257846,31.559457498874245,37.465810492671345,40.65592307465951,44.24759351468181,45.391559931879,43.69918500090249,43.10306472070798,44.39764593599172,45.349479035559014,44.40591452591668,40.86966979892106,35.4612496295579,30.319543587551287,25.415571057776354,18.23213034825917,11.062900564848,5.9591997957203064,-1.193353302021459,-11.220614833909563,-20.75003580098945,-29.868460070168638,-39.65858449473248,-49.78804159733957,-59.00566248332902,-68.68631171845165,-79.98852428925582,-85.41973241071956,-74.43031476600568,-49.85875873695548,-25.719308519559636,-8.541349559287712,4.344822368451453,15.799931395312669,26.93211717991373,38.57484000453084,47.132077176559626,48.3714015676088,46.91793877969447,48.517150048578316,50.317301443531846,48.121058714461604,44.25231646965437,42.26844707361019,40.30789700328939,34.72962264033665,26.497589720624937,18.35371366192015,10.021615432941376,1.3563220154218671,-6.899583941827242,-16.534564638634006,-27.803101121196686,-38.354288948195915,-47.26958149347635,-53.80987116257879,-60.388793549795764,-71.14069887682653,-81.82233474940985,-80.83537861513759,-61.741563285181805,-32.10697707244031,-6.579118649405302,7.94107078443441,15.374408044860079,22.34813692123607,32.36812532223563,42.76136606115568,48.031638609097826,47.88214325811099,46.86767318117053,48.943541390579526,54.17667497459736,58.567942585158356,56.71827046928464,47.487337052126854,36.80090225642371,29.22077234474776,22.43975772886576,13.800465662982203,3.456107969193116,-7.4675516839782885,-18.235522322433514,-29.46715227436832,-41.965752513850944,-53.8587257743159,-62.34562256132053,-69.59843498355069,-81.40095483402203,-97.19481393736191,-104.01541313055147,-88.76838563922851,-55.55599103800585,-22.5663960623622,-0.545797006398584,15.152567585505082,31.00287744676708,44.2914271539137,51.54033329445932,55.25275914113533,57.75814692640457,58.22065854487875,57.40605568174065,58.33775799075324,60.77796031018378,61.641878720923245,58.564931938456795,52.29101421393659,45.71993353529501,38.38739220908001,26.861898999157805,13.27655990844199,3.5952376987486394,-3.8816957440648525,-13.712136840334974,-25.282080558779622,-36.735436429258925,-49.00872820908733,-62.930361222876236,-77.11245842166983,-91.15667049487787,-105.97308537955043,-114.47029993328437,-103.52177682640836,-73.37160460450784,-40.21293115701152,-15.712469553475879,2.7346260850059196,20.26292999009353,34.693274758709705,44.71160589221008,53.8306935021829,61.84649914040138,65.56127293767,64.17633513261843,60.37854497128962,58.82166648291183,59.31362108239414,59.52460879929627,57.96571031698258,52.38193263555974,41.961816503681014,29.813848818260666,19.081110145322146,7.736540383966851,-6.825782213052465,-23.014119826570422,-37.69062162687629,-49.370985993479806,-58.92771907475626,-68.97306819397832,-82.53839554252116,-98.20706754455068,-104.69112306375898,-91.32074610782239,-63.198974812863206,-33.446263434009836,-7.526687337436085,14.198010795466738,29.850551349139778,40.62791655764644,49.59239228383167,54.734955035406664,54.44625034806158,53.114486510755455,54.29546703470019,56.81479798855729,57.35865766896876,53.887142756151746,48.56334984410398,44.62057049669532,38.163582775598094,26.98112829015893,16.39225080392002,5.819101610985801,-8.336452198417902,-22.4323717020291,-34.054041085884066,-46.181342387106426,-60.0281375976493,-74.68574280103388,-90.28136886974555,-105.78613213470446,-111.11965671515335,-94.77367638160678,-61.59848812163464,-27.906838210567283,-3.7577216782387137,12.62526540995621,27.08764225403709,40.38695695379748,51.29861087615302,60.06567739138745,65.32334475551397,65.52901296100067,63.07612279507509,63.20330576809104,67.39355927278262,68.44789065970416,60.81665050493359,47.79400202818591,35.824246643790225,28.882378702568033,22.942021370608153,12.492101219317703,-1.8569959849899333,-16.62714493620606,-30.25623600978246,-42.82230637082405,-54.666975251549374,59.0,95.0,60.0
-42.608576689811876,-52.563324979914974,-61.61128874299563,-71.91832397420197,-82.7161533585057,-84.16229674094559,-68.15439278062875,-42.29239238890213,-20.075341408186528,-4.5532019492844915,7.744937338591243,18.991688326779496,30.278686593969674,41.656482855438185,48.21651105695004,47.85554220035142,47.03125246112709,49.291995704554736,50.113767362438644,46.95401975578798,43.4531185169965,41.90289559700719,39.12969394321371,32.4705371313108,24.089963666901877,16.02053566092185,7.494267291091976,-1.0372302219726788,-9.445865065154814,-19.722651299922894,-30.99983953070644,-41.12175892943383,-49.41106192491366,-55.46090041479302,-63.04101144983395,-74.68900119071785,-83.24462361058063,-77.11464374411062,-53.61682634291557,-23.755340863935697,-1.2835524365422626,10.50939628212387,17.185780935499036,24.923497205790866,35.596286378624974,44.968236181140135,48.38251804701665,47.45564972858951,47.05529382800228,50.24888114600034,55.774627449072284,58.870894327606365,54.64622078771689,44.218779411068745,34.29273792461003,27.36013223111989,20.160470843133904,10.948548332119389,0.3019610115628097,-10.589293700269847,-21.381713220691363,-32.957642682995164,-45.6297884562509,-56.687456080679674,-64.32081817563903,-72.33857933243824,-85.92076458550139,-100.84838064174419,-102.10680671371742,-80.31544279208774,-45.212678737765046,-15.049040460693687,4.217967767102103,19.6754063505714,35.364708738353585,46.984624146918996,52.80125407417016,56.1041581779386,58.14582083579012,57.977468039249636,57.41485986862039,59.00388949852153,61.33575754829535,61.19423263742276,56.956418107857715,50.33285992869396,43.84025971356442,35.56578107890862,22.839530524465616,9.967020197686683,1.4736835942622248,-6.409756047495211,-16.99467117639574,-28.61464328676074,-40.114111739278044,-52.894679974032705,-67.07979281583128,-81.1095451482097,-95.43994738482672,-109.68482663004596,-113.70446552555349,-96.22947668660888,-63.31031235790979,-32.137143426370706,-10.086561120614016,7.8595059222770765,24.941964777734906,37.90725121117117,47.32498614892311,56.40986133864938,63.45896066747848,65.64316695256392,63.09963840219995,59.58550064472038,58.882379877349514,59.46336718626694,59.34473477612363,56.86175091536081,49.804831932815446,38.42427453122549,26.55213506149966,16.052577972764,3.8589024350586425,-11.479954731517282,-27.522043131523173,-41.376961990160666,-52.25982547528039,-61.635890437983576,-72.43646269005202,-87.16808357576396,-101.68543690077865,-102.98347527655748,-84.10459318188143,-54.32348302052118,-25.556166327900172,-0.7479703870952188,19.39359605057392,33.28986505036318,43.3812249360515,51.65340453454181,55.0987196404751,53.923177452851654,53.17152215992587,55.02271858379694,57.317056123428586,56.770976040505865,52.325628413107594,47.30831169289624,43.29505655334885,35.233920698969754,23.67853124865696,13.588186858764317,2.061081635951228,-12.661173580385201,-25.952113075367915,-37.3805773320717,-50.03383373881356,-64.21634501308291,-79.04451400071956,-95.00971867948134,-109.03518056987826,-108.79943140996403,-86.24200518262595,-51.243764729850255,-19.827888158482967,1.479106377443959,16.85047072529421,31.133285217243003,43.7831293219911,54.060272400893595,62.05814187774704,65.88356328828128,64.88138696679849,62.62769269867773,64.17907935631962,68.43405285051946,67.12122560199218,57.33606737637236,43.94080073475402,33.32470820478178,27.388544497667258,20.47945035879671,8.59004858653076,-6.204660439461465,-20.68674098815418,-33.990675664582405,-46.28237704639032,-58.12867370927879,-71.4751122354841,-88.30650945687202,-107.44826198283941,-122.03527713557801,-119.2021314023549,-93.18798660258432,-56.600139067146905,-25.478969205086603,-3.076463707535185,15.497628490292614,32.003768247223654,45.85493321581041,58.465115147410344,66.79586813204148,68.39758690979681,68.0374592508655,67.43403339417654,63.715819777710145,59.788114932609126,59.55527078250137,60.45425079806676,57.75712171260827,50.84919867677229,42.93182338032292,34.37700695100173,22.201671955811086,8.198555536122209,-4.715689207060207,-19.581206827884234,-36.86330832783703,-52.28442454050509,-64.93777600496733,-76.07662254577585,-87.3455657317687,-102.04710489880472,-115.89393848622618,-112.89238199868248,-85.8016398475138,-50.68901543874871,-25.317039987659374,-8.31544866911719,10.152407301131701,30.133507495641332,45.494530415898446,54.466153790422354,58.76961328545927,59.408338474708714,57.74427011403835,56.83079994755976,59.31530697188239,64.40473102365164,66.63545558120273,61.72238244363838,52.511944547330465,42.899443902306835,32.94997294570954,19.782144434151867,3.0871303350179327,-12.42252978156339,-22.856607790429916,-31.031397157224912,-42.951004175177054,59.0,95.0,60.0
-49.15424337224098,-59.185291782051024,-66.31100041417892,-75.6121042542412,-90.64279327154853,-103.32134524090917,-98.12760260261193,-70.68280348180825,-35.384807404135806,-8.542227223920623,8.696148220341628,24.290732159905698,39.357683506215466,49.150018334554794,53.87552935494697,56.870319392702854,58.322447612623186,57.69241012097459,57.63927759878076,59.74190260530542,61.675474460260865,60.381139260035496,55.13721552501189,48.42552117824601,41.82275274377707,32.31052473776052,18.79862984928868,7.1017067224381725,-0.6093108942166587,-9.206356546364235,-20.35561417241324,-31.9122134001585,-43.61463378196127,-56.91192118193629,-71.19867319459118,-85.12519683607033,-99.79855080328112,-112.56650557504896,-111.00128511985443,-87.56127139328981,-53.48073412563563,-24.918463511169755,-4.782611458428903,12.975988957538991,29.2339607254871,40.80134326963092,49.95884595134613,58.82302520835668,64.64194781091567,65.30714591964083,61.93343041098113,59.07966780975225,59.04215914344669,59.55309449435901,58.9756496402098,55.359751632735744,46.834097034507934,34.860773794238426,23.451018938909773,12.862148619984925,-0.30914397642975366,-16.195312528829742,-31.83091999323268,-44.79987160925087,-55.013752063737144,-64.46095136679664,-76.27019179930788,-91.85926231639625,-104.01813625765682,-99.45684362257424,-75.96662253862921,-45.6130303640802,-18.00341243620302,5.657893254283372,24.029233997696647,36.411128585756664,46.03473008137546,53.28050990030391,55.034073436512486,53.46365750505715,53.476699975652124,55.7936450997826,57.56824482032006,55.821869483628774,50.722281780030656,46.20800964662744,41.57650455004456,31.966015228472966,20.58262690976001,10.647992058028128,-2.026029764182379,-16.82085437341631,-29.289064760921363,-40.83845040199484,-54.02186081740621,-68.44173084781995,-83.51537478086584,-99.65974114830773,-111.06983324675194,-104.4678015997836,-76.63311936944545,-41.263638182737544,-12.671834980033593,6.219727003799146,21.034917558604427,35.035519483479476,46.97050682332913,56.65376563170632,63.6930570677213,66.00828391590358,64.11482845520598,62.53944510816362,65.44696397929216,68.95918150631744,65.03069992645193,53.548108291867855,40.34494480562843,31.28331491036463,25.7937522558939,17.55264995789874,4.441219757922221,-10.505528593590551,-24.643352712682344,-37.639515922462856,-49.69518135547049,-61.71097707100304,-75.95601799470796,-93.76387193870328,-112.63382884575407,-123.57136757479161,-113.82909824116814,-82.84247856469702,-46.629891061075185,-18.284348034907026,2.482991589901988,20.544031034690562,36.21460680422672,49.63644707940598,61.55560879585885,67.83198517907557,68.25213798855931,68.03121166591144,66.69865957316246,62.336795164792655,59.33290631474412,59.93701315999346,60.17916895562611,56.08065153538201,48.534954074331324,40.66178764414584,31.288520525234446,18.123477702480336,4.401028672396898,-8.64034682322242,-24.50243577352087,-41.65239841639687,-56.15746635725842,-68.27773230417311,-79.1737677098253,-91.16511611431066,-106.70834018443679,-117.49783160022014,-107.20527305438436,-75.44140187698208,-42.028072839285024,-20.03151271409521,-3.3823754967309076,16.050193038943263,35.24245257281196,48.68409996694585,56.116740148833095,59.30754963865718,59.04940949292944,57.255310571435096,57.14129669044584,60.68682149015565,65.6442572007659,65.94426390335023,59.2759129712488,49.69076672335722,40.165179587924115,29.59169082833138,15.18619500003749,-1.779438545405966,-15.97566468928496,-25.160278895503172,-33.930662008524465,-47.23375738201608,-62.584259851377894,-78.01767545487945,-95.9547143785715,-110.58754331804455,-107.84709264342538,-81.2915779793309,-42.5789048742517,-10.68580888237626,6.924909710543387,17.625536203884863,29.979844343477133,43.347942074362635,52.26737538334065,54.63475881341846,54.553245122260066,56.26882362343152,59.352891852229774,60.67923580018299,58.281558884924095,54.27758559716378,50.454693413575534,43.53893358693794,33.537820465295646,25.741550039166203,19.37024686774712,7.823573942657733,-10.335003045794046,-28.69981100994973,-42.71247601373402,-55.995202175012984,-70.4763202258797,-82.60350422184513,-92.81540058071741,-104.45926675574397,-112.34520765176363,-103.66888709697753,-75.0839475016322,-40.23137072033042,-13.1163108988066,7.120227829313963,26.101405663503176,42.91992889635942,55.61540415733879,64.64596992027431,69.37506783024018,69.75789553973648,68.91208973744051,70.00448596173764,71.53404621298219,69.64508110487148,64.26754230401087,57.76333856222502,50.64147132421517,42.66094801336952,32.51998605760441,19.24199050428964,5.222980725428891,-7.141597528100878,-18.861288975233347,-30.23173969094179,-40.20942005337226,-50.11733189825635,59.0,95.0,60.0
-35.90117184075461,-47.978545915721526,-57.69583676277769,-67.48720615468773,-80.4826698227366,-96.32297816671843,-104.86884669182439,-94.23363223560025,-67.28643622160588,-37.204253663502016,-10.76211314243319,11.619065667175533,28.1262739504071,39.32740285989572,48.52640056452771,54.398170114863824,54.671525179703686,53.17273007704393,53.99777184111948,56.519812464388934,57.50560686292355,54.55526053405487,49.20651841193966,45.145094620651776,39.35959751008988,28.551060557761655,17.68580310970649,7.425526733080461,-6.32567519876325,-20.725607305330374,-32.54816555833627,-44.45733366586121,-58.1149548284325,-72.70340790726698,-88.11908407186236,-103.98773252849067,-111.5242647046449,-98.22736071056255,-66.40120837860707,-31.93480392307428,-6.390511165882078,10.646540702070666,25.18996214468648,38.74748874130046,49.97158500595949,59.04571139988273,64.91196497611318,65.75224466998895,63.37074669075854,62.88955131831161,66.80502632917528,68.78940943868012,62.274819945390234,49.61261861147437,37.14265314708243,29.59045861433236,23.92867110588168,14.18065801437039,0.14633132598501356,-14.719351066124451,-28.505504714196967,-41.204805208171145,-53.09329423496238,-65.48525012963016,-80.75804142901583,-99.35326242872345,-117.20000757022258,-123.29298659593766,-106.54500525993599,-72.09407930060155,-37.42131722732154,-11.752444993781216,7.864050655433207,25.386717111533187,40.2201836443039,53.34875609455838,64.13867831115694,68.32563418832834,68.11219093805639,67.94706600595323,65.64474771823585,61.094996627065996,59.22909627914456,60.28577185582699,59.50412726129805,54.095472846692616,46.23240585198694,38.281255542281855,27.82628792962134,14.017806751405358,0.7108664099200148,-12.853600232832733,-29.550296908208086,-46.17782042382946,-59.834792842976064,-71.50771485313902,-82.34553715893449,-95.36471716463831,-111.05126977467188,-117.21930287798918,-99.55744320813574,-65.00660980586223,-34.47588123481576,-15.198969920245888,1.8817534335321477,21.938052588342014,39.825637537146456,51.360615713471574,57.42697495191915,59.54574906429222,58.552295472127604,56.913464870511106,57.7869917095634,62.20899944451121,66.46752027862684,64.6155200246268,56.603045371794856,46.90221353945803,37.360163846609765,25.88092429835685,10.341673671500642,-6.390215946415143,-19.057229853592947,-27.421573220320663,-37.27862423744217,-51.679767501157826,-66.9219300051929,-82.94641878117176,-101.0983213494943,-112.16201058366741,-102.44695023424016,-70.46619538998957,-32.004381206512235,-4.249789468525472,10.220809584735651,20.871214596544412,33.967904115388535,46.59635141745585,53.53692444206051,54.603889954332516,54.794393924856045,57.140152561186966,60.05961040120373,60.35702575522658,57.121556671652996,53.23196238487869,48.93472096011638,40.745819495886,30.895908447401442,24.033313547089477,16.801860658014142,3.079801560192525,-15.976715201968922,-33.15144231284418,-46.39288219508664,-60.18146212762467,-74.34366819385859,-85.56283095057209,-96.01822625247938,-107.66446883820268,-112.02389223662053,-97.11250504222414,-64.82910535844687,-31.35523293444557,-6.889159394334428,12.651644702682944,31.329829394655814,47.00522937333731,58.594686346369954,66.50780544748807,69.84977087219444,69.45008707781369,68.98680258979437,70.59216562131397,71.44108303972932,68.3383362980408,62.4398541987491,55.780581323487986,48.44630949693911,40.04429438732371,28.963577846382865,15.102630798403789,1.4779328129558766,-10.52413258918077,-22.243404961827274,-33.253950721727115,-42.96540588801399,-53.31634427591038,-66.03030861137816,-80.63767953137356,-96.94254196422156,-113.50964013615493,-120.33297224655841,-104.01108718357337,-69.21959919623521,-35.532968016184235,-12.466428477810046,3.8786719929324343,19.46078370045801,35.23745467690961,48.86095190651896,58.109142374449135,61.535568145286334,60.752690416904045,59.882294952521015,59.98366557350306,60.75319946365402,62.137701827486474,60.78400861888846,55.04233732934295,46.55648612670112,36.463125227942555,25.439923759221124,15.245318694443334,5.532091605610552,-5.624591823915258,-17.96415801587254,-31.211091918305154,-45.091905333473086,-57.07447092352795,-66.72423246055226,-79.48652202182255,-96.43394627309517,-103.22670689487731,-87.2020557823151,-56.140215795237935,-25.393632025694263,-0.29990111917346857,18.867779116632246,31.9799551439792,40.7417588264217,47.299049943404064,52.43933481118738,55.018960583942885,53.378961723233886,50.46185803587539,51.47622244567623,53.657323873382964,51.01979414699172,44.303658682892774,36.24807096894097,27.958080665685355,19.2579814335099,7.851732828728812,-6.185359640916191,-19.85842136774685,-31.663283486259594,-40.97730077802566,-48.60951428470661,-57.91271047772889,59.0,95.0,60.0
-56.521891137111105,-69.51651826445227,-85.86254909204345,-104.93251230371506,-120.8014652624548,-120.98046841518412,-97.68375724555942,-61.402938137470365,-29.055006486406654,-5.727555880094367,13.117929796173609,29.97758899743365,44.09449204908559,56.91017927509461,66.10740055673384,68.43053999248586,68.04495697383834,67.66187988989401,64.35369862992393,60.12201056196369,59.40768881921302,60.4635238947307,58.40397492129887,51.9015611527453,43.968184940806125,35.67933739594452,24.034177243709493,10.001025733677663,-2.978263934900411,-17.389397689587145,-34.584259992082025,-50.41952807808506,-63.35780608304885,-74.64800327126139,-85.70339139643124,-99.89222978284306,-114.63292522171525,-114.77766921474235,-90.38791038226327,-55.02418378142141,-27.993090254048408,-10.506824650971271,7.481262019587174,27.625941491559452,43.83808012557546,53.58066419561533,58.417845226517514,59.50773600121999,57.99674871211975,56.793542775726834,58.76381765458833,63.74104036162974,66.72990130402084,62.738134930121596,53.813644150025326,44.15621437940128,34.395953500893505,21.791607528608846,5.375730389847862,-10.622418800123915,-21.730526244397538,-29.826726875881917,-41.072081995462675,-56.15422522741206,-71.3025900891154,-88.14438089698383,-105.68750332731314,-111.9141729796941,-95.05329881727909,-59.09320531099395,-22.434718562271083,0.9853833782912863,13.230201271117567,24.393408555350636,37.92934471591156,49.33286966033013,54.27307721813491,54.51979371510413,55.2494856501984,58.06892233741872,60.534043101435536,59.703952935771134,55.92856773538318,52.193064287790484,47.03561003585914,37.78880025080909,28.575991218072797,22.314613001524602,13.634163832994806,-2.1609361197342665,-21.416472344528874,-37.21581666693722,-50.16688334992983,-64.42805106916035,-77.91165458578621,-88.45382010291787,-99.40697298548527,-110.29569055086715,-109.98797160004071,-88.98962569041826,-54.52696006224077,-23.35046020941301,-1.0596545070925945,18.16626114591682,36.28909357626671,50.73690734233904,61.2842842193048,67.97388963902377,69.98833541375495,69.14684260861777,69.27577095810815,71.11907614286565,70.98027475357327,66.79357864600343,60.56878981369002,53.73741786429423,46.17710733591798,37.192217750372635,25.147603324423606,10.997455138032022,-2.1063274267991163,-13.903199629022064,-25.568504268800066,-36.14446303393478,-45.77720285561428,-56.73262729151035,-70.09908234831235,-85.14948698056934,-101.93578288777272,-117.17647640714516,-118.28657301469046,-95.03478068592068,-58.61944230235724,-27.786655210775454,-7.372829302082977,8.305175276806642,24.08552612022678,39.50428616648527,52.069153793483856,59.71113898467971,61.55927485035515,60.37525208322058,59.85549866765886,60.10124672615743,61.18311121115371,62.194464620945226,59.52924725375769,52.78979458068014,43.793787390411495,33.304090415494386,22.352061005661362,12.492104028549733,2.4890703877459903,-9.11188401284286,-21.674311427634784,-35.23642791379609,-48.87008457585397,-59.956579886006196,-69.79530230939271,-84.32181234045134,-100.290251804342,-100.99827131001908,-79.00485512270792,-46.770569223613,-17.55059987612679,5.873456582597497,23.239763316003927,34.8466359449838,42.79965526575296,48.93575652450759,53.5516136426867,54.973157848146876,52.38633179454611,50.27053243964098,52.3266638882733,53.487820358150614,49.34633254704847,42.04562733292242,33.8434958864054,25.566418120059666,16.330006956674804,3.9428541144745357,-10.283591572241559,-23.486703666811444,-34.63053074737445,-43.23326123612117,-50.98234287252714,-61.216788831813325,-74.32280263797533,-88.86913413823298,-100.30611199263645,-96.98084442442513,-71.99915887983269,-36.13189383522646,-5.729363175058004,14.360113970575826,29.13689443553293,40.6142031415354,47.70715116273315,53.43183025790972,60.216036102771824,62.54834377524658,56.77089689900718,51.79782553450752,54.22112615359857,58.011180696288484,56.87045457937723,50.5720137175599,42.16295520969273,35.08096671013376,28.49709037046727,18.369889013336742,4.6081174236112155,-7.414148296739782,-16.727065274224856,-27.6951150692803,-42.4036840704862,-57.58558489766683,-69.54865640152019,-80.07672942536702,-94.73614901206638,-110.4529723404981,-111.06850576067862,-89.63517248136964,-59.471864353527415,-33.22700986568772,-11.244741850201438,9.045504180959743,27.263883139082587,42.72496830493383,55.05409349045183,60.702303304171906,59.408811242536245,57.62561224602938,57.85342936534722,58.102656122621276,60.12388462322867,63.78510231568401,61.80853883441733,50.9471872804089,38.9055590971311,32.49830279537079,29.40303086079927,24.09591260555777,13.56153419828193,-0.8740931864089819,-14.868897104935106,-27.723590051207665,-40.749352129021936,-51.00169879626545,59.0,95.0,60.0
-45.22993798358938,-60.57223116858606,-75.84246155527885,-93.4949159812866,-109.33335858088779,-109.6226245023645,-85.95203158838918,-47.70121573451278,-14.090986886252335,5.228269348118668,16.20830636938393,28.17261356354708,41.70884253982435,51.48230054192232,54.59015414254589,54.50822284836532,55.90771584673538,58.97045222980094,60.71064293409218,58.77703199044215,54.78100090106877,51.05144435509662,44.728944799840065,34.84413591479673,26.576638749046456,20.38464696932954,9.808264552795825,-7.721874686154782,-26.50015233655407,-41.011018535938106,-54.113476298356446,-68.60744978038596,-81.18132491315656,-91.40493842123433,-102.88146204047321,-111.98486797275766,-106.09435466818945,-79.66457771261605,-44.59540978578425,-16.1787263526829,4.560446742370793,23.624886421936846,40.91194342081052,54.14512649145003,63.66317962368502,69.02715498218969,69.8709851807157,68.94738953217482,69.74630026271342,71.46489853176257,70.14659530358587,65.08862744806457,58.659079598504064,51.632413820890285,43.80344122759496,34.06228128696794,21.134815348690648,7.008293968457739,-5.570408007704895,-17.295341048897555,-28.790537056653616,-38.93880931378122,-48.709532584425354,-60.36818263019162,-74.29365205079277,-89.82407760678579,-106.87626839581664,-119.66676549822995,-114.0233608251179,-84.90714612692756,-48.6050694059326,-20.98070798028327,-2.6620516496705346,12.783242059124941,28.68923942859512,43.52784359544789,54.863406203973426,60.79994994668373,61.31901501708641,60.09053987971101,59.884080837916095,60.29181452204889,61.63985435724483,61.90948855717007,57.92027153742319,50.36114484256772,40.9038194287046,30.095975990331812,19.382671433423223,9.727747323230178,-0.7089954025369933,-12.66709297250002,-25.47555863976314,-39.28659704494847,-52.40744146957104,-62.68607823298253,-73.32312002399694,-89.39992029055192,-102.79759505508359,-96.7114436595688,-69.96064638407147,-37.744314154317244,-10.19306944168427,11.538109737623497,27.11556574353967,37.41213477063493,44.71506333347793,50.461899539456354,54.39546769393591,54.546855833380846,51.43129232295021,50.50989243828187,53.09110265171431,52.81715384201304,47.41820767760187,39.72201228264926,31.441823651977874,23.11183527974115,13.105878497429686,-0.1303943722331365,-14.276581512636962,-26.94655598335117,-37.36927970703594,-45.399557777474,-53.592026625802426,-64.76893771997432,-78.45497355749417,-92.89924913811372,-101.43585689938321,-91.84358966041457,-61.93965653535494,-26.281836142038166,0.9834914951087917,18.952154161067824,32.86298935823098,43.07746692024834,49.2831543493466,55.37664565555046,61.71490032778648,61.52082970410513,54.71622622572035,51.823297435659526,55.57970980954404,58.28365704611293,55.4954824273229,48.169020361688425,39.91261333245009,33.29347958473248,26.083864219666868,14.565735073546424,0.7517772103595523,-10.225367343728578,-19.53306380631859,-31.618423852079225,-46.96532345449429,-61.421731855346046,-72.49636891999366,-83.72041350436153,-99.74392077239123,-112.91172999242526,-106.82769451452769,-81.02507990880434,-51.28565064073736,-26.59294068490204,-5.244213471064202,14.584926456135756,31.997113347512695,46.70850549967474,57.547032838639694,60.81537316208055,58.66734410069709,57.58413218396009,57.92999453884086,58.37144649972918,61.240206163594934,64.1522885033841,59.40102131919555,47.129720556135275,36.426936114479005,31.51673740273369,28.30295073236253,21.619888695992014,9.613499756326975,-5.1172775820054355,-18.58886508812316,-31.53332835684531,-44.14229003475776,-53.29769026799056,-62.25022864069715,-77.86997598014767,-97.50623878965105,-109.04727602931081,-100.31727003343183,-72.19430038875838,-39.258461898675435,-13.194178849269875,4.190949363284967,17.778284238526606,31.040111201178828,41.141374466085274,45.665169111068664,47.71261714299397,50.23575143807153,52.73723059791705,54.89625004237098,58.068233816200184,61.18757483660023,58.64360385484677,48.362137829492845,35.89785734719726,25.598872195691246,16.713998774563485,7.815160707465754,-2.6826822328063433,-15.809657705472887,-29.227889027866627,-40.51608075149518,-49.453454389264365,-58.11889498518944,-70.42412727944215,-86.71741193234097,-100.25113302652049,-97.11469288993213,-69.26479462045393,-31.364496730074702,-4.831805328430057,8.829898532479408,21.160011074312717,35.82210864808662,49.432938844936125,58.372977660358266,60.51043949235229,57.93337502334963,56.23779892412798,57.25402604012926,56.988805945017184,53.42125186738484,49.58593934460025,47.05782437172081,42.18193301676984,32.69968576336175,20.416343696721285,8.297962544785765,-1.730135925369546,-12.048556634135624,-25.309220188562595,-40.271475521023376,-55.160039376046015,-67.76635961465402,-78.59389543659384,59.0,95.0,60.0
-51.81547579882954,-64.20356770836688,-78.60652140367233,-94.66417312011544,-111.53814127934297,-120.56126419355239,-107.61561548983576,-74.19875840757808,-39.43654179864099,-14.994971452664483,1.8363771138295593,17.338504919901816,33.204307664067414,47.25552471015178,57.19821792178084,61.40369982908117,60.94049533563535,59.92287070321648,59.94517877535101,60.58306121053827,62.02087398863631,61.23202571094999,56.00940792839923,47.78734752102538,37.89020609137196,26.896080092232864,16.529914736458394,6.884560127170762,-4.0467781011325314,-16.27873041296058,-29.37900672002308,-43.28734884586877,-55.66585544228397,-65.41467134428225,-77.4118638054338,-94.3364683515737,-103.54948632219347,-90.56725081479453,-60.51875480560242,-29.176826154527454,-3.3114854338573223,16.67699642949189,30.53878756344209,39.73692617171275,46.50901631889095,51.85411048099869,54.908036304880184,53.80063866512346,50.690033374398546,51.11405616792022,53.57285670357555,51.68031789277378,45.31501217364421,37.35170563855996,29.055175047895105,20.520621713905427,9.575185145370503,-4.2750400805424436,-18.131947665644386,-30.22151368291621,-39.884893604160446,-47.57459921912041,-56.48245735847774,-68.52884832567983,-82.68237466688474,-96.49294330777721,-100.98068948262544,-84.87271388630698,-51.411971750502225,-17.236841119277067,6.87571722192839,23.257117659363757,36.284937786558054,45.16227558961042,50.87614000406426,57.41076193119738,62.61602922015189,59.84150203375603,53.0615501666773,52.490269826337425,56.80899024547665,58.06438851547561,53.72300709323137,45.69379464620779,37.83699192613535,31.471199671315226,23.264587637473493,10.538233600686002,-2.8078912003167584,-12.875508869269213,-22.602198506847408,-35.85178315153769,-51.43903397256754,-64.93033657143717,-75.43599963428304,-87.85991858838604,-104.59973360147553,-113.63041306399899,-100.80872819247458,-72.15762892646299,-43.60223245349425,-20.22748239173892,0.6530377874809328,19.91240270294069,36.506847578419745,50.40247132509755,59.35659154676992,60.43584054774922,58.075169753258585,57.67365449792992,57.97164710848234,58.88230924082087,62.41317991099469,63.813965386911036,56.29044320314606,43.489040745240516,34.4957860548961,30.67852307461108,26.88914237835599,18.66970606838321,5.4199574009286,-9.207239876959205,-22.27121716527349,-35.35543182468775,-47.18919934162483,-55.53989119055057,-65.94810035325914,-83.55533851958154,-102.31015917080381,-108.92293233268914,-93.67563709077069,-62.46845520755989,-30.77011504234853,-7.415194768838968,8.23764892704792,21.671390179671313,34.48686006290721,42.96891457329779,46.3105765467658,48.369465006768145,51.01366734775793,53.352670199006994,55.65613312275872,59.171414818394524,61.29022277239295,56.315793829582724,44.68464722228946,32.667863128004136,22.967893645848992,14.19332434349816,5.038241708501643,-6.248088177459733,-19.806041646609593,-32.753815475642064,-43.30282652779186,-51.815216971771505,-61.16628478035006,-74.87352736642869,-91.416837953049,-101.73612383494715,-91.40787991607645,-58.228583062552495,-21.985647649947367,-0.0538365466526792,12.131480881613593,25.264648187337137,40.035797856616114,52.637045733352494,59.699219414600265,60.02497745877258,57.1284803350261,56.372301722046,57.50402726223212,56.2306901744024,52.166270799951924,48.814646830722694,46.08449620217899,39.885633921039116,29.312066073246335,16.76578799699153,5.193970168949433,-4.483943397155191,-15.590994754897194,-29.53470566062296,-44.676226028338554,-59.10950687403429,-70.91792106710298,-82.02667361821818,-96.24824243900014,-108.38463071739008,-105.63521671730919,-83.71844470356653,-52.59038277355901,-22.549264933375916,3.957821718109862,24.101808655468847,34.81767715626176,41.063180121463446,50.18753864430185,59.9211613603739,63.50777657257057,60.195392328698,55.006790340690216,53.692690235284395,55.82135530491302,54.48726615264049,47.60423086777575,39.24917354838445,31.468408008936112,23.897720851892803,14.409579185817107,2.2777016136960264,-10.420755411161254,-23.763129382559796,-38.95331282626425,-54.27941052458546,-68.93345735786961,-85.13477800399734,-99.89191938507861,-102.7069677394452,-86.05088696842448,-54.757855890863624,-20.59899698806472,8.255210644227908,28.945828042423763,41.82670073875837,52.77928972872507,66.49316013304843,77.23495411416486,77.98146451106223,72.45254369896897,68.49470854059011,68.0548937747982,67.73300856509337,66.08302230624469,62.055456534148746,47.42819270408747,17.026993399608212,-19.626510654721223,-51.30523510364607,-75.09704394368588,-89.44665213621225,-94.26483133482064,-97.08559228591955,-105.60035181144347,-115.44520580510721,-115.2509900646502,-95.73517126235524,-60.19597656222688,-24.963121559413366,59.0,95.0,60.0
-59.660360043449586,-72.46034989033357,-86.9342092860879,-99.3404407860572,-98.6921663047555,-76.34661952518286,-40.877355158358576,-9.136177354712745,12.11528531680168,27.333254383386226,39.34080110726098,46.950330230544076,52.58771453078535,59.38375827357119,62.75825591697434,57.7691703089893,52.03031292279837,53.61430002517597,57.72714567613402,57.3558560177384,51.624395607659906,43.25262248264215,35.92286516969129,29.494219934358973,20.009540841510198,6.458302348397223,-6.0331176829334625,-15.49378374038416,-26.00497213622811,-40.3070267648157,-55.70959687372172,-68.14459491221679,-78.54114449191434,-92.48055493542807,-108.84208440597295,-112.35341063279728,-93.39526119403371,-63.39948700592514,-36.40277301949708,-14.047871383489687,6.430961215444596,25.000957252907394,40.81031062258885,53.70145096020697,60.44008847017734,59.761367526752686,57.712300703998004,57.80174323527644,58.03858221421429,59.67196052526538,63.432804486469095,62.64143251234293,52.69480028214762,40.23571802676493,33.040654382842625,29.83383635959751,25.079427355194177,15.267613799881754,1.1128139271175426,-13.118655429929237,-25.98761058058402,-39.09033773811515,-49.87204000213194,-57.954309342249914,-70.33766565204488,-89.38286645666162,-106.08653356113194,-106.8515685157778,-85.62777493631171,-52.765190431945584,-23.039164962634786,-2.3182427011107887,12.13310937490861,25.557916179909334,37.54536729369782,44.32667540131035,46.870477766808456,49.097562404750654,51.75375935364816,53.9529498244604,56.54725585522647,60.18952103083179,60.750232184071095,53.38397042516265,41.00903342079091,29.662758332419084,20.404663031691236,11.649696438994246,2.073877991597248,-10.032651937145229,-23.73717861005718,-36.06700951109568,-45.90262485280096,-54.23585415530985,-64.61681245109442,-79.60603041571693,-95.65145663188366,-101.41568434147281,-83.61008124512625,-46.95758400283938,-13.98525968842917,3.8742595805488835,15.605583825220727,29.525954659300645,44.06345758138459,55.36788469929977,60.42755199918153,59.25113556219959,56.54956608455079,56.69721425931476,57.51997978415144,55.204798563486506,51.0015657596842,48.132468307785594,44.789031394255304,37.202685686000244,25.757635349850695,13.205443202303403,2.2899299063834593,-7.37946437991273,-19.392474323879927,-33.855873588979065,-49.02955942763606,-62.80990947723872,-73.98521162573545,-85.7912375068581,-100.51704972850325,-109.60172240144168,-101.04016450136035,-75.0608305684734,-43.58885193975898,-14.482366182746636,10.647421362291611,28.13159676813101,36.66476842498384,43.28534612597568,53.274324541812376,61.774270846934435,63.106823777822605,58.596706537314105,54.071645776733305,54.212917155386684,56.07022284328791,52.91925558858663,45.1815479783119,36.926391588493104,29.325557160551977,21.45781713896253,11.103010352825152,-1.4078625105297677,-14.118608217435801,-27.987875219397534,-43.477342396852244,-58.50097493775967,-73.40436304567417,-89.92686553035631,-102.44053900564131,-99.93207017706224,-78.0164885976087,-44.69171875089203,-11.528339730220809,15.13302218111049,33.31976756059096,44.83401197677253,56.51236200530692,70.34681549929867,78.5319343513735,76.63639884198213,70.91428064719574,68.10990146499128,68.10502843907139,67.35345980166083,65.3883488865548,59.3825256297376,40.09778071284987,6.434999971623413,-29.539793618069783,-59.025982029945155,-80.30818484941439,-91.6514134457542,-94.78906690316308,-98.90994811466341,-108.76919753921253,-116.94250681656676,-111.78664018550364,-86.51430941334681,-49.24313828196375,-16.68824698473432,5.396700515731605,21.76453992407901,36.28046860774298,51.0176027254484,65.83884358362384,76.23535575136877,79.28665855326727,76.71753133800755,70.88875050825641,62.96786206757879,55.06085862730606,50.10770212774142,45.32033584298192,35.47670636755601,21.26188077172453,5.639432112560651,-10.362852240405614,-25.738596375022517,-40.03012565654253,-54.82917739844872,-72.6969976333571,-89.41052163456395,-89.11029348014777,-63.91203604437564,-29.82407185495693,-5.20575823203331,10.605484865798653,24.303660414833566,35.23211925021194,42.19431052839902,47.05504553766494,48.65426727119932,44.694562495813166,37.31655492904668,32.22951714969388,31.772377742832276,30.861725490655388,24.392890491082174,14.463144111255342,4.193817498915386,-7.944535477887793,-24.5763780325692,-43.43422577656282,-60.81261398815646,-77.21955025873355,-89.4084227087206,-86.3907246523043,-65.15494541170771,-36.994544714866585,-13.830314238423009,3.0151840698284347,19.647997027462612,37.87584424610466,51.178960003604665,55.00572169787476,53.24784374617752,51.20451002999682,49.89816668948721,47.295892971431094,42.483986589341235,36.842153145979964,30.606409199119728,59.0,95.0,60.0
-52.25833509262304,-60.76681904062474,-75.37036609737838,-95.0447321594118,-108.48860584540103,-102.81205037752918,-76.58076521924957,-43.39783857042684,-16.115255805263796,2.2323354654222634,15.992673784261832,29.353074118444294,40.12578159847503,45.30745031209485,47.434710522358984,49.872600069389634,52.43952448949232,54.58234306634252,57.566783914090784,60.96236083739488,59.48037706162086,50.012687731603435,37.46451323605315,26.8471570253976,17.875319666161438,9.047553196456944,-1.123234395641746,-13.968397650098408,-27.53524100599118,-39.161880814339995,-48.35533548480216,-56.83152444907431,-68.4960227176404,-84.47746676129185,-99.06468498184977,-98.98950722646053,-74.0898850685799,-36.08842757372654,-7.413371911535245,7.31413936838219,19.344619111525322,33.84221215266349,47.81760474999595,57.55867851972279,60.59833776065963,58.347956816855444,56.265859522104385,57.088605678972286,57.23203680438649,54.003285687031806,49.99252844249,47.427117881583975,43.10107283655745,34.185615671222784,22.109340421694057,9.801198212107819,-0.4748796242936226,-10.510925242076302,-23.40390379738426,-38.239354612188606,-53.265304468432916,-66.25533321725707,-77.10145776252416,-89.89163536770135,-104.34452542597823,-109.25169707484724,-94.89523289909636,-65.99065191522851,-34.83714249453477,-6.715483984085995,16.685916367103836,31.33988674316173,38.36471296091387,45.87705547155914,56.236656406829056,62.97240506428226,62.190517655993034,56.99942553266359,53.58513879192686,54.91283116561283,55.83459916823903,50.94348566281817,42.744952427537804,34.66644456960891,27.17635714121201,18.787229890380416,7.600003338075509,-5.079045135007648,-17.919600416990924,-32.37263934684659,-47.94144627643687,-62.69021374916064,-78.07319890449264,-94.42749446427345,-103.6885660871439,-95.43875026808325,-69.00945883094253,-34.68446911587987,-3.0260356383762677,21.285552724625752,37.08733688609186,47.89110557968625,60.51062366711292,73.69985629891872,78.89720707723669,74.97685318445944,69.6715634550105,67.98801200309558,68.0565284199615,66.88637260405807,64.42351266723296,55.538996997585016,31.452891199813326,-4.308901327292901,-38.853150301677424,-66.07819626514346,-84.66964980613228,-93.10098128536718,-95.43057903083022,-101.31053543369751,-111.81734697076898,-117.3051570958687,-106.5300536409776,-76.2167816563215,-38.78242309572808,-9.364028833888016,10.472513040661706,26.05427683954688,40.435755951953915,55.4338547003819,69.52210653951612,77.86064272433435,78.99146090127273,75.30229139465104,68.76864977724328,60.52132805662258,53.294790559873526,49.00176527081101,43.08591604173874,31.66545594104775,16.816064529695257,1.0261445146613966,-14.92272090134585,-29.94933472785511,-44.131110124634475,-59.62630069244342,-78.1906479495356,-91.8344010108541,-84.0821886503198,-53.90163166231194,-21.405476302373092,-0.12224067148342063,14.678240412872697,27.882811870383893,37.57666961994565,43.77650198072986,47.995854242600984,48.09270055164023,42.68642070346698,35.37201912358789,31.72528877909763,31.88737647682563,29.600662967492866,21.67159544934525,11.511323810512376,1.0380306502911623,-12.273184324112497,-30.01856436272293,-48.65052267172812,-65.60942022817741,-81.59657192054205,-90.54399201724073,-81.82055143606192,-57.07042650388327,-29.49792362138766,-8.537396538481708,7.584885489277142,24.92950426376298,42.58218142619524,53.216591348415825,54.78388111736966,52.5505536867276,50.81567152521698,49.37691063468702,46.09078508262076,40.88204657958904,35.14857336347573,28.50509318956522,19.46967740181283,7.428518111160489,-6.518563851877063,-21.386534131873134,-37.343006804575474,-53.35874321222818,-68.8402369122272,-86.66408464608791,-104.17085882694215,-107.34740805681318,-87.63691813800565,-54.73445568643584,-25.50503094329442,-4.127535976988071,16.589285755854245,37.23903086843706,52.317244502380746,61.171043411260335,66.93404226382779,70.577906724281,71.09536797667435,68.22273655243994,64.4878869591093,61.41744468303431,58.331922512799935,55.01531036363663,50.78658752637637,43.91057443534988,33.62026534446796,21.238361702645104,10.308373280076395,1.5229571879863686,-9.09486273102756,-23.26260148238649,-37.76304880256701,-51.233117714370955,-64.42297726791251,-76.89145903293165,-89.75496267431475,-105.15577709988297,-118.3029516749013,-115.6698421505571,-90.57750234756135,-56.57716780736095,-28.44378132027449,-6.475046677644099,12.256470603273428,26.82553171538478,37.69669622627678,46.677982907269346,52.62843248463033,55.54788195710268,59.049761075687385,62.07570079262422,60.72385659896221,57.22878168659823,55.20034639773791,52.50326017284085,46.77009138786002,39.73374358708811,32.28408741763263,23.22433062024303,59.0,95.0,60.0
-80.40647345276047,-94.22596116286505,-107.36403212277915,-107.18145151631661,-87.47505350995705,-56.80343882890458,-26.362637343509682,0.6911757129045049,21.954737771084748,33.84654356605976,40.154694119313376,48.78076624328052,58.86859931592091,63.490491651652555,60.88661469872072,55.56871830805859,53.56176454828109,55.58276724317791,55.040988334123874,48.695714434406696,40.340383143624784,32.46608362173882,24.961000360525844,15.852397798422961,3.9720245737095348,-8.733377610670335,-21.877142020608726,-36.86488272770273,-52.30447431082362,-66.93381082598312,-82.8935567097522,-98.35663963666268,-103.40189357415358,-89.34427176722329,-59.34661068895347,-24.950004789309833,4.848856336024128,26.697189675899853,40.39960811744638,51.16662163158507,64.62119758185531,76.32032226177803,78.42975939912807,73.23124332940975,68.78286382306693,68.02073597862375,67.86784247672793,66.35467033215234,62.96730256593276,50.32332079115144,21.756479361551584,-14.880596554557979,-47.5255607476611,-72.42422872783403,-88.1441981542985,-93.98134920479127,-96.44338866551217,-104.17554355226952,-114.45196745895913,-116.26595820611526,-99.51650405965177,-65.30147295808536,-29.108915316510366,-2.88188270095313,15.222231007044162,30.24263353367009,44.66637149876915,59.805319021333666,72.6946206660229,78.85421332932904,78.30280676621838,73.6575170562983,66.49126274567611,58.156689184202015,51.83507786554282,47.75108082707283,40.34137849578281,27.5703192302982,12.3089691956639,-3.609357100941473,-19.39562777464615,-34.075632939132674,-48.333736682354996,-64.74974048121493,-83.3593339468662,-92.35290385581072,-77.00544390811434,-43.76083407438834,-14.076393167032972,4.438593524232508,18.6788405146872,31.142834204304986,39.61344918485656,45.23106772498806,48.585495471478424,47.0334522303219,40.500301565843635,33.774535157722525,31.59283585310305,31.772145005443907,27.810190424983,18.78341075754528,8.568473760541368,-2.3596635625554363,-17.019024559545212,-35.52442131137873,-53.6887769579553,-70.38207332479858,-85.43695005162354,-90.10142331051334,-75.82480947367434,-48.78367506778899,-22.63913383324758,-3.680423135880378,12.312920002052442,30.29181856696377,46.65682411010479,54.43881068312421,54.25796791709918,51.92894747890087,50.465958833102015,48.68307988200876,44.71149986124914,39.254005063936546,33.38618040557711,26.19816847618794,16.278893699177466,3.5231303074370333,-10.719020821452894,-25.8912792613401,-42.04665234218393,-57.80916545231482,-73.62667674553924,-92.2340083939043,-107.23863877081875,-103.91472465723373,-78.68443159499091,-45.368486570313046,-18.7902346279322,1.6725160875204987,22.805282172735403,42.34047473271299,55.37553856052979,63.05350153161404,68.2272754941298,71.10903092347864,70.54202700133695,67.10203246330401,63.54954555967359,60.55364800642215,57.39843543924698,53.958056387888256,49.13980815859161,41.27785382809266,30.12192540067926,17.790708197501477,7.673155411562881,-1.1632942604669254,-12.91671117770392,-27.56856063479342,-41.716774940487625,-55.0736312766231,-68.11811228836397,-80.43279673775439,-93.95600296082192,-109.67745460097677,-119.79973814127699,-110.46924456376992,-80.77558549225235,-47.59402200625179,-21.668316748321235,-0.7310110425654733,16.94211453851889,30.243410631990553,40.47252196068937,48.80351360385798,53.64001737276147,56.390750453220164,60.19942315990369,62.172722186529555,59.69843227672108,56.481751901761506,54.672000645298205,51.13638131173595,44.76627051559207,37.67034185987509,29.86767053781528,20.267994187517026,9.032455974703034,-3.6221485571901573,-15.649252746658695,-25.014704216029205,-31.75709436696033,-37.25634323189478,-47.07448019377081,-64.70838791996525,-80.88163073773958,-81.07697313975207,-62.24556980353176,-33.41085849917809,-7.200735132106118,9.58050411798595,20.31818791777729,29.055015307732678,35.49402860696459,37.67402744955285,34.87595591871914,29.43520324502479,26.766764824416484,27.587247886839183,27.149838207266672,23.6555478434324,19.32264284561423,15.126273908719345,10.993980256012192,6.21059744898539,-1.9854358064880877,-14.432553961449933,-27.09741275344436,-37.021232026329166,-46.11111293226997,-57.18771350889355,-70.02414474462273,-77.74626163815206,-69.87075494217231,-45.05141753810721,-16.306251122215563,2.260295296529783,10.14092177939939,17.401873019332672,29.89580560356671,42.79035682342745,48.13816842578924,46.618298645423934,45.081652838275765,44.49660555944892,43.37585662732177,42.56420743395877,41.345617629821916,39.83813076895346,37.77483283287356,33.512812899376314,28.352568849635517,24.443836997130056,21.048753359277697,14.746878464781025,4.571683050591109,-4.855660813353024,-10.198096864191307,-15.487114489515834,59.0,95.0,60.0
-20.381333371565226,2.9119924316625667,19.74074817799342,34.37726516735316,48.993915936452346,64.00255210739863,75.26630321219635,79.26976676084098,77.28414834418243,71.80656933509839,64.09559352467225,55.977861776702234,50.61970087007746,46.18526948826017,37.111732109906995,23.28254757207168,7.754022485717497,-8.239499068906063,-23.762525972594847,-38.15324298491142,-52.72110119718275,-70.15147124607813,-87.76824220713996,-90.66676142423798,-68.31070562711767,-34.04277707625016,-7.794016076046757,8.69772424360769,22.56899399473188,34.030152616821475,41.41956473350343,46.52774467149897,48.74338063268357,45.521642536234225,38.294604943448654,32.61060217276333,31.695091294024948,31.26222440143197,25.557231064966363,15.828882421409512,5.5944749698400695,-6.091546483432676,-22.126748452987673,-40.969781210503356,-58.58589618437338,-75.09650451710651,-88.41732255524657,-87.9552457559861,-68.71121225063379,-40.63079033958117,-16.46028120107163,0.9243531308419846,17.277177759417267,35.54838471355112,49.94872588494029,54.95984844576388,53.57826847927066,51.40996791203641,50.09493494266461,47.78310546154131,43.206226195017365,37.608750796950005,31.51623054376878,23.654260850609774,12.838298439379638,-0.498338826979616,-14.98937836010678,-30.49539899680053,-46.705059804630125,-62.23065624518019,-78.71846677870742,-97.58060239155951,-108.68762211646396,-98.51946489732174,-69.04843715140825,-36.69418366435878,-12.632507076043513,7.615987960230699,28.903452182099933,46.84402118423041,57.978833756748145,64.7496859989273,69.33909558840497,71.34004831425648,69.72660572679521,65.99368802154089,62.66699056668195,59.667280996244365,56.45081649700321,52.791586176900516,47.22651627476528,38.35773743555054,26.50747178915465,14.564280238762345,5.174624743344429,-4.130882099155637,-17.010582014774492,-31.7967323885388,-45.604416300817554,-58.90049106856956,-71.72797556324815,-84.07665898942932,-98.40539800896138,-113.79058268962265,-119.57876258541306,-103.4144910691189,-70.74880865867557,-39.32197152754456,-15.287971996641689,4.766184569798142,21.236241975784612,33.40442243635918,43.12166501024921,50.60845270131167,54.45462893943968,57.38253687613312,61.1913806118023,61.84090753223264,58.626404495109654,55.9005383093846,53.977794915336546,49.50362401047592,42.72519295404168,35.55593904057785,27.285905508926128,17.18317125863187,5.483138265103463,-7.299024007296627,-18.645152799312722,-27.21983675158017,-33.3143503143788,-39.33467394640873,-51.5004188351253,-70.24865374076624,-83.01003077098328,-77.35108459140642,-54.37784513917606,-25.068275101626224,-1.3847385989771552,13.038932729178722,22.995039437195064,31.2360410412123,36.63361108194675,37.35084121779318,33.355301103427564,28.182548169497007,26.826064303508065,27.780206829043333,26.388269928176832,22.391743113303956,18.108495244743445,13.918910463350992,9.776643514129297,4.316511113287715,-5.245633299997023,-18.30088595169464,-30.227301134184646,-39.59076664196112,-49.02369533686563,-60.87470118988646,-73.2615156838247,-77.42707835006698,-64.07927644725845,-36.37999741193553,-9.55725645421579,5.269898607773698,11.845116360748843,20.50782467739409,33.98497336582175,45.31263868592429,48.092287884435564,45.975086016226435,44.933787120900526,44.196223468124764,43.10863056049973,42.291566901411706,40.90015588395556,39.38417619046225,36.78673879601238,31.98475808254002,27.06002234227873,23.535335314874146,19.675016182943864,12.087908402713207,1.4980147927264666,-6.753577283310702,-11.47750787773885,-17.634012226881335,-26.9689240181392,-36.75635656696472,-44.14516644924185,-49.03290988693631,-53.29062739860086,-59.5461750350751,-68.99162801913634,-74.97523683639095,-68.58796485137759,-49.930734461494225,-26.835880500941027,-7.268948998920954,5.996544714532695,14.232413734201849,20.933296167043295,28.94593423813337,36.52564857018394,39.916297006895995,38.650959156495,36.013008960617725,34.857651440195326,34.519746095648394,32.63167438388967,29.415699238686823,27.43427769614978,26.001600010889803,21.83490209323261,15.907795625793975,10.613679593594453,5.706250117190556,0.2707454451658957,-5.2179336458228445,-10.733209655679548,-17.99107969083644,-27.212717158910962,-34.40553996810037,-37.481799838166005,-40.87696040419493,-45.91375341585155,-46.32246377148563,-39.439493007138395,-28.346499668799417,-15.041243729856767,-0.7484288332913166,11.670165346084035,19.648804804126137,24.519003874803133,29.35431946183707,33.3908384221042,33.190683100092556,28.106872426258384,23.133974817063045,22.580277976510963,24.497742595870545,25.444530402138373,23.86571571119511,19.11334504844376,13.45517968516262,10.106631256354232,6.527677649080303,-0.6207982882483631,-7.436900204328436,59.0,95.0,60.0
