22.55134644800928,3409.762974565132,4521.095432822577,3952.0215947690795,3346.675039561038,3122.3182953895766,2920.4843090016625,2614.4929358138893,2319.450315126884,2077.006428332116,1839.9892595449787,1586.4494493858094,1331.5841503665788,1087.1713055164846,854.0110862412715,633.5602245542182,429.8147401209315,241.72816869616813,60.835330789662684,-112.9064170639677,-249.68298513369066,-310.5532126311831,-308.54754274089504,-303.50479254016096,-329.06939859160104,-374.8381587751323,-422.7858774141409,-468.5688516343641,-514.4151935824439,-556.492581073299,-586.0710524979619,-600.2992598983647,-599.9211598664617,-586.6792881436969,-567.986880735041,-552.8346294737767,-544.5543298095947,-539.3296386881088,-529.7677390665614,-512.6543554874578,-492.1666340564441,-473.26580406597765,-453.7238434623496,-431.3153077288966,-413.614042678946,-400.3119530468884,-358.990541936155,-254.76683108652776,-109.49516275170042,16.42184875916433,96.3734653061958,146.39508030144398,183.49635817496295,211.58155161364382,231.83588998408146,242.1558786136675,243.51078346359714,245.39476262340844,255.0327831085561,268.2773785563024,274.2878182181994,267.26383539947653,249.92624070788614,227.77505115902358,202.14780346616826,171.58924932521302,137.79230332062446,105.87542771639848,78.69797327557438,53.38113646591253,21.8412215491861,-21.129204931590092,-56.00428027477421,-40.456205788995646,35.72329473647423,122.69042328478523,169.05823499814178,172.4150169743449,158.5391864258948,144.72231913422462,129.0078198739791,103.36420038735206,70.96172589953125,45.67137656692737,34.46490469972806,31.180756126672968,26.89913716002544,16.288014150444297,-2.744528479708616,-28.084710343327295,-55.65370788017111,-81.31237705135192,-104.63100652976031,-126.24428239917405,-145.2010043282674,-160.85122343575463,-174.98029082324442,-193.6193037327146,-217.53587810362004,-221.48314819253798,-170.11713225905646,-73.10051963311413,13.959186698387205,57.24175177560747,68.3275772291392,69.21835781018011,68.21685678862367,62.50089101038578,47.19940075882833,27.394938620263748,17.741241527419074,25.762369087326196,41.78349147847637,50.83407572444011,46.53312347284645,32.278330833278595,13.212332834271436,-7.759744636080572,-27.274310321146586,-44.257844545014606,-61.063755510234074,-77.60964022305201,-94.03079653860328,-116.61817856794923,-140.20475397576405,-127.73178020713728,-53.4985334600471,41.86941067555125,99.44317285767718,111.74666733370309,106.00714882680607,99.81014041321593,91.37684322026428,73.69432341017699,50.88543827827751,37.64900232377715,41.36050831700991,52.78746230177332,57.89519920494115,50.906541466809806,34.856391569157935,15.026466240851681,-6.7226245304596155,-29.25628273995894,-51.28128363744909,-72.56655579205405,-90.35678704273766,-105.08968359717548,-126.4192893640986,-150.49703901693556,-143.24310038061338,-78.20058576782148,15.976201882995138,84.9066650151099,110.4352564304202,111.05732186227686,107.19015433508966,104.3218443103637,95.06655439142882,74.9910742258525,54.49437223767437,46.35107647644718,50.696615361558955,57.59025953965402,57.130947439879385,46.43395542792151,28.288457139556698,6.1235301548718235,-18.365469639968293,-42.31780739768855,-62.38798832975608,-79.81427664676531,-97.91566208487009,-114.13752375665362,-126.05850384368037,-141.04733893942645,-166.48400559360817,-186.50567260151223,-159.92007756862628,-71.76980253282322,30.790534536309234,94.83279559932963,115.82448919718395,116.79602321172479,113.6022139745608,108.06997880510121,95.03572519763969,75.65011634620294,59.84532058083023,56.43848318002549,64.50430684023014,73.34075174096917,73.75171103448062,63.87460122369121,45.16823625954966,21.274149099278976,-2.756789491503474,-24.213695724426035,-43.91642769266415,-62.165981862074844,-79.13104624490299,-96.12924214081194,-113.27328855274509,-131.98854371762218,-156.56238843983795,-180.2731444829966,-171.04274847481085,-100.62323896723977,3.9645814973370763,84.63605944354326,118.6058624952525,122.73641024118353,118.02937625274785,112.0490904180198,101.98376487779272,84.6048130801851,64.52597828455748,53.18400261525008,56.20705498739128,65.18491435412334,66.6690357764597,55.62564346862998,36.29167915751131,14.474142038182494,-6.8499547138090735,-28.583235042943045,-53.083746593741076,-78.8631491964407,-100.38638782597167,-115.75317096213422,-135.84772185279647,-166.98007040233705,-179.04303119637206,-128.3496815764867,-26.945598825076015,61.36880053066797,101.8965782875195,110.06441446287894,107.52611227714563,99.72009625561752,85.91710556773175,65.27142048987231,43.22237430078716,32.208156643803704,36.522742703457695,46.58917037479326,49.33151088512827,40.928932281636655,24.137923313601604,1.5818038063575688,69.0,122.0,80.0
243.8503839223564,220.79788766233798,193.84507616182705,161.95774252833334,128.1555140347159,97.55053440266329,71.46677857629203,45.34122559639237,10.405150512563479,-33.79074110623246,-58.33355174242518,-23.37217777621367,62.70401552919036,141.33592213907457,173.4543897685964,169.03980359530468,154.3126256162269,140.79352170154849,122.78940519091678,94.15521357360585,62.33959430576875,41.0680614099737,33.15105647022809,30.342729479024875,24.648231316769266,11.633788500324,-9.583377228326714,-36.028054418282245,-63.371971452381274,-88.22660518686264,-111.07645074489139,-132.04642582385992,-150.0495830680698,-164.9054078979262,-179.57570151282079,-200.5010389850438,-222.54036062367564,-213.16696218807374,-144.68556272629104,-44.46205584847995,31.100414598585793,62.624655930128846,68.9756284718119,69.10108364508481,67.33259708806885,59.108863846933275,41.36577458884996,22.92904543543844,18.372469014967066,30.296600023522995,45.61804895897884,50.9491028549856,43.16140898910243,27.117722078053397,7.215882764036764,-13.689832483770367,-32.35407157100271,-49.055763942112875,-65.95571125273533,-82.1847122147608,-99.63755167761532,-124.4113266000545,-142.37229031582604,-112.13687042724057,-24.993792949809283,63.881289747830586,106.63122320875952,110.74559479710518,104.05791276865513,97.97378973300475,87.34881398261125,67.04756273735055,45.45735696065782,37.09996738470476,44.56672699927666,55.36381543188195,57.116901354494935,46.93092177144592,29.364220892342647,8.917591116299743,-13.237582211618427,-35.67729476931541,-57.56319930373012,-78.2296149002388,-94.60556403199854,-110.18040258484257,-134.1269906999338,-153.49402586263318,-130.2947911747539,-51.40795410451626,40.26961678988128,96.30932638349144,112.05956523761834,109.84183228856344,106.42808733780257,102.73854548166503,90.18029101148146,68.40412560214692,50.58581845707541,46.65774290181619,52.95008685014486,58.495242576354116,55.03084062675825,41.77692403270178,22.199485778776857,-0.787716571598386,-25.525624499010647,-48.57834035802953,-67.5023126388725,-84.95193928764407,-103.03422255031965,-117.89214345766746,-129.55858896058837,-147.3929757685628,-174.40038989464819,-185.40052662750483,-139.69921353317682,-40.63365441606902,54.430781902190176,104.4220743360654,117.17307483882298,115.98505383452336,112.44617348048726,105.24533772885141,89.74378318499579,70.21202736138946,57.39551315565738,57.94460236749224,67.5265017984454,74.51841262732002,71.9251321213896,59.26090230837126,38.580749629183885,14.139881218487828,-9.220809530763034,-30.036133171068837,-49.36195488717464,-67.14275453472791,-84.00178771983926,-101.08396151748418,-118.33180580930262,-138.38254917881332,-164.4461036210351,-182.84608539663577,-157.05108093634948,-71.26573094727979,31.757337116747188,98.95147779294503,121.74838804178562,121.67321728621124,116.440537037105,109.78158199950235,97.70725699570696,78.62155522538406,59.86781077462972,52.69607625073814,58.83285595419799,66.8343457986303,64.6897637720675,50.606199925159906,30.040833076809943,8.230375526527256,-12.964842901969924,-35.33475227938494,-60.606486601660556,-85.7762351745075,-105.23321931394376,-120.37156488299176,-144.21706582005072,-174.69157967666123,-171.84154441119793,-101.77051045958287,2.6041689802724326,77.9484101099598,106.35101764063137,109.92640392105154,105.82533374111813,96.40331534765231,80.61934071412915,58.524883658100705,38.431862947461354,32.085381061905565,39.48938756633924,48.533529778250795,47.94726230611632,36.83465183037578,18.034688666784344,-5.27203703608264,-27.795478723045054,-49.77652426591094,-73.32293177572919,-94.5669785129802,-111.2070619669025,-128.43048834452603,-152.49746689369294,-173.23783697038903,-154.77238020387304,-76.83232189135559,23.193336103031243,93.65486863410415,124.40198891507451,133.2444884933762,133.89095114139946,127.43603850934873,111.82031462976904,90.35523615915083,71.13018024481138,62.44871871338755,65.89167954966157,72.54380572052453,71.55300532277153,58.841167820423514,36.402300329337024,8.463152104462369,-20.894186880629977,-48.18611879947734,-71.43087978141182,-91.95535819832936,-112.88363990374364,-133.12871705547673,-150.22529074890585,-170.34732544034307,-198.01973701663718,-209.8798768930253,-162.95726404118133,-55.70729370340126,51.863456434305796,110.45812984724382,128.0328078996441,132.91718743378166,135.45239135926462,129.84076605736917,110.65150022383293,85.78786061448365,71.19486800766434,71.95008197220459,78.1733807820504,79.99601168665089,75.2429044598009,63.44575023603603,42.459100135299934,15.844144291559443,-8.78366401809002,-31.236535489409693,-56.746380662635985,-84.88307470571654,-111.0587094511481,-130.47036427888492,-144.3605084618944,-164.42475313695968,69.0,122.0,80.0
-140.28586316135573,-91.24832459324367,3.567849818055172,81.59312904590458,110.47775225663612,108.98680961970476,102.27500571037731,95.75867845840666,82.40194642740305,60.244498207640625,41.22331791788387,37.99256026361279,48.03759981491762,57.116634665165805,55.28768441398291,42.34400264753371,23.663083761550848,2.65519685011738,-19.770608390869967,-42.04411301568912,-63.776537181215986,-83.4858826790641,-98.711529108868,-116.13777215577075,-141.6728671633356,-152.7689303731974,-112.23623723641599,-23.52233292088388,61.23078188783714,104.17043481585527,112.24661822135837,108.63654768076583,105.71893431140106,100.35005778540913,84.41140171157775,62.17833731262046,47.941263372677014,47.86489189078292,55.1204040950406,58.59054585871471,52.08701127856082,36.597851199131014,15.841261667099344,-7.866011329009316,-32.54051099437235,-54.44962794953936,-72.49457125234107,-90.20251033178022,-107.85264859325106,-121.29827659224088,-133.60641456728303,-154.71085903395252,-181.1449680590225,-179.22945893764916,-114.57660786798253,-9.99052240456359,73.92319993862803,110.82378155287716,117.45974837715494,115.06364139650191,111.01423709806126,101.65023543550002,84.06947525693157,65.36408015856688,56.13982344611625,60.26409952409416,70.28801433981877,74.84919579496902,69.24820989722002,53.96161911861131,31.671217803570084,7.123811218592153,-15.451895318125707,-35.75058028608911,-54.66987918996319,-72.03664752947128,-88.90735963672294,-106.03031758799953,-123.60352296382078,-145.38848637656787,-171.8944753644349,-181.60659221994314,-137.5650864069158,-40.40385584233722,56.191564207534284,109.35871013365006,123.03504442501583,120.28010204818831,114.78480648983663,107.04448506630446,92.77661320614409,72.63177439800363,56.245931909557896,53.4234537210493,61.61346431094266,67.55657344966271,61.66426646571287,45.05271952536997,23.709100670425872,2.065119028639737,-19.175760456946325,-42.36729479651841,-68.14202676037391,-92.17208131417051,-109.60473996091102,-125.81028110947732,-153.45620404407592,-179.61521615189207,-158.48409445864206,-72.08717388478335,29.334634294123475,90.320974035039,108.8110936808332,109.26196953164784,103.68436432591706,92.56095151559128,74.72659320578312,51.90894841912896,34.88453079062018,33.19840555585546,42.58676520287865,49.585434371778014,45.667645935432084,32.10746175210285,11.521012557922274,-12.00669141417437,-34.02501361750029,-56.49276632900699,-79.92948159934743,-99.74816542566728,-115.76169877986871,-134.61813055316995,-160.05248668680125,-173.71217871176233,-137.7882388544708,-47.4728729487484,47.94913043470515,106.01736845930807,128.3463663422855,134.0314593808626,132.8977815772665,123.84472938923255,105.91747844108708,84.1625844276496,67.26815916250257,62.42264044352889,68.03847464897177,73.37564598727812,69.07472232531006,53.185006047302686,28.700619219204274,-0.03720470546186183,-29.125455355686068,-55.33256641663692,-77.48997686319711,-97.88663533092459,-118.99026708011499,-138.31805297688922,-155.26414541649038,-177.89601482822354,-204.99559842878813,-203.79942206177094,-136.30044151678493,-21.495158269380667,74.457052821317,118.38726339289452,129.8410330690068,133.97866205844994,135.06214956477055,125.6449706540743,103.34213914328501,79.94113030720398,70.09180767534274,73.75647444102874,79.3782669292775,79.2677944555862,72.66759236417555,58.33670929726914,34.985514403121364,8.304009489679409,-15.245485994899628,-38.16660855821489,-64.7817847588889,-92.87867609537005,-117.5090607308258,-134.68626417954926,-148.92691075625203,-172.61428929277554,-200.35000959903803,-191.10174744270955,-111.07373082973443,6.380035867813896,92.56493664958523,122.50294747204161,122.00910617087567,118.50920458414859,116.12943636816772,106.85169678800565,85.93501539462277,62.80902489868186,53.688292655519305,60.52670841835052,69.38696569898207,69.16213122045879,60.51012137470425,45.86705740628547,23.902254537271652,-2.348440141522874,-25.47863754524189,-45.1771270700903,-67.12749968163283,-91.15484536464173,-109.52515960117908,-122.76170129698455,-143.3816308523119,-171.54097098821342,-172.12205472725043,-108.51369373410833,-3.1073887024291755,83.36164425781108,122.10979003857119,125.85466457434993,116.02325425335091,102.7337884827291,83.74673029322095,58.83659010504448,38.39708071973639,32.16419930975028,38.57075259038763,47.17820096591702,48.24596846872071,37.303211089007064,16.63733701705568,-7.22207090312589,-31.39416613677888,-56.07942194515961,-81.32007940539499,-104.61711372507159,-123.25517309769074,-141.7909579384919,-165.34374272825394,-173.54453452792336,-125.92903890733477,-23.64648956478147,75.37058810278363,125.0131839296458,132.3605823244042,126.84800970228457,120.63544809424616,108.1849878450748,69.0,122.0,80.0
78.27898887307401,61.35473963865851,56.082529314906566,63.10694291830026,72.53340982341415,74.30107415647949,65.75159567191744,48.062352703367544,24.572834612179317,0.30648903225991464,-21.485970798182297,-41.36448140634578,-59.83240400922826,-76.89304061689978,-93.84576118933045,-110.97862006151927,-129.2328702862025,-152.94794147897122,-178.10045446634393,-175.60616710552003,-113.20267235850886,-9.703009136939862,76.6319735420676,116.3578389090949,123.035273262205,118.75125971419496,112.97152807815758,103.72897330143567,87.28250605698129,66.95127310352215,53.848801294153546,55.15378216481096,64.17395875038089,67.20772215627451,57.71542760093843,39.117766016878086,17.377462199983896,-4.0416784483060635,-25.561341211812724,-49.655534498617854,-75.54164274192962,-97.94550164768577,-113.78488528990711,-132.38912457304656,-162.86306450665631,-180.4020590432037,-139.1115537450289,-41.130396064453834,52.24638419164847,98.97562720176927,109.8939655375649,108.16841465587359,101.08138205024034,88.15190393010343,68.33588785151703,45.78276358640344,32.725269020897436,35.30391289717029,45.444632384449164,49.64388612484029,42.5911335297803,26.7823698891853,4.746179276150577,-18.550580577663,-40.308236322934064,-63.339635872596254,-86.19474965011595,-104.55842154744967,-120.5610739292763,-141.50747127993762,-166.8147566628298,-169.8099421922001,-115.81083504553203,-17.770323671648665,69.23284990000462,115.29776894208544,130.98528224282015,134.33035225004502,131.23477344710957,119.46671434658397,99.67133785728875,78.3807455420651,64.47425716109265,63.342540198259,70.14573408878219,73.34704287724946,65.59804790394863,46.80415935725698,20.649453804500038,-8.56518508194149,-37.10305029002049,-62.11505875557779,-83.39535465857372,-103.92444142906807,-124.94015978975551,-143.22312937782667,-160.82769470587616,-186.06679403057484,-209.69684358013984,-191.73919852410532,-105.30502574465827,10.851220686930153,92.30131094019187,123.60377974040354,131.20729908659496,134.86030378280984,133.76064190204653,120.25952618523301,95.91523767682396,75.34368954474151,70.20324323638368,75.6857180967753,80.0493984959899,78.01063465478272,69.45743214041308,52.41241167870326,27.2239670571657,1.1040701402347581,-21.642180732909367,-45.46497925954858,-72.95019309324954,-100.58759898405886,-123.27816346093485,-138.5771453482531,-154.39518928104528,-181.43518524037637,-203.78728827049304,-175.2465192797912,-77.82998465246887,36.86920727625862,106.44113422134241,123.88855236322722,120.7104081418127,117.97970335112996,114.55036547787876,101.89743818788229,78.7038518026661,58.24109319844613,54.470422805730664,63.594974219235226,70.40518323065349,67.33911356942853,56.923297238345974,40.302463986829,16.413498247483076,-9.569497870922499,-31.28898076866011,-51.0889451676296,-74.15241751776362,-97.32444226243084,-113.43590380597372,-127.4137538189909,-151.61896878439683,-176.7601123495504,-160.73800229339315,-79.7185728339251,26.1094535209647,99.41217368064167,125.74590127100775,123.673807279049,112.47953867416784,98.04249684075049,76.85573311790951,51.89222373252271,34.9609876477381,33.08974897125591,41.34875263871173,48.563591846372965,46.36286420112048,32.04787515653519,9.836691953134977,-14.1822439209851,-38.451038112523136,-63.35971711752963,-88.43560685280468,-110.45677382584846,-128.22107102541244,-148.2714210262322,-171.11113687015157,-166.8187880484021,-100.08712353589091,8.236208518766743,95.42655259611242,130.138277456311,131.06821494437378,125.19121188335467,118.04243765565106,102.58427531949158,78.61830881692526,57.89471302971025,51.15094147317496,55.76331877779326,61.211436972921184,60.30598407481482,51.24884466604789,33.89559036190101,9.51928612287121,-17.279608931752442,-43.06279976211197,-68.3590294129619,-92.85331937727157,-111.88944471818014,-123.38405509028433,-138.55691731736542,-171.40968504162743,-206.58277853336676,-195.4491752441186,-110.44383039125555,8.233109567435868,96.19206904626377,132.40038912487958,136.38189653629468,130.96528001302124,124.7282109258537,114.02319316869924,94.07602625359199,71.57185446219927,60.26921208286532,64.5227021842395,73.82474228324558,74.03791937951746,60.38037436850098,38.785123009287844,18.098399798051243,-0.7082678777468632,-22.68238418223,-49.508232864666944,-77.85307788049735,-101.34006381823586,-117.89596340327226,-132.24664310477817,-149.64284646683635,-176.52228658972487,-205.44911625386993,-192.8211125564856,-103.69479877824364,19.6081975678073,103.71591795461173,132.90250120782557,136.2777131470254,133.8324581996626,127.1106841610679,113.41611046841814,93.01692587434398,72.56545623354354,61.69706837436741,63.55445916183425,70.99637544845777,72.70780907605793,63.034786315911006,69.0,122.0,80.0
-2.1199788298219433,-24.908603093388965,-46.74361669197454,-70.19802817563969,-92.03065110908942,-109.13090102646373,-125.81018219593214,-148.9614659187163,-171.82133256785994,-160.77623281068543,-89.80856979567017,10.7747568455222,86.79589811693742,122.01626290645068,132.6937090291868,134.1497023995714,128.8187373666173,114.37568694615851,93.28586887643128,73.23244048915984,62.82400677645722,64.9766185740059,71.91470307766426,72.35220777660473,61.17679341436234,39.80607303562044,12.348522661156247,-17.033536154388553,-44.76862083976912,-68.55929382341789,-89.24845796581504,-110.04936321444117,-130.62114501538773,-148.00098731744345,-167.14569762378363,-194.36206481357547,-210.86740921672666,-173.43188352545286,-71.6225796937073,39.882780490734135,105.65655334390429,126.93130675315626,132.39677371932953,135.38818227960627,131.35645444927786,113.86262007929103,88.82345065587184,72.16852735263888,71.24637550912992,77.4642260104119,80.14532557695904,76.23811845477414,65.52414783016131,45.74528339969326,19.40734513298285,-5.735268596015517,-28.153004510395252,-53.11698901228253,-81.1359818326429,-107.8760963883341,-128.35010987738866,-142.46507282113637,-160.9906307734289,-190.13070319770762,-202.78932553004273,-153.073142930994,-43.07416937387719,63.14161408191845,115.69278716168795,123.66656563423896,119.61331405118388,117.43260114428878,112.15485437345349,95.94517977301831,71.68923897195927,55.20989198639182,56.414894433265594,66.40068199733324,70.51945086046356,64.9248219651584,52.84544124175104,34.07297483899059,8.73571531195322,-16.35829357893877,-36.91669341100775,-57.340789792525634,-81.23074581135019,-102.8025565128452,-117.09565261649566,-133.0665552643764,-160.2181246383718,-178.43189231407163,-143.40278166156997,-48.734449225417286,52.248622973833974,111.32179042594916,127.0277559091253,120.8291471173558,108.74206609076165,92.7293975261864,69.57503593793503,45.65831830146189,32.87108015800195,34.9042859132434,44.011397702061686,49.13039052807769,43.41633438084725,26.11757417658983,2.9291044962240336,-21.15656250853274,-45.563876600884754,-70.6794054520934,-95.2875707602229,-115.87191577808345,-133.39461728532277,-155.23130682732506,-174.70444373610871,-154.43016937383052,-70.43780568716781,38.084164252995066,110.72053004512736,132.41087421290516,129.3850000450198,123.51485259934874,114.69803203166067,96.17841098103146,71.64744293660412,54.346096746802935,51.75202422761576,57.69139623099632,61.75561601971999,58.535321685085634,47.086437599259106,27.42326056508121,1.7906175563458884,-24.86095036078874,-50.36502038756055,-75.65076080556283,-99.16982034973532,-115.78465367354775,-126.56744340874836,-146.1003132978513,-183.11628888273,-210.396365054576,-177.99102649553288,-76.46376271253357,38.83042468578629,111.53664278627535,135.65165801048678,135.10795477792723,129.24208771192247,122.41759961590128,109.18664624665332,87.21852239326313,66.66764244307856,60.1223907763376,67.40153741416594,75.25876238737101,71.42544674571778,54.512125188225134,32.46678555729932,12.676387498071259,-6.547805727818085,-29.99845933619205,-57.800156220937744,-85.39678350738275,-106.6933916984691,-122.02745413160567,-136.7027221177708,-156.20790749810388,-185.92762597116368,-208.57352892376932,-174.70526466582814,-67.9198270957042,50.05779250555905,116.79005245647204,135.18940025454305,135.8818471175967,132.46280247184418,123.95003145861385,108.05104639801813,86.66508326404963,68.10607118620308,61.065694141753426,65.64052099444774,72.50835802447463,71.07918321956588,58.43231716565627,39.25051529380956,18.012430477877455,-5.103938088924943,-30.495245295850182,-56.150575486961046,-79.44850008035124,-100.27028759290694,-119.22602091200778,-136.54745566763722,-158.5671164480424,-189.44266596862235,-199.8395106180427,-142.37919160342585,-27.277033217090434,75.81329121914806,125.3618180832109,135.44819471688885,130.8168332029668,120.85993752838456,106.15759643623896,84.83135349693664,59.58960954562288,42.40815264703207,43.06940441016978,53.82003168717945,58.133910544251776,49.32102223062011,30.920440741945306,7.339789842759609,-16.884302678525668,-38.61044864948644,-61.51099766948131,-88.58943961850733,-112.71934720097208,-130.48371181492837,-152.2726086221892,-180.23427038243852,-180.39533072915575,-112.15964455701088,3.3548684144643683,98.32033344366305,139.3756948867828,144.0323880792078,137.73549712897787,128.02809148311653,110.2995444129891,83.46628965420875,56.77349837223059,42.658742480628504,46.08269257629124,56.70717304424423,58.84578118426096,48.11890833162653,28.847934271996294,3.8448142118064097,-24.594151349404022,-53.104078507955755,-81.65973016782712,-110.04962367584628,-133.28063283949473,-149.9813377249543,-171.57515854342032,69.0,122.0,80.0
-168.72682857905227,-197.63835613357344,-196.2241774373226,-125.35943855357212,-8.772019372106493,84.47069360951227,121.07440503981806,122.6099260446694,118.8003022486802,116.64245232563903,108.7720994948543,89.21180053795044,65.36819864687979,53.804753153712895,59.13281911410717,68.62243826964594,69.77132631992559,62.00935733638696,48.2109646743132,27.230576989186282,1.0993922128376175,-22.694649340639334,-42.53878233452445,-63.963175062542525,-88.11572913231159,-107.55539257196602,-120.87142382617341,-139.8712021927908,-168.29920113490226,-175.37725175594815,-120.59893700420344,-17.293550509735184,74.51630094611086,119.47369465519718,126.53422205773525,117.59603232757452,104.72126137141304,86.73396712203034,62.18762058864226,40.4175023925434,32.10291397552067,37.329656421718006,46.305058955075566,48.75842292470932,39.449227454277334,19.70496744953436,-4.0159541721927745,-28.1557221458805,-52.74459977865303,-77.98200948159706,-101.77220850565557,-120.966840118602,-139.00828469951313,-162.2640368898989,-174.91238334911355,-136.204563587253,-38.584203506872335,64.56473721301897,121.45712519010587,132.68674527851505,127.63465877622261,121.6343368866796,110.45830825471488,89.1954791079159,65.32356929361987,52.13410980923074,53.088957719747015,59.42058958511979,61.66024025289974,56.078324278409404,42.22456955217086,20.425333039881284,-5.9977379152996395,-32.32108094716431,-57.66763744792874,-82.83130508391748,-104.8709241810389,-119.0775921190132,-130.50230750323237,-155.37481229841833,-194.21593824427376,-208.93271296217438,-154.2421514141642,-41.35054793884791,65.46882701211979,122.63045205805813,136.90205135679648,133.4954330235438,127.50818554819914,119.55278745756142,103.5178394331745,80.4592972201831,63.03002301382143,61.22897653416754,70.31469485498533,75.6383441593743,67.65294167347514,48.21774900859896,26.41339841397967,7.321949569281843,-12.780740471354632,-37.705289089465175,-66.0954456930656,-92.35988193762917,-111.51285343147921,-126.11773752897093,-141.53137107907702,-163.7697009718272,-195.0421136769421,-206.7633673588426,-149.84348425241333,-31.231172534414103,75.6872942332456,125.66228715700109,136.16221303118672,135.237276243689,130.66600993589222,120.14781336716085,102.17662862274855,80.54345439052138,64.67189252740769,61.47306141340963,67.92694476024903,73.26937639111385,68.45731084728502,53.28998034602265,33.246564926351944,11.580317114719296,-12.249815360142797,-38.01843367592004,-63.18707757169037,-85.66566846803498,-105.95885217102685,-124.29031687339287,-141.95865607907896,-167.0117381762401,-196.89466607766195,-191.42479302001595,-112.42000481010011,6.801541664405283,95.76834221263799,131.01536702356256,134.92746794434498,128.37373789877643,117.17615116873435,100.7233524445837,77.5651889369574,53.141050180064745,40.73876630597213,45.89552672002937,56.30660299463614,56.87409536526841,44.77016644841882,24.462086520018467,0.18572934582710499,-23.40068828966919,-44.809738891504246,-69.0635857112121,-96.27228080989623,-118.25204947671594,-135.7829148726777,-160.46427512973486,-185.44592170254563,-168.33000701082622,-80.8063535459044,35.572609357247956,115.5972854959772,143.10803076874288,142.63044089867603,135.39145289547955,123.96680325979925,103.24408356799825,75.16003701784665,50.94519353330034,42.003982567728194,49.192093711620025,58.668754463014174,56.929303992080534,43.234786426203016,22.154892372218875,-4.18834514898668,-32.90334138498169,-61.281173311545416,-90.02596281697427,-117.54827042558108,-138.51316956001443,-154.9898152906496,-180.61431646947045,-215.84355877315505,-220.59976640812147,-150.0642150356717,-25.24910196506351,82.17512242238654,133.13202046996133,142.24202848044814,138.63257428218304,134.5590283234259,126.20236585920966,108.74214390690224,86.09355105686495,70.75470944795292,70.11820908802413,78.04063750006294,81.66066102823413,73.17046139367824,54.576218997686034,31.636443491058834,7.081126451047595,-18.452941097491763,-43.185863946811715,-66.18925309378466,-89.76129825641036,-114.67206958110089,-137.8169174847722,-162.04704057056398,-196.00443990555047,-221.50660201989837,-187.15194292453367,-77.91289659097261,44.253606905542654,115.26043189591138,133.0896281154122,130.73663941642909,128.0560082849036,122.51949461290288,107.08316773219218,84.6604195493757,65.89666094228637,59.19094077733751,65.14435664089552,74.87982085556631,74.65793437279454,58.348811821024846,33.36352722663247,10.21795084031707,-9.743971902211758,-33.22227940891535,-63.20880320220442,-94.2319502488151,-119.37254073900789,-138.80548983480168,-160.60816180486535,-192.4439984153749,-220.27850722142543,-199.9120846053235,-104.9341533764248,20.205767181484898,106.78460101384714,138.62093030706905,141.4449755367927,69.0,122.0,80.0
105.27643237816795,81.94845087483854,59.9684302325776,51.1969197865927,54.871226091854744,60.762691864828206,60.891135193610715,52.93263362097249,36.67566959485692,13.026383082650996,-13.742491735215864,-39.68723282565792,-64.98458429203933,-89.77443972094383,-109.84966791995194,-122.03237745728167,-135.66040741892954,-166.11693595079709,-203.39320077367134,-201.24145605481613,-125.2100077887795,-6.938898194116846,87.57741296222052,130.0399810766029,136.76592921970962,131.76653183014582,125.6608292262529,115.95967893327713,97.16617906089824,74.19188561605448,60.80647511787634,63.321629013615535,72.8665973278152,74.82855965068303,62.86955035398016,41.75622609518161,20.660429135836765,1.8758253342244726,-19.45442712252314,-45.72941854168429,-74.21776561927551,-98.66123700377561,-115.94245711619372,-130.27692024307012,-146.9157437233948,-172.31447599656525,-202.74729140186767,-198.79634120326858,-119.26929058333688,4.213168080275436,96.06842305366303,131.2118545617219,136.35332470926403,134.34339634620804,128.36253230365904,115.6887061750076,95.94991191173375,74.92008610793128,62.3684069104655,62.74289472162777,70.1080308070029,73.11473670357324,64.9301312450734,47.76162106824585,27.13935512278153,4.957197545271228,-19.575674479219764,-45.48962375116667,-69.97479067190629,-91.70664355573611,-111.48723675768652,-129.23196952612486,-148.02769172174874,-176.17658712764785,-201.43346816559315,-176.2869920220663,-78.80803116247398,37.94171127235603,110.90687337166285,134.11068952268954,133.64621190784152,125.57421430729867,113.06599052742239,94.68010454687443,70.1233832251074,47.74847762018221,40.680825513532426,49.1762769200044,57.86865796652077,54.51032741207187,39.547770617618134,17.66219564804814,-6.893553421602464,-29.67229495205856,-51.28575437704648,-76.94436541212609,-103.44398804504776,-123.3090841648632,-141.80194394174447,-168.98241514552123,-187.07709425517947,-149.8120227324286,-46.86836401697614,64.34104274624535,128.20459242079946,144.56108448368897,140.80543826519613,132.7492898410235,119.07173395703667,95.50263827542653,67.17703995872516,46.459826009830934,42.81526309007203,52.48605447241332,59.58862152711507,53.982443914102234,37.765239788508765,15.009601359754729,-12.422822774850157,-41.149190783753426,-69.50814528238622,-98.33015412363869,-124.44676902796657,-143.26692172628236,-160.8323816168209,-190.78289999803673,-222.92859749425347,-208.6565267202856,-116.64134289542977,10.489656636920682,102.81244011479191,138.66314118251745,141.53075377451597,137.50337140592646,132.88880248790736,122.14004657621345,102.26051666952803,80.34798204458801,69.08871545761353,72.07436381923804,80.05646931663425,80.53141529625802,68.56559397654146,48.200103760257434,24.672570992322406,-0.2385239388406231,-25.786669719785927,-49.95038584126782,-72.82091160629057,-96.91975682035442,-121.6537397064419,-144.24816929687358,-170.81554164703587,-206.22762357882223,-219.88379158248318,-161.71247641681808,-40.228920329815,71.34531154081739,124.56776149681468,133.09946561142047,129.7994800721349,127.15799426414492,119.18191568743273,100.90794634149994,78.38103161828072,62.519274393075825,59.82750422221987,68.17068161153138,76.36985917746263,71.48978736682407,51.47769201986186,26.196806129002816,4.3561140999824985,-15.864175263508637,-41.330165254320534,-72.43422073146624,-102.27030748966787,-125.33400043203272,-144.38389586495256,-168.75901490922328,-202.4387854664432,-221.52820752660352,-179.57917931647881,-68.41958620028815,51.1803943512445,120.78603831997101,141.13323439960328,140.348329029157,134.172307397122,122.72827548434378,103.07913226360245,78.55108299518513,58.38387672078575,51.956938519522474,59.87691113044198,69.1216354110178,64.73165646450656,46.34983125221739,23.32489352217347,0.027506640723897302,-24.483410266460425,-49.36454110280367,-73.95126824149233,-98.10434292454462,-118.68959946365561,-137.7580774522176,-167.33587384536622,-202.21361959969883,-195.96277927847817,-111.05468742131765,13.642901660225407,103.41342509318913,134.34844341200787,134.81642960271546,131.46743590247198,125.72012127493471,109.81866819756573,83.44001687313502,58.690062287050736,50.65241616234945,58.37606907161001,65.56065112778417,61.20104298324646,47.51003144919847,28.903234495317516,7.067454605110352,-16.904994544532922,-42.40524585225421,-69.43369244722923,-96.96757347110268,-122.02902841838069,-141.81151718626526,-160.8654754771655,-188.9582047352754,-209.304863716239,-172.7030349437067,-65.29955467937367,52.69231533177384,119.8740307542234,136.43397649926473,134.10890939494726,130.1509237255565,121.9633044075122,104.61526772969955,81.4217260311194,62.31297457151182,55.036619751562355,58.43238677588521,63.37143134147535,60.834815064554846,69.0,122.0,80.0
60.63111160678601,41.97671165278471,20.92298597966083,-1.8789577686452474,-27.0317487322842,-52.82966612366748,-76.5127952134572,-97.5996583075555,-116.8296290645804,-134.19379132812992,-155.00506818230332,-185.42106011539727,-201.60108148583691,-154.4857720739489,-43.53125156347221,64.95128715101895,121.68089984188823,135.34514636513555,131.8127965907241,122.42939975758568,108.46379142144258,88.0559563768755,62.814505004993556,43.73271058666768,42.046770113387836,52.441813647116355,58.32134964506365,51.16043871796862,33.756565675334116,10.628240015832224,-13.78870554833675,-35.795405813954275,-58.176714192142384,-84.93849204074381,-109.95377258072212,-128.190315536211,-148.75049818003632,-177.00488346510494,-183.8307543560653,-125.25014906014187,-12.28131229899014,88.70845803596106,136.6717493323017,144.4465615590614,138.74583879608065,129.65494171866354,113.27454207169399,87.31304436257757,59.84644289342221,43.49163060376904,44.83960470007536,55.51288860687512,59.35070081659444,50.146641817472705,31.774839959077937,7.4512206592564745,-20.75001752487064,-49.33818103499645,-77.80986921703598,-106.43027483780203,-130.65478796417932,-147.83383357884057,-167.86885845416407,-201.4622121981601,-226.0411674730953,-189.62626788512534,-80.0842522741597,42.91541005060802,118.4195343598085,141.4470969134115,140.40214042506,136.4018916555889,130.6838339407158,117.24202562731908,95.55904932399221,75.56455003454586,68.70586255309125,74.46967918797834,81.38705093362096,78.29675349916985,63.25682992111941,41.58882218286226,17.600972418044684,-7.628882281070698,-32.985953518131,-56.58411328902963,-79.5812389479325,-104.16192531757713,-128.37874955439548,-150.98199597788943,-180.59854496162848,-214.84479690051452,-211.80998006350129,-130.45487575408922,-3.6069850902306757,93.08683961835219,130.03531921464636,132.2971656974824,129.04718357549928,125.79748232100906,114.8983781489423,94.34478403295677,72.69221549817075,60.29839592232773,61.44981350750755,71.20497540307011,76.68570409349918,66.9663735112081,44.179275802898495,19.40000366204034,-1.3315948599270588,-22.47702107764946,-49.962728863459915,-81.54378447694806,-109.68075729337603,-130.91362687070645,-150.42321304876737,-177.88613200916177,-211.42721640480087,-217.41948196067946,-152.89722639397468,-31.240752753108133,77.49700204863701,130.5097070939568,142.0001572509104,138.91075909859234,131.5966439283467,117.89529521607571,96.16003011892677,71.7984198481963,54.83923293348129,53.11079875618119,63.222658977082894,69.60547960973014,60.480388015727286,39.80729899006845,16.643269920596786,-6.913804174220545,-31.710108546272547,-56.46820554731768,-81.06688392040382,-104.55167084974758,-123.92195513193157,-144.74783408686187,-178.22050853628116,-207.26111842357156,-179.41823657547658,-75.58554221046302,45.622680814665685,117.68145640974102,135.98466258442397,133.75812967799197,130.42051538071829,122.4035835090056,102.96801660840956,75.33700760701372,54.27167247677473,51.84679842938368,61.272956794002354,65.56850281624374,57.953658015195,42.52900420009799,22.88072872672333,0.3138650279625119,-24.11626691512293,-50.068426381367615,-77.43314852526606,-104.63007075432385,-128.30792059863202,-146.88356599623305,-167.9575761875013,-197.5392995163396,-206.62814398744788,-147.4070193499068,-28.697425904447154,78.51615375030318,128.52580460067261,136.45662911637362,133.00508269234388,128.54215459951507,117.92679002157159,98.1405308956538,75.01185369251021,58.857521485786485,55.21400934958582,60.2056653892065,63.60754985072815,58.41585866795294,45.65723036582691,28.253226825284436,6.951104095317475,-18.75157186960918,-45.7311473365718,-70.24762178420785,-92.19219086841878,-112.69427604299149,-132.9981826335612,-157.9879488068628,-189.5764394157613,-203.75105857289242,-156.40619072768743,-44.4657206998788,70.25852522294116,131.8136128559186,143.01605310237062,136.10150890302913,128.521165139251,117.62230125739944,96.55534283565528,69.85240961114965,51.76026588437158,49.194958882861414,55.720067127876284,58.927785568207646,51.859319930021094,34.92995536723532,11.399045537969732,-14.355163341086428,-39.5862674635829,-63.46593565774434,-85.80060649977175,-105.73538184802189,-121.0199603095186,-133.6073908234134,-154.88827606442464,-184.93593662663363,-182.8778245932215,-105.27037820874702,16.10111331409535,104.20636820228738,134.24102821643226,135.55646687077623,130.56624721952699,119.98748419451157,101.53362002316373,76.51024045522591,53.019856581345344,42.192974209286874,44.47148390184535,50.908472762633906,54.153915889741015,49.11894424199005,35.2006353621409,14.928240415380616,-11.331197863589596,-39.29494857976192,-61.81955189185708,-79.83201556384222,-100.02605559881808,-119.87309709823536,69.0,122.0,80.0
-176.2834543895609,-211.65797583718944,-223.77418850331878,-163.9046083762235,-42.423555945853444,70.92821093515359,129.4271557811224,142.29665273943098,139.18002201553784,135.1967174626148,127.79549477601726,111.5742030567363,88.9825654870401,71.97201701179698,69.45482804604589,76.95777614378574,81.81191329924394,75.01008391944895,57.41078559627648,34.80807800891962,10.424383654012775,-15.04357946388317,-40.009954751673455,-63.156739706333596,-86.50935784519231,-111.38315311325212,-134.8694198627962,-158.35203559016642,-191.0959357943735,-220.4007171229092,-196.59807864847966,-95.06068522250223,30.100403243692547,109.43780913090629,132.612664587642,131.2243834101645,128.38337019972852,123.74674329946001,109.72752360880119,87.68294701729882,67.81820395765794,59.26980343112058,63.84970720899129,73.87428201798635,75.63206283282902,61.284832316761616,36.75544633033833,13.024298278326171,-7.043773091914272,-29.68685937736404,-58.97581882098945,-90.33460515579631,-116.45211822726388,-136.31194061049575,-157.18667599864426,-187.76403355401905,-218.2359610633558,-206.99702743350306,-120.97576951945749,4.610342616665708,98.71650470663896,136.71818661245413,141.7876208087611,137.20474948846658,128.47755680301754,112.33817892992661,88.99005090770882,65.67350326567478,52.64344048754969,55.35115712974499,66.23027852329632,68.66620685992359,55.232729668443554,33.12135964811101,9.947544044919873,-13.985405336395596,-38.91665575497142,-63.561716201753185,-88.12131364014,-110.58931557711752,-129.19949590223814,-152.99256047828928,-189.0550174715384,-207.3313871820415,-155.89052971741324,-38.62552316460817,72.9940127843141,127.20344095138339,136.04497468860637,132.78097132446314,128.98877021120853,118.06414486270009,95.34307919372205,67.79322862256961,51.55914203592285,54.1083003273595,63.65195929985747,64.50060459513274,54.0721407128007,37.21156765178832,16.61190770726936,-6.588311744194033,-31.45179335063061,-57.8602414834547,-85.43326649799063,-111.99376725565062,-134.08917001315984,-152.13570275584743,-176.03445946920687,-204.61054845759543,-197.80979824117773,-116.63229013629571,6.711284314698212,99.08739122220825,133.5908470861914,135.69941061971954,131.925495908863,126.39197166964183,113.05975447082987,91.35246929973218,69.2202189130789,56.51350774167233,56.15941209260495,61.822476266995416,63.05882048301223,55.36168759873157,41.01094479222228,22.54567165721588,-0.07518709948817937,-26.634748826639523,-53.13822335888512,-76.79323773022575,-98.23146542465325,-118.46390927986174,-139.4235430598915,-166.81975300294798,-197.40239303376828,-197.92181365368165,-128.84093018907012,-8.232337827009928,94.50446178810856,138.85065300062186,141.6346324277036,133.82452268635998,126.10036082362105,112.67976287164262,88.83748576929449,63.16708572904838,49.488035070980615,50.68406952157534,57.47367906095266,58.01485608455047,47.8695557202228,28.62033854462272,4.011556266983757,-21.754993996665146,-46.63992711761484,-70.08483032043358,-91.89468631583715,-110.70823024895829,-124.57801683173396,-138.29553152976075,-163.64083367280062,-190.29445806885374,-168.60406159235865,-71.19128827035988,47.58975986877148,118.03270792500756,136.04323037413027,134.49202676154513,128.24111260709893,115.48841910928716,94.78236855849474,69.0125643111071,48.2840652310525,41.838308269328465,46.30632856857356,52.42158966501757,53.710934469766045,45.872840989395215,29.963425863397333,7.899016443033459,-19.58664281690706,-46.549300096704755,-67.1617572441472,-85.30799602120625,-106.1552667834316,-124.61532709571016,-139.78493779204138,-161.77064446547777,-184.18133634198006,-166.2970739008389,-78.66125143585907,39.78770522159538,120.9328649931515,145.93005796595858,141.11387845990285,130.87569456710946,118.99606480084041,99.53966713159932,74.20790307526259,54.52607493943988,48.94541220286698,55.39053264304862,63.63881148397947,64.31741745662137,53.86058138914253,33.471866323347164,8.836031017826613,-14.749431156902904,-37.65584799328451,-62.00536035729938,-87.06385727038352,-108.96702323912822,-125.03257001444263,-138.62910020956474,-160.10347920720253,-191.4152430915747,-201.25916987039136,-142.2516296678589,-24.82346580376973,79.27464658466099,126.03464828656384,132.01138045895803,127.14730574453334,121.55878729754178,109.03644588397755,84.89560532469119,59.246757977782465,46.832129834584016,50.28823780778929,59.689122424515524,63.68829927386592,57.58243712665609,42.61513190496023,23.766155950085075,3.388050909283421,-20.304955481023608,-47.94922125211131,-75.1631204027001,-96.64526795732901,-111.2679275257651,-129.511177399508,-160.7344992326497,-172.82752221609132,-113.36346409004354,3.0393661317830656,97.87111000816773,129.49340166050476,124.17515245194835,69.0,122.0,80.0
140.9048387784777,135.21035623164366,124.70714681273495,106.12844891700279,81.80151723733726,60.43527174530067,51.85488167981967,58.35079054542959,68.45916135804447,66.28657497944376,49.26660764682218,26.411576297694833,3.183115797655578,-21.156945675322408,-46.07843290942287,-70.66875261921085,-95.01390271116236,-116.21294999097023,-134.88698613337135,-162.54838843168935,-198.62725276311565,-201.15512580629712,-126.31387754338192,-2.3242105944395774,95.07050054801765,132.8135164558677,135.28556078698875,131.88661152089617,126.93498312820145,112.65975941552279,87.23655371035038,61.25625104682763,50.56763356000947,56.98075408088387,65.19137678868415,62.44454612284991,49.68019966427287,31.590368712196785,10.124026883534452,-13.621174470721925,-38.917743992278524,-65.76206089975732,-93.36080480341991,-118.96713685271737,-139.44308892697467,-157.92518720418073,-184.82657154566414,-208.77256592765,-182.2056829257542,-82.01069160162436,39.136318364599994,114.43817720023425,135.9850878746676,134.62810395311539,130.76260998924548,123.5429287863977,107.43098489141607,84.5140941416835,64.26693534635612,55.26491071517334,57.64191922035981,63.02007975242625,61.71275082767643,51.75618341654631,36.04251613312148,16.492748743042863,-7.467980645726657,-34.49929644703275,-60.27936109156667,-83.15632932473952,-104.17012665542907,-124.25326836611046,-146.42682547201477,-176.1528488881075,-202.81818522646,-185.83568912791117,-96.55659708096768,26.2562725588963,113.43355565028966,142.34841869765467,139.5377092125165,131.66750327448648,123.19441764285403,106.76051026067168,80.9235597672197,57.573404272735885,48.54070181998931,52.66069261710587,58.642410019087635,56.171944579010734,43.10992734081427,21.85577562110136,-3.452330932071084,-29.073797241008304,-53.56933954005182,-76.57552025961402,-97.75087875335181,-115.2238390504186,-128.0431680883517,-144.09480795862564,-172.8468639647098,-191.49155026516965,-147.3274649308714,-35.21965067565326,74.49008245047963,127.22808949012628,136.4025008034692,133.14538886237645,125.35166921137844,110.30530186012855,87.54889675622,61.93276205439017,44.846925378064434,42.43249172310026,48.244194028892366,53.532844044638765,52.45604825664058,41.95092718775688,24.23412893335196,0.3681700976699618,-27.805085190980744,-53.190541465353334,-72.27980447632105,-91.11415624931936,-112.04809268096436,-128.97252079887258,-145.07383313338661,-169.46766774595216,-185.35168083964965,-147.85832048272124,-44.300093184927405,69.1844202389579,133.1730368596386,146.17038928545168,138.17545391956622,127.85782319386456,114.33431003253911,92.40671587267548,67.39999220098369,51.3435908784742,49.93587150408478,58.09694371412415,64.87901009517658,62.46701224474458,48.81968290365223,26.466294623938445,1.8329042917059284,-21.32657227319433,-44.49448787044947,-69.31363257480757,-93.8982763589789,-114.21859864469762,-128.83842357077845,-143.55252334052673,-168.73543592909436,-198.80868665685105,-192.50657233412574,-111.65565361040849,9.832163993644414,98.82227886720763,130.40000798178335,130.8415436411759,125.69296286556462,119.07306381808542,103.09797454290278,76.88983116441834,53.88266112907515,46.46937531261449,52.98949143004,61.732498042996454,63.01806225364693,53.96872328989156,37.3664564827235,18.06439710531269,-3.005758538674972,-27.995045163282338,-56.12452713810124,-82.13471796220178,-101.39317706275162,-115.39284974323017,-137.5723420629268,-168.85491612275436,-164.23190751554728,-82.52782764803533,35.979576024304755,113.27278518545594,129.769282478864,121.51786526567909,115.66985345756339,106.00245688416001,79.18543692499976,43.16978599258189,17.775762034147192,11.791052560831094,19.80174784158638,29.493101008849305,30.347316890340966,19.043083652924786,0.0909743969514907,-21.17259614574154,-46.08650013756229,-74.7557066929067,-99.77696278240387,-118.76118025371323,-141.9737813292325,-173.32815707331483,-186.68393926404974,-140.67025510968224,-36.01073751835277,69.48399686835606,126.44438977574958,137.79030004803093,132.0764422793748,124.43285841363472,110.63739175966023,85.37611850259808,57.30793550051375,42.50090805314089,45.445455700668745,54.54182474573888,55.962601530766996,44.91853334411302,25.66917654907855,6.531370760422986,-12.583332496275826,-40.10888234720184,-73.55322778929884,-100.0630579768168,-117.72922653868645,-138.91916201235733,-172.45477990495743,-202.97143249053548,-184.81348910985201,-92.31376871738264,27.464523583503357,106.9194283714544,134.03220926937286,138.21698442804342,139.05890957463905,134.42705830006895,116.82569015357159,89.21572290878494,65.0181318102531,55.52951512741441,59.0250725807262,63.602216453575004,58.68139878334779,42.547277300758054,18.95529913328643,-6.496091249131762,69.0,122.0,80.0
59.61520468246444,47.67731465855032,30.779015167477514,10.055344148635859,-15.146408300945009,-42.23324092394589,-67.15798941527953,-89.37024037220078,-110.02094045501504,-130.1775454425665,-154.1592440914846,-185.48384615563805,-204.54540809671155,-167.16993578441867,-61.23684678652696,57.38339243850251,127.13336229049624,143.23771439044432,137.18798750788253,129.53947511377348,119.57900537729113,99.94581040076343,73.22024356241192,53.27591098864397,48.761752569034655,54.78424981719521,59.0386423359799,53.42110940798006,37.65531710669537,14.754088919506636,-10.922647805064011,-36.29429078439157,-60.3720846908798,-82.9263441676797,-103.30050687830125,-119.28383292684886,-131.72993806829055,-151.18993186038873,-181.49721949310552,-187.09616970416005,-119.74240590025786,0.3898543934772118,96.08440606069021,132.69765116115147,135.93739836383827,131.47313869891548,121.83287232220883,104.4497810183585,80.01623367445849,55.602782318252004,42.73829768235376,43.71836053990389,50.11133535891477,54.107223554594626,50.360544036013216,37.45024387801853,17.988403434576277,-7.5720314466844245,-35.76641470521947,-59.22079973308526,-77.40718917946407,-97.18365926782711,-117.52008724627754,-133.18821126607395,-151.24720554543202,-176.70687847352775,-181.8477876455342,-123.33539809354207,-9.102157707535536,93.97292336529472,140.95519430486223,144.76721094532004,135.18822821811847,124.59982972614833,108.88272202106663,84.96489894155255,61.39151782994275,49.45874325868496,51.7686527646609,60.65990322822701,65.31078401688217,59.65449984261683,43.01646739478366,19.293524511737626,-5.005551756541083,-27.906006561633966,-51.49828100689047,-76.61900241870454,-100.35997419762464,-118.94435826929264,-132.60354623516275,-149.44308644600574,-178.06233206934985,-203.20327264890793,-176.9435552574543,-77.3543538707955,41.359428146320056,113.19676558636618,132.21881852969608,129.36275820324568,124.20282366383978,115.75104496129968,96.18701172146461,69.16280830317024,49.92821931422933,47.3419864472414,55.85299873575891,63.10631648141656,61.44760087941386,49.70685206946523,31.9255147226952,12.23962216164532,-9.749137432375996,-35.985581429133305,-64.11291131704243,-88.51472657444212,-105.59250839994829,-120.25209885520343,-146.78486320685204,-174.0021216783274,-148.5324417329169,-48.32080090976312,64.98316474454133,123.1856700633971,128.08850285486326,119.32281268679691,114.0692739393695,100.15296541687404,68.82199564253133,34.03861049719556,14.075063963144649,13.157566366266028,22.993845072050682,30.955445324007847,28.256860070939343,14.02836490685917,-5.8781761305635545,-27.84254833324899,-54.21741690280238,-82.7154786740677,-105.60672061717135,-124.47436025743866,-150.68669853239354,-180.98689059582236,-180.76282423471463,-114.60923427079031,-2.591202213402359,91.76768104804486,133.20591632685841,136.7713835844494,129.999350687279,121.48573562271527,104.43825867692807,76.81925837532923,51.11559881820169,41.812695530501664,48.16203286199418,56.14945929359065,54.01280758181865,39.82801757153837,19.85889685224963,1.368296489007721,-19.430550876630264,-49.71605350000755,-82.36755349439407,-105.68258266069226,-122.85486253171902,-147.38160233346915,-183.18275078972073,-204.95931482862588,-165.02631253611867,-57.015382745823565,56.41206023565206,119.09519755106065,136.25453732034947,138.5854342502497,138.69208178995996,130.8108171571269,109.40378724533903,81.19836098138576,60.56363315706291,55.62501989985513,60.83625582660342,63.40255397457188,55.05960781751443,36.26216101512983,11.568951192389246,-13.698068381539413,-38.9228090687804,-66.31093443861033,-93.91990440972675,-118.16321768309683,-137.8985770824973,-155.92300921102267,-180.52104944622573,-211.91929529983787,-215.70877040896568,-145.4233697001516,-20.803663865067808,81.37244065820454,124.63749196350744,134.18073043426972,140.74864756296878,147.38210263321534,141.3503896189495,118.73976197212383,91.50979015815909,75.15162571161878,73.76189394579666,78.413176437149,78.19040965949475,68.50450665611355,49.762588808143626,25.214276780923527,-0.6144808010808701,-26.10670781619992,-51.16409469287604,-75.65450001575023,-99.67937122794575,-122.38716530080391,-141.36871931767138,-159.8825377635244,-188.2536090841401,-213.35506537043574,-186.00683800652826,-84.67130278745901,35.17140974057613,107.51867621668136,127.30733981819596,127.47771482417413,128.59710604870838,126.97757009696942,111.48529410848666,85.15284897456881,63.99891324020104,57.96874995820506,63.93101350645161,70.72951434149863,69.51032104573132,59.26687721174513,41.84043343278919,18.4932092821911,-8.479904786437794,-35.31034349020415,-59.76095134084542,-82.07674166514947,-102.68967162140822,-119.61189921903718,-131.9850896927499,-149.37611550867945,69.0,122.0,80.0
-122.48703001190907,-137.59292071596306,-158.2965142533621,-182.4133119910209,-172.64416312536125,-93.67064388822557,24.95979429481306,113.62406777292009,145.04884762632503,142.39085798291202,132.23521053244082,120.90210059112627,102.64849719746299,77.53526536648053,56.42034766593401,48.83647427461328,54.171790068461604,62.82949642055134,64.84728961441786,55.89838842964306,36.59370283230393,12.114737008592748,-11.699045143615983,-34.552946219088334,-58.6603584294229,-83.8145710821888,-106.36720640424737,-123.19880226832392,-136.61247794669802,-156.47118178562712,-187.38865975152902,-203.14901878258593,-154.62602420755164,-41.38229001254807,68.4767872454966,122.91242388604493,132.3333095595094,127.83473729804538,122.49026937873883,111.40862086485146,88.55764656158611,62.14203299233101,47.46788209337745,49.19201050376307,58.5642218427333,63.69931387874954,58.99452732576608,44.94154391487404,26.362601800306194,6.235791455006925,-16.882810109349272,-44.15908417290325,-71.77486169428525,-94.23661597745706,-109.48175639191834,-126.26959361276816,-156.43925399021174,-174.5375539609068,-125.89673001098768,-12.991101746844208,88.81281789418418,128.3906135514127,125.47057716392732,117.64509700527836,111.71014515143305,92.6585737912026,58.15033438365486,26.2559750929112,12.04591436119665,15.451470209679108,25.999464543116467,31.474221829033404,25.151850685635956,8.557401423056701,-11.96097939747566,-34.92281837836252,-62.58005376157741,-90.13210700684209,-111.0096200030406,-130.89961513153892,-159.98703342336853,-186.1428933333016,-168.9069331649593,-84.37049904580874,29.108264981437586,109.2513469861153,136.74005694525508,135.04718768283584,127.88925457707008,117.78512846953689,97.24057697575672,68.4035841601991,46.411749606611856,42.53016235573229,50.98921075700678,56.841376238366124,51.00424457834994,34.23465314216581,14.267298676991853,-3.950420658789086,-27.197372450764057,-59.55890101956164,-90.27890511757847,-110.71094856178983,-128.6564144362177,-156.9840361161891,-192.95805650933042,-201.50359149518295,-138.98373287446182,-21.33865482884684,80.62452608331529,127.31412932994047,137.4041179429904,138.89651374173906,137.65127987867726,125.96969028558715,101.35683887273285,73.86002243183525,57.520913125795715,56.61841749502229,62.390895391238956,62.223977564046784,50.547792530768085,29.470923369248737,4.1750666269669905,-20.87113945053034,-46.59652170218852,-74.45596607249838,-101.36863041289926,-124.31057233734163,-142.99713099078878,-161.9544773166059,-189.6013801450827,-218.32066075712774,-203.93652435235845,-111.86703937402186,14.090663404816775,99.57800133601299,129.10847672799045,135.6941874496467,143.16209745473293,147.43753536666023,136.23713805836573,110.5751648745945,85.18508896773893,73.43148980361624,75.04034186132016,79.1901580157694,76.40360176003009,63.93348161195815,43.04826719024064,17.742747271920347,-8.014655086328363,-33.40538998984358,-58.29181165334485,-82.64655873565148,-106.47146178620564,-128.32595028192034,-146.30075870318356,-166.84449584501115,-197.59038504736878,-213.1272951458822,-163.18203004168421,-48.28434154944391,62.47350674312083,117.3660870786183,127.95968903320278,127.48529232883031,128.9800716490093,124.18127729337789,104.36511089131784,77.82167627698026,60.61174841765468,58.87422328893326,66.34232302588394,71.37418510952192,67.39152202477496,54.91013952525836,35.636856487363,10.920286555195895,-16.40664201843678,-42.63643262455281,-66.39316921651147,-88.22746633111446,-108.11793399345446,-123.45171864997893,-135.86635275789226,-156.9361624226196,-186.20302767344586,-186.6364188022444,-118.24272668378671,-4.211270083890571,87.72614307553553,126.73668848331468,131.0420233827038,124.26912622693561,116.14930829918309,103.65958279758419,81.64335906263968,58.76425905966781,49.74059073827653,56.659017345494185,67.48020550076674,68.49393983336181,56.237320270681906,36.77161658935773,15.48726239427388,-8.052103921528209,-35.41439227517641,-63.7216565329675,-88.09962774387452,-106.8460895918518,-121.39289080107065,-134.6800661679274,-153.43310801005754,-175.9532306731121,-169.03160794457898,-95.44061432948402,18.51178148249126,102.5764715161297,130.52641724819767,128.59712352586428,122.64805254129618,116.21689419355815,101.05531272049654,74.84017591831181,51.21198627931534,44.70965573837472,52.83296644605641,61.57134773289664,59.89517431491396,48.22224604130948,34.00206612051729,18.09407582387203,-5.499266849206793,-34.74913302762029,-60.00739525674766,-78.92843346771535,-96.8741161460158,-115.3252946590996,-130.95898178137773,-148.42728034164577,-176.8123553863641,-195.19530629935798,-154.22916234351447,-48.27076608566195,59.92594838838203,117.09761012037232,129.39014215294281,128.85152498070642,69.0,122.0,80.0
122.6995942464886,116.28781449019607,108.14630077732039,83.70552465948539,47.737341575370124,20.06104852725595,11.55451785420745,18.352056008064572,28.54253373740474,30.951324013015274,21.14793257775025,2.8032006437503867,-18.209745546545907,-42.461426134372985,-70.95681200112116,-96.88878235948881,-116.27937975346298,-138.25268135217786,-169.27793753286946,-187.58561298907358,-150.93274993401036,-51.53382710019756,57.66962742110655,122.02777997613927,137.8639656514775,133.03304641785732,125.60451625243991,113.13496379107373,89.24573469185744,60.58835496533006,43.35118197967066,44.34413598475309,53.545558250904236,56.4918807760252,47.03346943643618,28.385198978345652,8.928211402015641,-9.706942937187538,-35.85883996520867,-69.24489789869766,-97.1965883173146,-115.49734251912845,-135.42073390973974,-167.46341296520157,-200.56780543456972,-191.65171743068933,-107.88987516337909,12.752433094179622,99.76757787491859,132.4515014613069,138.0167231325999,139.07136798115667,135.69379104596027,119.9546006079335,93.03666953942292,67.52785843429623,55.86190399293854,58.19574450149599,63.393073328751306,60.02986745759398,45.23673246823446,22.325442422874,-3.149968513352713,-28.096791189405884,-54.49188161892499,-82.51412377343289,-108.4703777857456,-130.07190016991382,-148.07455252140124,-168.79857556141087,-199.07770523795307,-221.11253315719978,-185.0298988097317,-75.24228185754431,45.104132184796256,112.76524480159797,131.7711045554806,137.49509993168746,145.35982746178266,146.09450955632923,129.8146012358178,102.44472571022422,80.10217753019953,72.90281154374863,76.51498108355321,79.33548581210155,73.78728812850078,58.640797602639736,35.96251959126471,10.262560250801084,-15.384975322325333,-40.659344664204674,-65.37518494355834,-89.60306428486561,-113.1136988770451,-133.87638138777328,-151.39852517349084,-174.9089167528517,-205.90561584406964,-207.04868613132712,-134.3662238301856,-12.414400481290102,84.61189088108594,123.39073834983363,127.86010434392084,127.80904135270583,128.84041772052106,119.9917321833076,96.62604279725598,71.35240628014316,58.60071233332068,60.58850489595528,68.50760709322599,71.21253837228485,64.56194957540146,49.9916807225075,28.96759416126411,3.1183738673855435,-24.22039923246758,-49.74353597076997,-72.86627058075084,-94.24283456596885,-113.14297271377622,-126.95241844980373,-140.53558365894943,-165.47565790341397,-191.64731855335882,-174.46775769030594,-87.08768556587282,27.196045415695156,104.20456992885043,130.27327231332973,129.53232570119556,121.97622628468157,113.35467893620546,98.20965444945122,74.3931272518171,54.303781993962836,50.44892233305391,60.08835032281533,69.18489219307995,66.14775461301964,51.02013657340609,30.721828283916246,9.04161604900477,-15.602430096624126,-43.719259310105855,-71.34079879141922,-94.05053592562592,-111.40379398468542,-125.13034328050064,-139.2198206657568,-160.33141617414105,-179.1815918647852,-155.03537722718298,-63.589230569562304,48.41161833579729,115.7988928738381,131.50383062322769,126.74236227671331,121.12783763643249,113.10584422472851,94.29121507617566,66.89150189774733,47.32303869114924,46.08840530098598,55.94553085423314,62.38026796848044,57.23903808638861,44.11325094884866,29.832790062908646,12.235293948447843,-13.782459115359233,-42.794280010296454,-65.93530817413271,-83.99185172420262,-102.29520216574164,-120.19132299284901,-135.2704824490658,-155.554670863503,-185.23913374586894,-191.2394772197733,-128.37542745863493,-13.899783318849297,82.48874229151218,123.82123665723353,129.42737927481235,128.78924946841624,126.28898967145567,112.45970852732226,87.51737598918626,63.61165548075115,53.212307958129976,58.342681745410935,68.27803458239502,70.27091602125797,62.99583600632536,51.48528322036618,35.37573729737429,13.229959402394599,-10.736580979681476,-31.113005463403706,-49.89857130702882,-71.93938565818218,-95.86873892169257,-115.41860093337142,-126.81432036960388,-138.56895782805597,-165.32059617292106,-195.93507218819096,-179.82180934513795,-85.11450020398104,39.33596272662137,118.95838465214078,138.17096767695878,130.5580509152572,123.66421483546013,117.4401903218562,101.90829161899657,77.22174462954032,54.7864272631632,46.32971981691231,52.830649404033416,63.3038375482542,64.3408500575349,52.51236662481833,35.25910368184301,18.541757106541617,0.633645744343542,-22.3144416942824,-49.67461138042779,-75.08167824872486,-94.80193041155142,-111.82475912505942,-127.91674122672097,-144.46873435400224,-170.2344700443602,-195.57000794219744,-171.87776509883636,-73.1418650341809,47.49864813119792,120.06830080566529,134.8403023822974,127.37228056600662,122.76866376903487,116.95180230800072,99.78251603683103,73.54612353160431,50.55525094315175,43.14181213614859,69.0,122.0,80.0
-10.385350681133755,-35.461314183458434,-62.55850365477855,-90.38084449120632,-115.1951118745928,-135.491755503179,-153.35221943919234,-176.600578350873,-208.16346332460898,-218.82640084652948,-159.30646304624256,-37.76155173468115,71.16758421910106,121.69181509854728,133.5018228437066,139.658782044609,146.95525040864513,143.20800779150895,122.3922898655543,94.77935992045182,76.39252789981923,73.32610912415467,77.88763596566551,78.73615410603968,70.35469688937494,52.6966822682772,28.638183231767577,2.8092772423762393,-22.729781991509945,-47.86138596336198,-72.41920792773861,-96.5145661899521,-119.52904950264343,-139.06569371834166,-157.01869353569356,-183.91431248464394,-211.83703910714348,-194.2571683730146,-101.0351863354848,21.016226409099623,101.45427036371599,126.55005150402945,127.57048073355291,128.3427474018052,127.82550790706614,114.44751354759228,88.72349137330373,66.02168782833783,57.89448000364397,62.81751030180784,70.17838966065774,70.23157803097808,61.07910427245102,44.53288886825294,21.88259378579789,-4.810834014711582,-31.858577306251682,-56.64410092935666,-79.19960525995987,-100.07942746486489,-117.68659291057338,-130.35742403937013,-146.30058890810437,-174.41120151816708,-193.37508765684316,-155.8646745125579,-53.532578196588645,55.064878422399346,116.16772895178462,131.64506596377285,127.54292983635517,119.68191001642019,109.99425964279997,91.90997223109552,67.45559078945695,51.31756146964767,52.362615660418385,63.45414235642382,69.78707299545266,62.74322152701226,45.399526719047564,24.60159135756809,2.337177042872396,-23.479379999278997,-51.98698900568521,-78.5141828425752,-99.54519142256753,-115.64840434034436,-128.86048249242143,-144.43664867125176,-167.31648702523614,-178.74007752996246,-134.834171115737,-29.87679598546673,74.09151727215243,124.44616832708743,130.89627025292282,124.96833684123013,119.45157711272627,109.01722035682684,86.68880112263943,59.646693640460896,45.102303701016034,48.438933570946546,58.72587861287555,62.13334914999121,53.88940304076299,39.98660504069667,25.416333762223974,5.579532868856984,-22.34417994263433,-50.26400940918138,-71.40556561543954,-89.1301385560863,-107.7054780455878,-124.72935463063796,-140.0067270883924,-163.76697928961266,-191.83925683214292,-181.03512677937988,-97.78900119800507,18.669437266552656,100.0273902474268,127.51544919000574,129.15437877272495,128.6693371021337,123.74572187554999,105.99996469833113,79.84870721186668,58.865684141304136,53.374216888086515,61.39186583621438,69.99747527953944,68.87179489676323,59.997895029016426,47.43284963156149,29.534075430728755,6.17642552271693,-17.06847551505205,-36.43952155310291,-55.84392006868254,-78.89410467665427,-102.26739015593621,-119.4669603451285,-129.4410583097509,-144.43320649460827,-175.45165857577126,-198.65780500853427,-159.9557477744669,-48.407763201603,69.05837142344026,129.66374497457818,137.0056913603924,128.02962238531202,122.2867918215216,114.17637092026746,95.35528897315271,69.87957028786592,50.60031996693658,46.97921626318382,56.11243822179988,64.99544488428126,62.036381183021405,47.67930922761519,30.328338000398965,13.685786011622286,-5.376303762961847,-29.979642958578278,-57.52475263286348,-81.31584279881044,-99.81852680295064,-116.6156870173928,-132.36099479550845,-150.6437689311833,-179.19063064483512,-196.19590223261105,-150.12864130160747,-36.80341090585333,75.20249627426905,129.05682699567944,133.26633583355374,125.49170502702187,121.8053546995162,113.3214439228157,92.71543099140044,65.9067420670086,46.50630547616855,44.292797640959606,54.54769343307182,62.81266151771922,60.23782299004982,48.68692691323429,30.649554994475718,5.541818336560189,-21.86138583368611,-47.12439979978633,-72.36064989965642,-96.38907243288384,-115.39422704476198,-133.6196347432993,-159.3684247735822,-182.64806316032053,-164.31427743922032,-79.74176451682452,31.7787288093891,108.08352763914553,132.76723642148505,129.28600401451635,118.74418209382047,106.9053372313243,90.00895218230868,64.9936804134286,40.36532410631076,30.663233780046053,37.287117238573565,47.03519066975258,49.86294565319566,42.52517035485371,21.935215281005473,-7.132427367413748,-32.27780763526109,-50.66802723414189,-71.49838797217446,-98.72652424414579,-124.22752358924518,-144.44393313277814,-168.8275123839485,-193.25635278495258,-178.12673802089623,-95.069224510001,17.563708715405458,96.78535209706175,125.2739532547034,128.98155275595272,130.58571035597896,127.8008398538059,110.70815803248966,82.76962925154766,57.73217339899819,46.714898295427226,50.58437761495669,58.500375061805656,58.88811143403663,49.81751509711179,33.16095609521671,9.666983049563365,-14.36293604220052,-35.5152872104839,-60.95356627350141,-91.09687139448626,69.0,122.0,80.0
-153.3065227364251,-182.8238279236725,-190.10844010965783,-131.29548581253277,-19.521691378180126,78.51876963963554,124.17873220607804,131.4853445046812,125.32267662056199,117.31091839115946,105.8628388590263,84.96994267657898,61.26228045290127,49.88674310345729,55.16726912314519,66.37599505748145,69.18301894117907,58.4560151449191,39.529553571451906,18.393708962253914,-4.691606206682034,-31.609218054357452,-60.08302374161536,-85.19143309424526,-104.62885146917188,-119.62809629503963,-132.76389265717324,-150.42598253154986,-173.5909933410169,-173.4077376810577,-108.96693146452868,3.6557242627067796,94.78569193359247,129.3078887906992,129.41841067802034,123.35215805375017,117.37799484760929,103.82584718099591,78.60495889122757,53.5450622347258,44.49464602156925,51.38369400192859,60.86735258943755,60.829417408680484,50.07507550830716,35.89074887495384,20.546510102438596,-1.848555739466852,-30.89149717320156,-57.081284472893785,-76.58791046218593,-94.40077551736645,-112.9764380039567,-129.01629049777085,-145.53133469706646,-172.67260681254197,-195.16521416452116,-164.18400820348137,-64.21190248336342,47.89380755669493,112.72681710022997,129.11531462814608,128.91420360244595,128.2111793760864,120.02597989773716,98.77487124181373,72.63492086415856,55.500576710180994,54.74616846574999,64.47294559075307,70.7999351147599,66.81715701225093,56.74720379253243,42.92046230586998,23.186733977301422,-0.8553994290275867,-23.01060867728238,-41.77316895094447,-62.15088014272271,-85.89623712617708,-108.12156849520031,-122.80366622750942,-132.46931038058844,-151.88986208022658,-185.20776933026175,-195.908762798392,-133.35910748354442,-11.274683543994474,93.50675183989523,135.70217002099412,134.63667242109864,125.96013080195785,120.717437090326,109.92103968453101,88.18386859551501,63.078808137038585,47.81184482911142,48.76646020951918,59.364779702992905,65.60535638637523,58.720775472132324,42.63913513677456,25.50833712879369,8.625635392414573,-11.890362826333817,-37.92822375653575,-65.01663971826184,-87.06450801576347,-104.73007949531416,-121.303616782092,-136.93909187696175,-157.89162291772803,-187.47716823849186,-191.1990781462095,-122.16272487094167,-0.7019154180673629,97.54001433368296,133.70682765126628,130.88416837278112,124.13994199899615,120.41036872541271,108.57915901668879,85.07846422342631,58.90826392661683,44.00012571621341,46.55987950166105,57.752742807135085,63.25302229402159,57.6154400959638,44.17773105507334,24.05308716932045,-2.475251852782769,-29.353543975608392,-54.32385828797053,-79.65395704998814,-102.41259691323957,-120.30939884006195,-140.1473935198761,-167.6498570026275,-183.62810400535818,-146.215268688298,-47.203918822738366,59.31827806173929,119.83027833023786,133.41889587712953,126.45887879929577,115.50553601957691,102.81099150681668,83.50337458440801,57.15010334925033,35.58094173148433,31.3436048937782,40.42361073300036,48.74626525504487,48.93703223837751,37.976926769772504,13.868993093780576,-15.235343084864528,-37.99640247717073,-55.99534209650698,-78.92135117975612,-106.70107095604507,-130.35186812188158,-150.620080219649,-177.0522088916994,-195.1337683472302,-160.74488139252622,-62.4581416907634,45.82015127748521,109.52120664978976,127.45565640711456,129.32955194442795,130.77703190477183,124.50652927036612,103.20794621824562,74.61777441355045,52.82170318885383,46.611279364294504,53.08924947780004,59.66898324821048,57.117459705569104,45.78317039093617,26.925019242830665,2.410200096931791,-20.574282218219807,-42.094650116753584,-69.58109115788805,-99.12992013219517,-120.66681292712413,-137.75708779310878,-163.53558643671002,-189.9273284802766,-174.62950170419535,-91.01960049808409,20.140684036422435,95.80809939408356,120.93438826671436,120.78780344469202,117.08989291280825,112.30442136522171,98.72881870374596,74.9004873702997,53.75379263502635,49.46530213320639,58.88302134684783,66.07829467365107,61.75897588462899,47.03077157456947,26.552134090020047,4.34231753483852,-19.04419344222067,-44.08853321571105,-67.07782607731828,-85.76171931081328,-103.32966024148382,-121.98353907820359,-142.77092387736835,-169.48883017294037,-188.14044451143974,-159.12747471698376,-69.47689552604926,32.76621425062699,94.15624043934922,110.50697972647868,110.2071387492535,110.91589480048408,107.084164156764,90.45282194566663,66.4636891300666,50.077211390873465,50.938402351243624,63.13949833217874,71.29283572223939,65.42995369452876,49.13629868129656,30.566855404071486,12.383036758595006,-7.702448118268407,-31.449984247180907,-55.539032135751626,-76.28641861327174,-93.2668003080337,-110.94034579019286,-136.10906002752313,-159.35003049108235,-145.41062821952266,-73.49001613757348,20.100692787494054,81.96082278041035,98.83320177365098,69.0,122.0,80.0
128.8113432966623,127.10061543454988,115.10767880117186,91.10472526226188,66.21830578025154,53.59891091471012,57.055346209840906,67.21594067367971,70.64704795860038,64.28394481007912,53.22104272415718,37.88401645050618,16.436723799886256,-7.690139546859765,-28.613929649920742,-47.271956749150334,-68.78937884036344,-92.78184998728855,-113.29114432509519,-125.61438867334184,-136.36367758817536,-160.82190401231748,-193.23807129936017,-186.54918512376065,-101.26860839088702,24.12238108623461,112.23675644271977,138.0437316540371,131.83611537413395,124.32199962654184,118.64269767576464,104.65531785660455,80.69100070843011,57.14869471751116,46.47128692463373,51.413101881144165,62.21711559371068,65.01854202709764,54.608684036782456,37.571481669667584,20.74419529589141,3.247841633842053,-18.915179077901758,-45.98147248387321,-72.02825792971807,-92.42637745642945,-109.59475650979819,-125.85706437948042,-141.9347484632695,-166.16706913848037,-193.76403787701278,-179.58881423432106,-89.3717938413477,33.13524706045312,114.22774402433166,135.04071363134355,128.41002911754674,123.16686616285655,118.2631668195967,102.77711305666415,77.17967109944564,52.90429689890028,43.06572020000128,49.58751936286547,60.411646095596105,62.69259127140286,54.37217614761794,39.126519102865984,16.856629720540774,-10.48167127029859,-36.64282719937761,-61.609618626199605,-86.72977235027727,-107.95390010602547,-125.37620247424819,-147.49253588180045,-175.18229573998735,-179.9152124785492,-122.46073449322898,-14.064261182966193,82.59170954523314,127.48367732629637,132.45874109591298,123.39101261775042,112.1731858374419,98.13511744193796,76.31065410945965,49.69118609651591,32.378597121814884,33.21231007310591,43.42696780693385,49.750635625216155,47.095481145738304,32.244006493027605,5.353548692275425,-22.702097056056274,-43.249584937952676,-61.818092014889004,-86.82814747999387,-114.24950661674487,-136.0968138976483,-157.487015769827,-184.85422998703575,-192.3967846857651,-137.48725981641314,-29.035337749084825,69.93194538911659,118.22139271014436,128.4278404065715,129.82023911692602,130.31325775416514,119.83383296827382,95.06115134265048,67.07104675042237,49.29328811160173,47.64172561141762,55.57517790611427,59.99382324720571,54.62061148219982,41.12853274075566,20.15306902150953,-4.65689546615159,-26.58708991904258,-49.279393058144464,-78.43469204663985,-106.38165130493437,-125.45597247917551,-143.9654776602871,-172.48533328798754,-191.95773368035034,-157.00079690491646,-58.55429206007504,47.48773313921734,107.49332113564145,122.17468476455295,119.64117086453129,116.09745981360788,109.61056985431543,92.5691333847223,67.71071031144021,50.51159049861007,51.41910415737694,61.84685793601841,66.10118990048957,58.38335430927869,41.49222687391408,20.203923153601618,-2.224270277550379,-26.19708860201174,-51.15260014331845,-72.8496607682666,-90.7690003767415,-108.61981573403185,-127.59204530792887,-149.8877355570647,-177.20828023731121,-186.358938439302,-138.30458096758855,-38.239542910002726,55.927317178209464,102.46352367791887,110.85783039252945,110.22500520463613,110.81213206157229,103.64558320684134,83.68745975091372,60.281831420948244,48.506778284308645,53.920978871580466,66.58317463523797,71.12062373074868,61.38868535253096,43.75631798741687,25.31634234621115,6.925797706015111,-14.243061483530319,-38.59572876267745,-61.954081051241076,-81.50862597676996,-97.94075773335975,-117.34413680106324,-144.20544457309492,-160.91976943054556,-130.0689093314186,-45.960444045034116,42.790081836718734,90.83289552388385,98.31591496340634,92.35805560817967,89.85074540182333,83.11371822870102,62.34897231577286,37.62618954236967,24.637489592475966,25.35677856305971,30.894292071776192,33.366120715415235,29.3360510245339,17.641514147069962,0.27040167453011593,-19.36712677804091,-40.772954091213236,-63.01104826376553,-81.24693811854236,-94.37472588527744,-110.81096160598914,-134.68204391069264,-141.97814492156562,-97.38926426796012,-9.205643239592815,70.09527674090981,106.4601027621775,110.23189543762938,104.49056874993609,96.88267385603133,81.4588976110566,56.74958079902261,35.61234690172844,29.453563821121627,34.41810200609717,39.49838303328013,37.46273652104357,27.607074376493895,13.431860375565607,-3.4542552825678836,-24.378114085432014,-47.55884891884266,-69.51240241709019,-87.26542168527592,-99.90970796325398,-113.2269577274816,-134.76017571999122,-152.9770812691109,-132.55240208229583,-58.08917821789252,31.570713690114914,87.67342568261603,102.83263099018718,101.80734169677315,103.83501584101634,104.13717151201108,90.67296423227995,67.3670008894,50.802724649762126,49.39888295947503,56.75830066364076,62.23065682518032,59.20593708675602,46.87152808625932,29.34491268583765,69.0,122.0,80.0
43.604743875872344,52.97575422779687,62.27135027926999,61.20402306859212,50.5958965767401,33.47264634129165,9.186839431443367,-18.324584672791126,-43.822068241059824,-68.96623098029114,-93.44503270539326,-113.1051005805652,-130.87211452361535,-155.52673981164628,-180.92817647497245,-170.62210253573835,-94.03214120954333,17.888247855928945,101.13958365825552,131.73907717800407,130.44647117793718,120.2215172531461,108.64091308222119,92.7504144989721,68.62424378723834,43.04518485139161,30.834720638080157,35.89173434245491,46.025743124489225,50.00788831555155,44.22513301422682,25.408264973750637,-3.241537574591468,-29.42595366416025,-48.31309396050045,-68.2865586982574,-94.97175036046919,-121.22014614609989,-141.76150171154137,-165.10900874944815,-191.18159168214882,-184.04234130267014,-109.3184848477851,3.3939897344160253,89.3994491230688,123.6416444877224,128.84441944961117,130.3717583902178,128.869644729987,113.85402123185918,86.64002105166793,60.424071141347646,47.20320311100288,49.523122991240186,57.71061707764796,59.43523657043226,51.47411444140359,35.8261642416658,13.017647191283197,-11.387585565076138,-32.63805222979889,-57.12922183676865,-87.18734617080611,-112.75953759393788,-130.16184310614167,-151.22850146507292,-180.9215472978845,-189.1828207881943,-133.53698297894312,-25.4986115509464,70.55583128535669,115.21762375308113,122.09299112118396,118.53689101901588,114.90141051260528,105.9560633425799,85.65345074990232,61.195276641551374,48.93211716319893,54.218347304841565,64.2077625929637,65.06911019997575,54.23359843410788,35.593406686984665,13.793915674542214,-8.925974943164087,-33.472420339448625,-57.910362094701014,-78.26892171957367,-95.80157777393151,-113.99739809429094,-133.44340920655515,-157.61656316133787,-183.58120224290442,-179.46311566833225,-112.70801918584623,-7.648633037122284,74.71753373845776,107.45864932541258,110.61753602967727,110.49018883077044,110.01952604388062,99.0297208043733,76.59101577933136,55.14051773610731,48.4881868253013,57.54559201714453,69.28029496873091,69.65780266539255,56.692776858627155,38.357368840425714,20.095292354668636,1.2203036819979072,-21.09247454103095,-45.63930963650801,-68.03436616500852,-86.42707193935323,-102.85578544556813,-124.52649539444455,-151.64548158921582,-158.29173742133207,-109.83041633190628,-18.095899865701952,61.72697898912262,96.13506078658074,96.76349006484064,91.22340649725948,89.04179303091624,78.49424000362328,54.78414648962217,32.26255411603935,23.73527405738511,26.907686447531585,32.132510836041995,32.96547695185379,26.72224473659577,13.03919796540601,-5.263096529785416,-25.330734900256914,-47.28701826650053,-68.89890374247081,-85.36164864669365,-98.27400559194477,-117.36654505159278,-140.29160272733753,-135.2830687226764,-74.43462957699661,16.99489766037878,85.25183902074218,109.74960512549781,108.84057499181526,102.61044668191178,93.56135263841928,74.9226062970298,49.5417137808789,32.173961463807856,30.22675881675623,36.31342837653938,39.79401123674777,35.29806185404737,23.794973296695936,8.885623684325708,-9.07555103354088,-31.008925559429095,-54.164644242818746,-75.19075177891077,-91.34498835867294,-103.24847455723639,-118.5528412398887,-141.6640635839479,-152.65147120770945,-115.81068019228624,-31.13313076370817,52.48557531359407,95.4549895316787,102.94358573769934,101.86308869503435,104.75394585490244,101.89106733682601,84.28314485826525,61.203679515672604,48.90669214730861,51.11990974872552,58.931759772273494,62.37817833458869,56.48369406724787,42.10065738559377,24.00267694339283,4.937019843863381,-17.15398310182791,-41.03186191600073,-60.20167515999259,-73.29148112040276,-86.4647429194578,-101.7355064105307,-114.61305680247322,-129.21425713548234,-152.68488742860248,-169.67102682012361,-143.122393309395,-61.506742838758385,32.528556431228324,90.84654356442806,108.22907212755561,108.41014025045531,108.48310172960664,106.73450019522669,94.40115724042549,72.93043855425536,55.937031094621105,52.18941192849593,56.30891002097056,59.83892060176709,59.12724325929585,52.77495630891162,41.661045124034516,26.055185423936518,4.867098484066603,-19.155299730800927,-40.30890984975435,-56.15929711940841,-68.90714570000412,-80.81036804966699,-92.24405480073084,-102.76682228269605,-115.9278801144218,-137.44783937925473,-157.9558527046569,-143.10956488000173,-71.16032907411939,24.06935285593305,90.10553865353873,112.40944335473174,110.82049437141721,107.47832361074396,104.22014903308025,89.3531974070271,62.61837217473612,40.56009182882478,35.58265215464581,44.746163659676625,55.91452280808458,57.53163138853694,47.56953606579668,32.18288464865522,15.221866189046914,-4.112362388539832,-24.734397278677008,-42.773475987191574,-57.82605527705952,69.0,122.0,80.0
-95.51266588473096,-118.32297350460163,-135.2064130636974,-159.4844887554791,-187.7101658858674,-180.65292137731333,-105.26571716816605,6.326108939081957,88.92536008334295,119.72016018511786,121.28199796696416,117.532252461987,113.27036493630752,101.25011882523641,78.31346847122146,55.78174765312508,48.96315630857566,57.40747401238221,65.71498706414924,63.02276464513404,49.43105680976562,29.44409213529417,7.338454096594004,-15.806418940998041,-40.76100607897426,-64.28087718214954,-83.43352561603591,-100.92742239054384,-119.44455379753765,-139.70230309156133,-165.73838784631678,-187.4934915221424,-166.8799462813193,-83.62241957773784,20.75534809069199,89.0153318821262,109.95954177503324,110.29501109180214,110.81941394121162,108.26793134211007,93.36059865658063,69.56438900143927,51.33032197655351,49.88445186404935,61.40084573418728,70.93656994163764,67.00466692348014,51.57817796524176,33.0086837976654,14.839954463667771,-4.805291041379349,-28.15587232575928,-52.47704361073199,-73.763900756119,-91.13124443535509,-108.24186217359313,-132.36283238993698,-157.4891697858578,-150.6994531502017,-85.62654791081424,8.575862369693386,76.53587617525538,98.51337747659032,94.84146108274695,90.54117322333951,87.47131806776328,72.61401118359784,47.34228555418017,28.18567054965076,23.857674911550088,28.59763194704315,32.97926357221644,31.962940545460725,23.463130653725898,8.047613527336962,-10.911838242439112,-31.47374617780447,-53.79971862641515,-74.31147070836766,-89.10279733268645,-102.76219226150225,-124.48533244184448,-143.57481314260886,-123.49606643974313,-48.70705272279754,40.9818311048846,96.46381056204713,110.93498447743967,107.14050903496455,100.56625048983358,89.3613611414109,67.72036820076053,43.065269254459864,30.140483057454112,31.682207926521553,37.95099739526104,39.38031292086803,32.5278272672793,19.727578031529692,4.099688851453299,-15.067194138890693,-37.73728761115892,-60.59235146463915,-80.44434625421239,-95.01101501881831,-106.87566976543992,-124.71157817172369,-147.71326339459472,-148.06731130853353,-94.67263114194081,-4.3628133704375305,69.66098983742246,100.12807079967857,102.4589296974743,102.42569525593413,105.18063716366596,98.26530826222313,77.38457752623532,56.043790276311285,48.312522404281474,53.30755879264519,60.70400681740974,61.70827901691189,53.02306392088735,37.03335254085169,18.62597543200191,-1.034740299932504,-24.133205664791856,-47.29832279694594,-64.41484085278289,-76.79814521508325,-90.8541008383449,-105.78235848621546,-118.17826895890214,-135.15324947499036,-159.7450162623429,-167.98945217796788,-124.18252295877,-32.94832780339749,54.19276342064,99.22807718996968,108.93736346312349,108.20422032089857,108.5814223905816,104.50141785976274,88.66169996035009,66.90733389915043,53.508551502337326,53.01763314130935,57.62922270464829,60.15935964244553,57.8754677146013,49.98540737920397,37.679936734825446,20.48808007500106,-2.0284440608756893,-25.780714075093357,-45.38696990704607,-60.03226439718745,-72.37550200824019,-84.19855393396789,-95.3376914784977,-105.99363995730184,-121.21621865767112,-144.61861522898866,-159.05944510915978,-127.78391730370831,-43.402788778419044,47.71064224250124,100.55087196738236,113.1948067861165,109.49301434662073,106.99982421689589,101.53438129370353,82.30016666551523,54.94302451025791,37.22815242928011,37.217959182739726,48.38196417370659,57.68027636447077,55.639728033213444,43.39201860773656,27.43461441085103,9.926474030407467,-10.111179376604477,-30.3347460217947,-47.31279742881802,-62.07064109188042,-77.24684158714864,-91.24302472364262,-103.38573069788004,-120.31719443035276,-142.15048620747038,-140.78927185794268,-82.95604218917512,12.01491588962155,84.70039980788752,107.70300585673313,102.6632197973623,97.03195558838942,93.87679230358357,81.65774182868289,56.36175560755487,31.46507340283832,23.997916695867293,32.928114708321694,42.1758768939531,42.15122552236456,34.98415180295204,23.498762218798134,5.871049851901016,-17.078618673190576,-40.62476347107939,-60.6670732406669,-77.19394972075311,-92.43943603391145,-105.29317127479433,-117.4742437952072,-138.18304123350381,-162.30474599546903,-151.16335137666363,-75.35572013392077,28.27569798159705,96.61182030836144,116.19528450542315,115.40907296509953,116.26032015010946,116.12659678652494,101.59507801236055,74.54996383614504,53.749066686355185,50.86391098690043,59.10541558228262,65.0981869434731,62.60469690019755,51.79234234911647,35.948590146560015,18.135058192469586,-1.9010693971240942,-23.980879160769973,-44.37678584395775,-62.72050590037698,-82.11291667790958,-101.15577552968975,-115.53142301177202,-124.8762677361575,-139.09931462823027,-166.50783816552288,-182.09154531302792,-138.05631539420457,69.0,122.0,80.0
98.72786230004705,93.05039682065342,90.08399389511544,84.78824219205741,65.7420656125269,40.48380072505114,25.45565722349372,24.755690851483003,30.217658821028785,33.362381306168125,30.3176400473712,19.60409678445608,2.771983220443631,-16.669849567878018,-37.80190643396554,-60.166751856026735,-79.18413364038456,-92.69221415440691,-108.06508576400891,-131.61153440306302,-143.45038807435293,-106.68627866360362,-21.678831338277668,61.768850623326074,104.04402687222627,110.67662374421086,105.33579019843583,98.169359227346,84.17835438696608,60.20450645585095,37.66779301504059,29.40797274098369,33.5209060690446,39.14118690452824,38.23358243184535,29.254829333669846,15.4608248797978,-0.9896116455455216,-21.38087022000247,-44.47312927059716,-66.76941915905182,-85.22560934675677,-98.39345583242104,-111.05406769880985,-131.51535806047147,-151.9363522522965,-138.61623860637488,-70.16032152495707,20.821284237993556,82.88226190448532,102.39042099107331,101.9435910338623,103.35749050987557,104.72945884452295,93.33015074352319,70.44722686105985,52.14127889406486,48.84216939180957,55.677821425393944,61.90577044917914,60.18984348136705,48.933283890543585,31.792656136035188,13.180981873389268,-7.346569463766973,-31.142557942091553,-52.998776997777796,-68.18630062102442,-80.51094368657242,-95.34824923070713,-109.5142349709399,-122.14203318075663,-141.93699492103653,-165.56421646222108,-161.6593177473974,-100.89921122047906,-4.861289677285673,71.99465996409887,104.54775471915025,108.88850081546009,108.2154581853082,108.32067414164057,101.18148275904991,82.35904936571637,61.662746010345835,52.254180834041286,54.25415377713925,58.740274341870936,60.07419789349935,56.13367058126992,46.84541698922368,33.295061128110305,14.43815525599103,-9.038402658148776,-32.02317147869166,-50.02484921946856,-63.72325250148444,-75.81455761722052,-87.53276217054626,-98.34951100049506,-109.59368547983362,-127.33343034342836,-151.22758103183293,-156.1409120102453,-107.57817983200277,-15.120301403434516,67.81722118927325,107.47206623616297,112.66799871189127,108.43869483852895,106.32359243481933,97.56394699051395,74.47131633395097,48.158365724807595,35.47711058510043,39.82825929071458,51.83804897271419,58.4192243916553,52.85506349104843,38.9462189155603,22.583023157955235,4.386668240789798,-16.135333964203458,-35.62642686630738,-51.65023190151539,-66.39227072657661,-81.55903879207222,-94.76872341472412,-107.42091499669264,-126.75468842723774,-146.04173570222252,-130.36355173793086,-56.83705990220813,37.622176111428345,96.15446919455226,107.59098190797494,100.46101505372364,96.30559595023311,91.75943532605856,75.40583197091709,48.21968553044238,27.10790869954519,25.50755548822851,36.260201341991284,43.179304688225834,40.593218451868395,32.14026327844117,19.117975690086023,-0.39553576079209507,-24.04149883901582,-46.88068705860988,-65.67754573254759,-81.71334269893738,-96.48299835025678,-108.55174250434223,-122.22382292517108,-145.9495990154708,-164.86684886297263,-135.66362948902326,-45.135250924202694,53.492817282477375,106.35332630129761,116.6581281859851,115.15295308649476,116.94968689637624,113.78629050812611,94.37819673348145,67.0481426023615,51.05310128842275,52.74573734607084,61.508607402425135,65.32965854570044,60.22417894044881,47.55697966847344,30.94558893091201,12.645465416166006,-8.205746898344113,-30.191134841892005,-49.740646842418386,-68.15419288162266,-87.84955947323769,-105.93803641648407,-118.53585454463457,-127.81478762769628,-145.9240956619122,-174.39073025301965,-177.04038774130788,-112.06918260816138,-1.4432923394765798,86.99920742676264,123.320917913218,128.45965624479845,127.91944756835451,126.73309723503992,117.13887313047435,94.34811186482959,67.78575772108776,53.277030828645586,54.2489788046272,61.13821654308798,63.70872105495442,58.19768031269455,45.73537256263272,26.881419349111322,2.700616893473535,-20.503303722226683,-38.48497404797254,-54.68155518689472,-74.47651000649006,-97.18426538026515,-115.55417553312839,-126.84972172817308,-140.309366692383,-166.52454829191942,-192.264927518758,-175.17327771124346,-91.0573651136324,20.71996168177672,98.51187679714266,124.78820214389991,124.78653395466213,122.62455919660916,119.25693484634635,105.30783339473004,81.21740899158506,60.79188240293119,55.07228547866139,60.58330313838603,67.04956044852145,67.28587676707633,59.628139281686366,45.25745325526129,26.433402054291797,5.089934052279405,-18.591949208357015,-44.77022672045094,-70.97864984183745,-91.92666719094464,-105.85141440006556,-117.58277018417826,-136.34296765028913,-164.1504867873174,-175.00483473685927,-128.86166627181322,-28.665308136750802,68.66424656419055,119.28030796721065,128.95650992526507,122.99318167688564,113.46423645247079,69.0,122.0,80.0
26.469889458081294,7.590229672013963,-13.994672275410675,-37.98626148062603,-58.07183256462337,-71.70057043752611,-84.51773523978412,-99.76855312397997,-113.02008015328727,-126.78605682414687,-149.26610439507198,-169.1040975925833,-150.1800303797449,-74.40961738574397,21.37282692105227,85.79057207655296,107.48287829812946,108.56069412951878,108.38965120415523,107.42812782752395,96.77123827010955,75.87064601517245,57.46995885124669,52.01744021127758,55.659500773510075,59.56778084406001,59.537196733601064,53.93219188882686,43.374446064736475,28.452904643173156,7.966235061949482,-16.00303606468729,-37.806506283173974,-54.29335766915278,-67.29064386725042,-79.23787134320486,-90.78160634142702,-101.35266031046449,-113.76400104692533,-134.15228714670465,-156.3676995104615,-148.41676870371634,-83.34799102297121,12.180522163570306,83.99398575447302,111.4153546648468,111.45978640745712,107.72189393444033,105.08274525911342,92.23985465944749,66.33319575110232,42.62265632175442,35.23180114623017,43.10449299400106,54.795504385890794,58.06215868512544,49.36304110719756,34.341662907502034,17.587659691862317,-1.386449007052661,-22.064224334264146,-40.5902181041602,-55.88286886767626,-70.79127631982156,-85.6783787484152,-98.18657317730836,-112.09982909398548,-133.4295685888225,-146.96108915487892,-114.61676150715087,-28.818388135503064,59.85329644783252,103.38457229819936,106.01155690101454,98.7000451640981,95.59591456067822,88.56512898957499,68.12147421269438,40.60803721312411,24.54429551367296,28.11411171326771,39.179666714305306,43.32031264978794,38.572729626985094,28.947628768396758,14.151461424959411,-7.020524873624727,-30.92850039388193,-52.76051292461649,-70.45611791871318,-86.1625830782247,-100.25584090036774,-111.88353699123095,-127.97849167536272,-153.57387220119998,-163.20726679384384,-114.48974424434368,-14.253617233506972,74.42156694940005,112.36797119228426,116.2714360591004,115.34521453456807,117.25048812356845,109.9282869271517,86.41473033973664,60.59844679301029,49.96241105084331,55.216985369953434,63.43573539310986,64.78389238625684,57.19748786873669,43.00016430509588,25.833290048612213,6.920784823305303,-14.629574347908987,-36.15196356194238,-54.998474112563784,-73.74440021975752,-93.4554055917131,-110.2284868878601,-121.17125119399503,-131.5422309052487,-153.9160430341345,-180.2116384763126,-165.83502031676548,-81.89662364952677,28.955172149367733,102.53361865228072,126.57872816229946,128.26747646536003,127.88114217335476,125.22507158462551,111.80020255434528,86.29425063845096,61.870741612182215,52.24027714264554,56.1761320472538,62.62289323803704,62.94746434874506,55.23298199812237,40.97778111875043,20.24555054728697,-4.4279241320609,-26.2114533983807,-43.06968308299034,-59.891818931795385,-80.99767950746094,-103.26338930543152,-119.35166263949161,-129.8822020131695,-146.49072024022678,-175.5243480895895,-193.75931293325388,-157.23876944016635,-58.56698017112078,48.59507517856092,110.73684736017061,126.04394734737102,123.91698779543152,122.1991337375737,116.60103672539492,98.94918540279335,74.21617046143521,57.517397710999184,55.95129524465025,62.77645135397181,67.92364371432794,65.85778932962826,56.08177952597947,40.164176162473865,20.485577014546635,-1.4901828759831819,-25.92846936439491,-52.56049294469666,-77.7741644147349,-96.57320242993853,-109.10935930002118,-121.86379719433118,-143.94886915738417,-170.95243492805534,-168.69938000358326,-103.55363311248243,2.5808908998289652,88.67705762378061,125.13298595553948,127.93927414830128,120.51727518202004,110.05846439270302,94.60857293839595,72.02900506840157,46.833724346334144,32.91264945357974,36.73631579219698,46.50863537433715,49.423415302848646,40.89232429535652,19.469674254463214,-8.064009685983441,-32.41097144100925,-54.87333882012866,-78.93949443861499,-100.96306687288634,-119.9623341170028,-143.65023427954281,-170.36436007203744,-167.54735116588068,-103.7487206954994,-2.268305238984742,79.65930898407754,115.35947518928229,121.02690275879202,118.75707496194961,111.78206212014686,92.14738430874458,62.06387988304511,37.314581968457986,30.00589215717053,37.93120361872912,48.2475578687114,48.13313610203976,35.63776518496078,16.886613259502923,-5.532868453505853,-30.850090660039093,-57.186545189848864,-82.4770986343774,-106.18996261290627,-130.6127097340914,-160.68931993959706,-190.77837459158775,-188.1130927699087,-119.56682837577594,-9.08983659065138,80.82124826326218,121.779517541573,130.66123605054008,130.4280349457531,127.7947668905365,117.01406168820122,94.94088493645559,70.3174049554564,57.01225546341089,58.81447304541316,65.6579955016592,65.48147361796883,54.96598121783816,37.55279617212316,16.807562270246766,-6.764449651645689,-34.07000856111221,69.0,122.0,80.0
-60.10610624357067,-75.21870713437416,-89.54648168000888,-101.68325505967509,-117.54890695109464,-139.66847768290495,-143.83623908872164,-93.92394633175175,-0.599494333791783,77.8999247921977,107.0159230823766,103.7545239983537,97.45605600897983,94.56008379408807,84.13216650024356,60.1474053300043,34.0300183999196,23.78384582031569,31.35304916534971,41.41878816014504,42.67771433848376,36.189641765967885,25.33197757338789,8.606796000287893,-13.87596657867615,-37.627387724915685,-58.254858088855705,-75.08876577972705,-90.49794129307257,-103.75488637411596,-115.56948197459133,-134.76341404664524,-160.04393692489734,-156.30103960608466,-88.54283116321552,15.439769157087063,90.67689966469052,115.48731241759108,115.64979673691224,115.92278416655935,116.74155840877854,104.54496071180655,78.23748106080673,55.546664822270365,50.30260252497729,57.89540410018667,64.73674212679137,63.46485737712217,53.609500729298475,38.2126396987353,20.599685033926015,0.9391242021393305,-21.053549678403975,-41.83933438973194,-60.263282430548884,-79.45830287339562,-98.80632508525225,-113.98207973795299,-123.67551833764887,-136.40874643654072,-162.54618528258024,-182.55726047954775,-148.23247707115652,-49.319319503290416,55.80523870339401,113.65623400481567,128.05562514203865,128.05412098990413,127.70600332800153,122.76882239080807,105.33494085839047,78.32612613394888,57.31066219467446,52.40371288884048,58.287047130795806,63.54894749544695,61.488725067775114,51.74383569533411,35.66249036445676,13.237060783941951,-11.27473663043223,-31.45432615662719,-47.656109253571714,-65.51687122488786,-87.65347272904359,-108.76555230572009,-122.59864610720516,-133.4415423365168,-153.92758670342982,-183.81503105882496,-190.42114168322027,-133.62063477036443,-25.38912103508127,72.30347475376102,118.83551996116404,125.95584527481837,123.24975426025837,121.47066752796025,112.83606265443659,91.9160341384658,67.9531516449056,55.612075622545895,57.545015236044655,64.79559754445081,68.15844641942861,63.77744083868006,52.01512804948801,34.763729305380615,14.360096826432885,-8.277717078665948,-33.47349618079698,-60.24806648847546,-83.99330321825109,-100.6556491021533,-112.35640713131623,-126.99979534282937,-152.20572963826953,-175.3472714104206,-156.7083290674585,-74.5061231326521,31.877252011383625,104.20414200194847,128.15162596092728,126.20651712808068,117.83905352483208,106.23654881035397,88.8266261016506,64.50958003656747,41.02395054472653,32.43401894258153,39.698616053910364,48.347693386836525,48.27099467565337,35.92858329070907,11.623174673538356,-15.595385937776433,-38.820174871175375,-61.7205670623459,-85.72837813709344,-106.54126230264178,-125.93995919321098,-151.9077358016968,-174.57499236008917,-155.60341715981326,-75.79739151427236,25.568543630567724,94.57798422211619,118.86387715111489,120.64461730764778,117.55189714169029,107.65582213333442,83.97063245454783,53.60205536106066,33.22848551275223,31.172723040898372,41.340599652825546,49.64202234980072,45.54713660184877,30.645158908473796,10.770078292126938,-12.615349172255407,-38.45659660242865,-64.665597415731,-89.45810837932942,-112.9659574656245,-138.57440150710426,-170.28169643158688,-195.38243127967004,-175.39815547362096,-89.24567481356786,21.351924233270843,97.4926861252136,126.4177486654891,130.8844657047964,130.0480405703452,125.83816747003196,111.64367198716026,87.43868380193472,64.84524802268163,56.22175970907784,60.9099958847021,66.66376733279331,63.42553052484961,50.432472986176236,31.829667112589544,10.317343385845268,-14.231375634104124,-42.67123621231272,-73.32624018251805,-101.46603478884639,-123.45967744128538,-141.29923561528906,-163.57772634287676,-194.2633935947881,-209.701976159818,-165.77723164152147,-61.819696911907464,43.338781984612126,104.70130617423462,126.60275057687454,132.89503603543918,135.21620929625885,130.15294593749155,112.86041083372841,88.5640212578142,70.75116924230417,68.36261944959323,75.97601521267218,80.24241031045938,72.54500583212841,54.914395723596904,32.3003691501356,7.5055219476492825,-18.3683729830788,-46.064879433513354,-75.13386270418424,-101.72788089142759,-123.38255631470864,-141.98631493927095,-164.6430027017753,-197.25181873960486,-220.2729943983273,-186.93929106954602,-84.64501557681677,28.4654093598769,92.16143477128263,107.49287977224388,110.84802308032701,118.782017881618,119.9917461979357,104.36501734796775,80.89925005643542,66.20337391001077,64.54482037255144,69.844269613771,74.45143914956726,70.17224881672742,54.93693857705609,35.645754974148815,16.182730821134143,-7.208021561916921,-35.069217300523555,-62.414162021274734,-85.85055829891508,-105.6089982058854,-125.27585972687976,-151.64605847704883,-176.6933300186853,-162.94360363753702,-84.01379807597105,69.0,122.0,80.0
-124.6646657395914,-16.294133933969515,78.24790640582893,120.99472665015915,128.46764911662714,127.94006954507844,127.1701419282501,119.19272395248888,97.9619244684252,70.90619243100628,54.21413946502304,53.50688803211277,60.304715960939625,63.819668402318804,59.37603115783852,47.74923921215754,29.778420603969607,6.032552620569694,-17.70305626400725,-36.32657715773327,-52.40157246379888,-71.5629768127118,-94.23597328352213,-113.5774053539778,-125.52505311002741,-137.88376839641168,-162.39858408148476,-190.26069913061394,-181.38859602357172,-105.30640629634321,6.7161911161306715,91.33949447910342,123.53458721817917,125.2078278257011,122.7962151254799,120.14481824753935,107.93096749528195,84.58224941798727,62.760514486453715,54.9821791179104,59.57514499027489,66.45099936081722,67.71820928230922,61.07442073614648,47.48486836048223,29.111636911067418,8.057712299536984,-15.285098218161247,-41.18219741489835,-67.68023071896712,-89.57355561510819,-104.28778755687338,-115.83153173577733,-133.1527073724596,-160.52335598895866,-176.14996285922425,-138.91591491868732,-43.299726700581694,57.96583047442141,115.42985593450618,129.06099933466936,124.06709441837411,114.91392527787472,101.92657205343615,82.40470139925759,56.99481833927589,36.56038554917877,33.409615424618615,42.71702218210786,49.41451133540085,46.08684632849191,29.88573109901971,3.5483231197917333,-22.69455921945004,-45.232710438262544,-68.7147970425592,-92.19886905587913,-111.9352348786677,-132.5831855948667,-160.14409798818733,-175.1858457045655,-138.10465530766922,-45.94818696834744,50.370214205501696,105.51017622594996,120.55154605920144,120.00623634558839,115.81777085692833,102.26024629261896,75.16161278255817,46.04342561451322,30.77381722736327,33.41540331228101,44.5713657338748,49.90353496782257,42.0318874753922,25.283485893888894,4.354622953621437,-19.909713825938503,-46.09323558604523,-72.01233762166707,-96.31285209542199,-119.89369164457905,-147.1523124955446,-179.54632538019837,-196.13138191053673,-156.6415340055779,-56.76000674010986,48.53235257636835,109.97558687247734,129.06966420795686,130.79224031989673,129.44743415599675,122.99595247095903,105.3473191654372,80.06192787299067,60.639528531317154,56.62979641391785,63.071526255506775,66.84761096916569,60.52291427336347,45.445798552352386,25.883654201218356,3.5799126592820594,-22.04166467343817,-51.48138266649751,-81.9381637110672,-108.50353477693054,-128.7565659340793,-146.8361064734974,-171.91680766234163,-202.2557769576143,-204.573295273287,-139.95928259927166,-28.637841923035058,66.18526471188079,114.02617535705411,129.14682126898546,133.92833587012726,134.84201417442688,126.41023265909362,106.04200077865553,82.13205272931353,68.43893257420714,70.08991763046677,78.12080106161693,79.33773268570182,68.21195527704953,48.73977489956854,25.271668459208797,0.15007563714843208,-26.139381748167757,-54.447657417023066,-83.25830666918176,-108.4921035326859,-128.86799539343093,-147.67633729010066,-173.18877044341633,-206.74040235822937,-218.34899123463396,-162.98323082675316,-49.58537215367852,53.15834656685254,100.06509762506161,108.26925209760553,112.8522028969642,120.55274078019606,117.18596224881405,97.57876980808015,75.24961142316522,64.57222933893085,65.68455524996801,71.62210631651192,74.41811662238655,66.70050504344938,49.42224477650067,30.13569362656278,10.001531742905371,-14.971835531970939,-43.256679557036605,-69.62249837222858,-91.87361944352877,-110.99404274441268,-132.03720632797612,-160.18605773736942,-178.73905525951943,-146.47076524393003,-53.01252901942808,49.39240960402318,108.47280322347034,123.63909351918498,122.79298655308256,120.93746114006751,111.81565589837525,87.1022285126542,56.5926510477097,38.962671969136245,40.88940291676841,52.66333223121229,57.86201890929761,47.95300081871067,27.870528882956833,5.4839177336452805,-18.307245335481955,-44.88313380704226,-72.60357493220351,-97.53588131272106,-117.03337422201156,-133.41524859374752,-155.78028515426578,-183.70076494873362,-183.87022170663295,-119.64274519973316,-12.907595027306293,72.23342129747462,106.683957326973,111.65356669347295,110.65335147446592,107.00183784834363,94.9946558435634,74.49645884772772,56.263079095445406,50.816081993054375,57.33324178286524,66.66009468970908,68.32112190152213,55.581782517966516,31.23047905418038,6.078527892874141,-15.285029392930266,-37.764273717095904,-62.17054275872118,-83.96811721475197,-101.48781019694353,-115.84590542421324,-133.03074629405384,-161.2172261061578,-187.89894123969748,-170.71719602400447,-86.44293355741011,22.933070498465607,98.5777227966549,126.85830000082437,129.09138092932426,126.32443175288007,125.39326937916185,118.0494796122224,97.78752559367129,76.45298713863555,68.12190556709798,69.0,122.0,80.0
111.67604516647694,97.05820965790888,75.40802593756231,49.871014809543944,33.679709069745854,35.50738589015293,45.433116481545866,49.62952653479351,42.795816207373356,22.923684114315567,-4.460391348062668,-29.409355349136355,-51.784786043288285,-75.73541381559735,-98.2853670416695,-117.36936986747267,-139.9950955558719,-167.5310526957828,-171.17051862413135,-115.56916386119029,-15.820533742521295,71.37076769316943,112.9378662050366,121.05233444185194,119.1991187067834,113.287982915526,95.60321083279916,66.1543297181901,39.73284539658656,29.907323131811022,36.40361563470457,47.26947081011217,48.96280680551929,37.787749384749965,19.60567533833904,-2.350163259281441,-27.369391347524108,-53.70237704975332,-79.20991351643312,-103.08104097499486,-127.12870677185914,-156.31584257679455,-187.68342914083863,-191.9428569851044,-132.35140884735054,-23.8933725141504,71.64606477581674,118.77921419941063,130.36889695984962,130.5628690565973,128.44765031650434,119.14433225558757,98.33510693121347,73.2031675663385,57.830507056844226,57.97184138578607,64.9597660950505,66.12564507522936,56.870298568911814,40.10925115968098,19.722177204523202,-3.4312579441408135,-30.19897139966595,-60.39096083014756,-90.20944720888984,-114.96906433787225,-133.82564831485007,-153.0142591466815,-180.94024759853116,-208.00934598589296,-193.379576414344,-109.89530703936263,2.8669935132157107,84.78568361127257,120.584841660544,130.95782067831894,134.72308313231196,133.6612441995211,121.5893090458815,98.88389706175933,76.61684698050856,67.51484358231288,72.3754224965138,79.64192233203153,77.32420968436445,63.19527135692901,42.2419865925788,18.117421390424013,-7.290334508030913,-34.095946832740594,-62.89857919269619,-91.05784581294412,-114.82450152498262,-134.1811315208324,-153.94800417474124,-182.64127975611453,-214.56895826192437,-210.4195026958057,-133.69117775257783,-15.628166974141726,72.70494036892201,104.62716830604231,108.98584235071745,115.26746048065773,121.32038228948588,112.87546122114031,90.56382104890065,70.69133875381763,63.96433348060646,67.22589803953227,73.14593021029413,73.44420000526952,62.371341117807106,43.799869891725876,24.59902317333235,3.3634476193512133,-23.03921979068504,-51.25542126008959,-76.46968475290988,-97.60936742323325,-116.51342144082443,-139.54348124506663,-168.1530787761548,-176.3317080819229,-124.36612660739554,-21.291330724403284,71.96482464378353,116.23141822190878,123.91233020788376,122.3283377365373,119.61845387352523,106.24279813918369,78.00933788354148,49.53964954496745,37.67574091615192,44.003650458090064,55.481053959959404,56.54797741289764,42.76584700327478,21.460280913292888,-1.1505269820315867,-25.70449468693096,-52.933215671396106,-80.26341450323443,-103.76018817951199,-121.77746570030256,-138.83514483593854,-164.07080505495642,-188.7673180624808,-172.38920969523767,-90.46931944765188,16.400776434898717,87.05854353619613,109.75016669737316,111.49158039309444,110.0920591073488,104.60886797043071,89.63604643701164,68.38059076358705,53.17368492779866,51.790182341697765,60.21882874331574,68.34636000015531,66.21888771387246,49.3208675839549,23.594304535800816,-0.3461853336334594,-21.447501905098157,-44.80913667806755,-68.89161976150314,-89.45710307700375,-105.83765655390114,-120.07239214636694,-139.95570442801883,-170.56197794205696,-189.49587187839958,-152.60462955346748,-54.364590702955894,49.89068168829976,110.9785897152034,129.0350488200543,128.1998058038075,125.99149814304062,124.49829716497696,113.3258111647292,90.91234785359416,72.45374602476848,68.27146605130856,72.60264739121024,75.39234139076945,71.40383734654084,58.57252112624404,37.814959627611174,12.570549994608351,-13.528511639563341,-38.62305875775328,-61.730591788190814,-82.23558579930337,-100.97935384184014,-119.69114622349039,-138.2233259137979,-157.42482431620908,-183.757920191013,-208.09838935221282,-187.8282821226842,-96.81094164876328,19.946649085706586,95.8978841344224,118.46548665848321,118.56773985701942,120.06334804163784,122.88841293916487,117.00658216604049,97.11636615503117,73.44333476502538,64.31593819330665,72.6846941842828,84.24920385308133,86.03532608913285,73.09499794730078,49.866129886439744,26.385344707619904,5.348290863569417,-16.4669114537375,-38.4665941435554,-57.577976855580935,-75.56049187410191,-95.46049365433527,-115.2890047992854,-130.864584320388,-143.94776289571212,-166.2935984238987,-198.4688342715849,-203.9609057806092,-138.06461836955322,-17.920172835656533,85.20427631293403,130.60545847573607,135.08414125424036,131.16490961248718,130.11767458663743,123.56813984518804,104.62964935620302,80.5629352040482,65.70379018314155,65.68229576686976,74.59166733082834,80.66937794762323,74.10053538691702,55.89920692819494,69.0,122.0,80.0
-38.67402243721523,-69.2750526855344,-98.03299678485376,-120.89118550868304,-138.89240566576882,-160.03157430430332,-190.15724039170146,-210.2242683151827,-175.8816137102836,-77.2429099017084,31.419094363932114,99.2872243707552,125.06145591708521,132.34632326785027,135.17176166963839,131.50627657537552,115.80199365961894,91.74434988904778,72.2923868326943,67.84743139499722,74.86144355028549,80.28859548044744,74.26942126374963,57.63228882862476,35.485701012735355,10.87169626973372,-14.841024952878634,-42.2465792521588,-71.30636682517171,-98.46035547366769,-120.761642855713,-139.48589828595027,-161.04448534086552,-192.63563553208067,-219.42027200791975,-195.8844478289453,-100.63068952706718,15.473411504739266,87.12180858284553,106.91455291153224,110.12172238832643,117.74136760807744,120.75788853478373,107.28055606079283,83.80698624097948,67.34023747840217,64.20216901731627,68.99857736242659,74.19127007287919,71.44350737176131,57.388911453201864,38.20265803131611,18.902892311500334,-3.7642166001856174,-31.26543835031105,-58.97010951271276,-82.96742061140493,-103.11817211197138,-122.3874829764969,-147.72262936115624,-174.57252672187408,-168.52481668806996,-97.56858968771031,9.409463345903434,90.04812024431214,120.8529114066789,123.5713126206937,121.9005127363987,117.3697582446747,99.27106056302146,68.88651487192544,43.98954842200114,38.00902187353394,47.56700102783345,57.34577953484817,53.90402206825549,36.96589387484414,15.001119109421879,-7.955668656835055,-33.34870352870188,-61.00272935261642,-87.58771376417722,-109.48810753500919,-126.38767498594457,-145.0473786701983,-172.59496061109067,-190.31484913457294,-154.90743508757978,-59.054104253684,42.27198177084062,97.59746755154637,111.1795995857158,111.20269285871048,109.21554458079717,101.35856518902659,83.67713737382549,62.80789594968518,51.327992924704255,53.61958963360146,63.077443383650966,69.1432746878367,62.80805387903246,42.27811611491636,16.19134704390408,-6.48238328050099,-27.865992155296016,-51.93027413175081,-75.28499644444585,-94.59062924628563,-109.9597613766129,-124.76429817345151,-147.97717070119614,-179.14129891475085,-186.1510774999452,-128.86706333309286,-21.865516714788924,72.85553360094785,119.63952093293368,129.7030790904587,127.29133648947331,125.82642270731085,122.72403334870015,107.51923640775567,84.41490830983017,69.77537981979583,69.15208057020229,73.88949241274366,75.07215767424249,68.6272844398207,53.26905431936131,30.802124283902295,4.9954527443667756,-20.922722800395213,-45.55077638579348,-67.91528390325925,-87.75649222424451,-106.33588587499895,-125.13096794958828,-143.4731788191892,-164.08896101258202,-192.36323848639958,-209.036109235065,-168.1776134168459,-62.31458429480568,47.941670670041646,106.88322245913632,119.28026953463917,118.4802378030129,121.14607128912547,122.52048165682427,112.58787196949936,89.81002988872058,68.72604233764336,65.3983105665914,76.42576612142301,86.1307012002731,83.82148410650245,66.98475755166277,42.77692430406031,20.187918586519487,-0.7805988182468288,-22.971784007321986,-44.32408983725601,-62.69531095943161,-81.0954674546199,-101.39841426152401,-120.34693808966685,-134.5139849888319,-148.90155791345867,-175.43274942264705,-205.23548590221645,-193.12641348467065,-106.10673455981299,16.632698401045037,104.3652723089559,134.50748924552488,133.7830349180123,130.73582333010677,129.30070243488706,119.33466096038593,97.55345976512318,74.81485852084458,64.26566363060223,67.79311679361258,77.20725184014682,80.26053200507575,69.72083146787526,49.572406051348864,26.772558539069685,3.655181000109028,-18.400526756407288,-38.28897588302284,-58.71102554741929,-81.60003333166468,-103.25586180661641,-119.76363623471332,-135.5568079566033,-159.1197978307334,-183.32834635225825,-172.0630102170836,-94.82040768133744,16.13278657338614,96.51278823958987,125.1505394909983,124.8974397239494,118.63688722607615,108.90138565939955,88.77717391516249,58.71783619023401,32.98435372567379,26.347812359736686,37.66211646639069,52.68959151156811,55.59460877141417,40.434564018281634,17.409612028635838,-3.898708604279502,-24.763859117676095,-47.674492348129654,-72.01091781772158,-94.62172060087062,-112.15390149805876,-128.83097405140253,-152.0305988245694,-168.49927112061164,-139.20241616466774,-49.49466014527201,54.87947422527962,119.40844999958195,136.0770715091834,129.21844424173776,120.02260050452482,108.87179781824706,86.21943071504266,55.20973556086962,33.42377617541851,32.232188927937685,43.71562596367053,51.92011203083483,49.93857678803536,39.58022652563315,21.033457094258775,-6.5166531774894025,-37.202533094454786,-64.52589078083999,-86.93395437202427,-105.41020985081173,-122.36406173912324,-140.760164088041,-165.87046002187054,69.0,122.0,80.0
-67.50399104379936,37.583208379690106,103.63343980295039,123.14601805206755,123.03580259337875,121.32740902942943,113.89147914432967,91.13865641114089,60.26371682692593,40.1414214301783,39.72305964875103,51.136048511265706,58.00591253774323,50.0671638324309,30.790375649252603,8.5028887692511,-14.98337195318393,-41.205306014609604,-68.98389243208133,-94.50202978965666,-114.74635627076567,-131.11598712388994,-152.1864612361315,-180.532855418588,-187.16494682747128,-131.87035208390932,-27.223846203123774,63.84640630271958,104.50205451680478,111.63336402595569,110.84898580004239,107.84729783639469,97.20461956980373,77.4024707387953,58.086114392637114,50.7118021429015,56.067287125117005,65.64537950038896,68.85824281254897,58.13094839573501,34.76408877834965,9.171591516058317,-12.499783403967303,-34.57938968163762,-58.98106789323427,-81.31394849930483,-99.38527442477978,-113.9780623656016,-130.20304077317044,-156.90949312899366,-185.81511237198464,-177.00834004925346,-100.59424815220103,9.364570220960156,91.4668381716561,125.17366211153542,129.41582240777583,126.56741751949065,125.60247671980758,119.81236188586676,100.95260055129441,78.71793456047801,68.37727572639099,70.4676868613769,74.84135129379823,74.10297859869364,65.08412831988551,47.358267712800114,23.514612384209567,-2.5723502730890866,-28.210656959806354,-52.284593851852705,-73.87880602516047,-93.16608557500243,-111.73519777863564,-130.51038870656336,-148.85899359080938,-171.56751650269297,-200.25760980575436,-204.8928423501802,-142.53808141352545,-27.511546986697986,71.16562758236822,113.79949507286808,119.14551791428596,118.83572540024682,122.14543224866746,121.15689069995535,106.96894960926714,82.62370244528688,65.65183661532718,67.76624343145167,80.00206615686275,86.96503240272149,80.32035878255522,60.24115314939038,35.90378482824976,14.142757621731299,-7.057644623593456,-29.40826242872635,-49.883058265696704,-67.82773138011585,-86.83203021237846,-107.22593651097935,-124.94905322837393,-138.1028770903677,-155.00844141803273,-185.14634656245693,-208.45500756397414,-175.45430128350782,-70.92359770785336,47.85757668022989,118.36261321009819,135.8477955860393,132.48248281967798,130.537853550383,127.71434527182038,114.00502067794653,90.38015899692836,70.17617787822022,64.06653446389369,70.42509796466366,79.26024939708464,78.62648287967554,64.52152727396563,43.06923266268802,20.096627820449356,-2.9270976290408974,-24.31699122869197,-43.96582072701578,-65.12822572338801,-88.24631793575212,-108.55355683482426,-123.97339217168783,-141.3809069483648,-167.12781559450022,-185.7835383235483,-156.50010080195375,-63.21074574010456,44.62131509903254,109.54564279505192,126.70412310982583,123.22117581480767,116.47717373674759,104.38534407462393,80.71666748126601,49.9945182888382,28.803067159104053,28.25704548500383,42.381099023019296,55.33863723666356,52.87051828773175,33.94649987967783,10.986238309936907,-9.799608994973635,-31.154548024534744,-54.645558348191294,-78.92401839630574,-100.22296260906155,-116.63503779919859,-134.8265467681433,-158.94519942662487,-166.4541201893173,-118.48090892278955,-17.87474161742273,78.96413427091433,128.3350797460758,135.26615716281484,126.37297923452992,117.44984993003341,103.75269272966699,77.4763767927334,47.14920232634154,30.953678824505374,34.99115128294385,46.97421669597547,52.39108119276752,47.694589975347185,35.1769694069886,13.866098153321804,-15.427927109962214,-45.59485243765978,-71.49056356545107,-92.588719298985,-110.34928924894929,-127.35068380534537,-147.08538890475623,-174.58428504139934,-198.7287750033448,-176.61006724839575,-82.26651846031125,36.44646379213273,111.85878863868292,133.64401461099254,131.73506752947586,129.02846613435725,126.51904470465115,113.21904412882762,88.71769255468224,67.77574078852159,61.20752828578074,65.15583500390852,70.40966199056743,70.4273475788495,61.34096370942805,42.745880011649405,17.83660962557967,-8.696630180287771,-34.692791819177316,-60.514309882951586,-84.60237297221143,-104.30643585268929,-119.18338254932638,-134.57046102449016,-160.52492185777592,-193.96027822041043,-200.37269567185857,-139.39859495004274,-24.245299827667143,78.69821095783425,123.83365344878993,125.44138637719743,120.84586965738856,123.38065501403703,118.21927213315982,94.93089329316194,66.39308767335855,51.1444775298854,54.028896750302636,63.790083584130954,65.92664462853834,56.77930964374546,40.13850989624267,19.32083031528399,-4.145857962170618,-28.55414458762131,-51.720577879515204,-73.87985814728805,-95.62953366311369,-114.29849507984544,-126.86658645722198,-137.59563533199744,-158.89175417805663,-185.7053850997133,-175.36579720034916,-96.46672287700025,14.77351362204842,97.34757765306242,131.39988063455075,134.65574843765714,69.0,122.0,80.0
