37.06536124665368,1665.4527442727397,2117.6284810233747,1786.6325131084059,1507.487867928861,1426.6492315683265,1336.1352760033833,1181.652829946293,1029.087164649138,901.1422838408175,779.1374714278439,654.8202818318496,533.3185497092055,417.7761493902005,308.2034393718073,204.0108455607457,100.47941496098417,-2.6955347230319306,-85.93769931204818,-126.8077227339507,-134.97845281042157,-139.6960617257793,-152.7329692393137,-167.5161370755677,-173.79644427607374,-169.0338425455852,-163.13584500246594,-166.52704909514085,-177.16817976465316,-186.84238177137456,-191.81174622034104,-192.8609120902622,-192.08111196304034,-189.9651573884578,-187.06994335566796,-183.93545685638918,-180.67474468964886,-178.1792587260015,-176.3892941039625,-174.92171234936163,-173.46751748899698,-171.82809498421474,-170.8982740577124,-171.4212512309993,-171.59523958895767,-170.16790466052637,-168.106600587617,-167.50463338528124,-171.0300560050467,-169.8318976498059,-144.03874782438172,-92.36864924728692,-37.1991244535727,5.52314052147636,40.20231884861315,74.68159649871949,106.71457717428518,133.05927668507996,154.50246708654436,169.28372367773093,173.87508207989274,172.01291822510314,172.35064629704223,174.60395563311926,172.78142190731913,166.1026621908585,157.025636318089,145.36793282633178,130.2298990263923,114.27122057899767,100.39905514086165,85.18574305155187,63.71930668842443,39.038500304917015,17.909014091014733,-1.00209927141356,-22.268079634568227,-43.85188236674012,-63.53666954375468,-84.79054791227998,-112.01650025032983,-139.78527937895856,-146.81397959908006,-122.18567889487412,-85.71086659060751,-59.1331007090354,-42.300066593208136,-25.243495853353686,-2.13051623710919,22.632489260615696,39.402041353328954,46.704700777098125,51.77550014912837,57.742909487826324,58.69937165106921,54.731802076436544,53.9230236628579,55.45887339975231,52.27372886246286,45.05256723619588,39.18803587482709,33.435774971958104,23.077220687374854,10.35686671070412,0.2568552005054716,-7.923219593787589,-16.969401273598525,-28.796753817238333,-42.99741212188598,-55.80698949603771,-64.5219715860187,-72.16881924348765,-83.49424689249184,-100.66147678495146,-120.28471001870935,-130.4559002655477,-117.72961643146051,-84.31514861071476,-50.07836494032654,-26.53705280225183,-6.786765946436907,14.567869364341679,34.797630409162856,51.77456463158486,66.19136829038936,75.919381874369,78.0874599454136,77.31642775382383,78.77601407468353,80.78511956496294,81.02801340518923,78.78261310590312,73.43009522063862,66.4245501051149,59.97653089205077,51.43566724181244,37.88065891981078,23.974809881743763,13.356122075918744,1.7208050187326227,-13.830709022417071,-29.234819817127168,-41.71955537568757,-54.38220889354847,-71.85806401674003,-93.91081358783588,-115.66283526373236,-128.4883235882928,-121.86098384015251,-96.84101061431844,-69.1554474871544,-49.078620901875915,-32.916816432198445,-17.137346102067294,-4.011554599161698,4.816574573232248,10.158408924076596,15.261489211390792,22.34321560248406,25.874353651757303,19.329416902104402,18.20948686869579,54.60647481286315,127.01226405984369,186.80050435494974,199.11670515133986,173.95578060896617,133.96727788263706,93.55811013008245,58.96031706152326,27.281328818577578,-3.1704833318180143,-28.235121214146297,-47.72373275353964,-65.78552334280002,-82.22261876723238,-95.53335901095107,-109.56578253348701,-127.6487146640934,-144.4799745834603,-147.1127335306641,-127.6029700086997,-95.44704826473446,-64.82560298172538,-40.11834972177921,-19.09855271147894,1.8391144820977168,23.88738145721896,44.013388435888814,58.61106093456365,67.3636678974938,70.95614884570547,69.93465548513079,68.45508099521928,70.83974446482938,74.39760426180798,74.23142747555804,69.51045190758325,61.42039040739553,51.822669667580286,43.59635494779659,37.35012065781791,29.277408151620882,17.43736948025486,4.113814921318708,-9.282897744863387,-23.967206686985087,-39.67339301227152,-54.5418177481062,-67.75120402725412,-79.6447556395541,-92.89957633473648,-111.90763433108813,-133.5268129814062,-139.44206701379733,-115.70422400223967,-77.22930792686854,-46.48702854199478,-24.687827961914707,-3.3314239662748912,20.312599892133097,44.59072357828767,65.79265106648121,78.67062559317762,81.79398618339289,80.29869450153242,80.89721282520766,85.49032972653491,90.21055208431248,89.23733028500807,81.88332361195852,73.80427617525324,67.84599270631792,59.03910636382095,45.22856452846332,32.26890049268766,22.878600985387223,12.27956871968829,-2.497178990928787,-19.06151383876574,-37.2991942343987,-58.443995934339995,-78.17037634225586,-92.86221418434295,-107.87779281654618,-131.10037508540037,-154.96126161252636,-156.83097790392245,-128.27362128713744,-87.27926577233464,56.0,102.0,64.0
173.09231690859585,174.66385615906773,171.23539237468174,163.66364972456861,154.00316631584045,141.30893569966824,125.50995690755022,110.05805070040928,96.43740793130047,79.67838329205357,56.56719902051835,32.428369484448524,12.488701912417174,-6.862781580117069,-28.671715027980785,-49.67037843578415,-69.27704337719823,-91.9666771959513,-120.70765717323951,-144.97995954935655,-142.5676402798447,-111.56708954567101,-76.6228326682364,-53.69284573198228,-37.79968923964576,-19.210176604271982,5.303415982571526,28.603823189567848,42.24266386748841,48.056577156319044,53.577451845580335,58.79125184621252,57.71039238843428,53.93770428240853,54.47584811382044,55.19503130994536,50.33783591272313,43.0946495105132,37.77060065020852,30.990022967287675,19.35810836695921,7.093305001171728,-2.1733716459936527,-10.34031962458408,-20.05649423004,-32.76664131646774,-47.05150736480131,-58.7129926735509,-66.60979532538201,-74.89799216170405,-87.86634023804551,-106.43646282541383,-124.9031483773938,-129.46047096047766,-109.51515199468352,-73.57196993042763,-42.27332669108636,-20.87262676475887,-0.7516226842094944,20.70552527198485,40.01717482457457,56.20100503947643,69.68904998371407,77.2765287113313,77.81806049429613,77.48422649127032,79.44792544583937,81.0777305386392,80.66932307726782,77.55156849025195,71.44000833079214,64.50280989974249,57.960931263400106,47.95904050057279,33.59492181491209,20.639938931523247,10.370500799155025,-2.4617601912494522,-18.526081417535103,-33.10534015424024,-45.118222300893635,-58.82500228715895,-77.91599157077108,-100.51956880650326,-120.7876355170413,-128.88653919248395,-115.97673270687505,-88.36786734193058,-62.54906117531564,-44.305000755718005,-28.274769370071144,-12.944790269605562,-1.0149609330558103,6.619767739505195,11.477305439801317,17.162919671288975,24.1826272915707,24.921162326450677,17.011596717800604,23.834507192231463,73.43399276693891,147.99814583600187,195.4786489224696,194.6001178506178,163.12874365527412,121.88707055527162,82.95528028200557,49.730501554992614,18.214887948742728,-11.126240150821857,-34.254088773557,-52.97644396189828,-70.83429505870416,-86.32257345058918,-99.256820368753,-114.41827795080958,-133.1210419176776,-147.31544767720737,-143.65784020306612,-118.8671660158322,-86.04922786707672,-57.11143179168179,-33.831003627449924,-13.17275679237456,8.16099373594069,30.09861271915562,48.88010255850454,61.68992152197567,68.93339169943238,71.04336302896843,69.27560873714702,68.72560813766133,72.00643016440779,74.85553163195102,73.28466647645648,67.46138132647705,58.683861076349146,49.187955402192614,41.701098764004094,35.39328766391827,26.18752225652368,13.615573095092758,0.2798996702882298,-13.341904670293363,-28.4872335224056,-44.11528297729856,-58.53895557575904,-71.26320711062657,-83.13681463892432,-97.67048241784289,-118.44313337944146,-137.86050181107703,-135.5433684681945,-104.86553120235922,-67.0595630155982,-39.67625599338437,-18.731036853072304,3.300738082877606,27.376988788875067,51.26633662412316,70.5581188033606,80.45416238945708,81.50474351483457,80.04415128017112,81.89745917247677,87.11363547317639,90.70026635035563,87.58725687807805,79.34470048645045,71.97557103293444,65.87358922403774,55.38824170298389,41.110769772329235,29.30801361723498,20.203292589863885,8.379906166500017,-7.204923588378042,-24.046078231385756,-43.18942334252784,-64.57260827397099,-82.87827542362645,-96.7283105757351,-113.6401440591373,-138.8391428039787,-158.67709880983253,-151.28994794978183,-116.60055451405199,-76.26119562278372,-44.740669972775045,-19.515035242914813,6.204106246865801,33.774113043426354,60.09698163913443,79.8427999074609,88.46990058517139,89.39880173929083,92.46217148269015,100.75277231454581,107.29544954002684,107.87759491852796,103.74734082238562,96.09146282081579,85.96248719275495,74.18442777988353,61.40503306249995,46.980454903018384,30.486930579495343,13.605032916501298,-3.495282928998774,-23.154977358698797,-45.11959136818092,-67.32291279383318,-89.57663358480178,-112.82054629315182,-135.60773344907895,-158.1987544269845,-185.25221460257265,-210.80996182765756,-210.4501920720744,-171.06126394968302,-113.39982705412932,-63.07676578165028,-26.261976710866332,4.011415609879681,36.91938414452902,75.03175046609638,108.61129911583129,126.73287046413235,131.79382279537663,133.04820418854106,134.91076496518716,137.2306570566878,138.27330648352455,136.48323486637443,131.19625856718858,121.32669783368657,105.88451334706805,87.6184514416883,69.85002124434966,52.174879240411805,32.728535680336385,10.43099640731097,-12.58930355613485,-32.812649003424866,-53.046574335586946,-78.11361965048248,-105.88330969025472,-129.5511293518218,-148.3347986604485,-172.84686494291608,56.0,102.0,64.0
72.6835900710908,77.97511200081227,77.5072385161162,77.89201252899812,80.07533651570598,81.19354937900084,80.08758546553774,76.0477648244405,69.38341504456731,62.66359409073138,55.63380850585099,44.054968443948766,29.467211874177348,17.588411125694105,7.12754477674229,-6.960120185523121,-23.06342386832143,-36.72110463605299,-48.661245069962675,-63.76406980229363,-84.28670617852781,-106.96130108658141,-124.9072697412103,-127.41092150438777,-108.7804698513302,-80.13750976620375,-56.66579531279912,-39.667849142798566,-23.661016197890838,-9.057030818439046,1.6121886731212687,8.170109673598951,12.882961195966681,19.247195025981846,25.47898380718742,23.03872858242519,15.848918049758343,33.39343266695618,94.63522973818009,166.44721560974722,199.8263433990958,187.55048292411576,151.547761101211,110.04848245529097,72.89715002943497,40.595975908380616,9.296998097142906,-18.508219701735207,-39.88952366024221,-58.20831715906167,-75.67263841179974,-90.16213334878798,-103.1940832226078,-119.63302877619674,-138.26491654449373,-148.5907697366158,-138.30058814910075,-109.48580298966476,-77.05359277541396,-49.89613181688641,-27.764793307164293,-7.16632455855238,14.562686435035662,36.03845843211239,53.21906043204399,64.31031415855152,70.07369816251318,70.76911259606322,68.7360267677415,69.37545285618575,73.12971715867448,74.90779380353925,71.98424263354765,65.15784092499507,55.879391674115084,46.74691531790978,39.93614342233463,33.15992200067719,22.79307361834417,9.749561453686276,-3.5613937047929314,-17.55232653702851,-33.049234060118835,-48.44710741264127,-62.38847123448271,-74.68470313279647,-86.83900802689169,-103.0396361195817,-124.98147081439521,-140.28515551949812,-129.03682931340123,-93.47738824284468,-57.94167975535348,-33.40679908704491,-12.628813902181355,10.117578757391268,34.440983335414934,57.56689530605148,74.49951443237549,81.45467571099047,81.0101654055139,80.11147862550945,83.21057872772916,88.60746942727782,90.57788015353928,85.47111964034063,76.92423723114939,70.30973021975733,63.47703751734754,51.37258318906517,37.253047367749744,26.620239736171527,17.258854690317342,4.135937989168897,-11.979074576941768,-29.229407931146206,-49.31862037443661,-70.41280005727856,-87.14271894923888,-100.85316832171945,-120.24613311194013,-146.206539953387,-159.9475087637885,-143.29544377457538,-104.53031071083704,-66.10918543136464,-37.15956234956254,-12.31805386912789,14.067461678373878,41.702262330551534,66.7535725085689,83.5279906012299,89.12102346665239,89.68565277730453,94.52331676960381,103.16862920749969,108.05810366424788,107.09920045284912,101.85489341443551,93.37638321910686,82.69235474028606,70.59233626914545,57.46089016935288,42.38391527488379,25.565133699737487,8.786302185126734,-8.847591848525813,-29.35996068496702,-51.574087841105,-73.68876635976098,-96.20132699128658,-119.55140093935302,-141.96877987978144,-165.43405093246005,-193.62824815797077,-214.55240894479292,-202.70751701822977,-154.87702530558025,-97.44623874207389,-51.22930436840429,-17.27447593549562,12.922309998303586,47.610544909973456,85.83744039155854,115.61732856005601,129.1120494663026,132.22630157291724,133.47874188765692,135.59680546867455,137.74783765461095,138.09098478430752,135.33529372220437,128.89842575479688,117.39635100477204,100.6991525711855,82.38049491735387,64.8212347539531,46.80955601963611,26.575329493319522,3.6487662011746824,-18.74605764802886,-38.37726623078629,-59.72452657388124,-86.14815988719768,-113.39408049598093,-135.1864902196761,-154.2395730512307,-182.33820123631162,-217.01355473492117,-227.06624386105625,-190.1792539477216,-128.6984517254084,-76.8653576425407,-40.1807373477427,-6.823283190103089,30.196914391907477,67.53599119536594,96.72358512074457,114.697936749823,123.1580119478767,124.16383636349536,123.32098998489876,124.86267095468824,124.86366517821452,120.31833142607022,112.74656189068588,101.62274815208767,84.67285601895274,63.924979587727215,45.810901521439604,31.40682806559205,13.351505210880928,-11.313324027571559,-34.93351354877257,-55.26403062737018,-79.01590280826497,-104.8645615843196,-127.47463110972834,-151.1208571644251,-177.62375210854262,-191.3627557969748,-173.25924014787256,-128.11455995709971,-82.10401157064696,-49.007359831164976,-18.76267636660036,18.359053678510577,57.91299598120797,88.3040690095102,104.11523135305053,109.60189637273058,111.27675152380692,113.85687637740224,117.64703748671408,118.46424031065291,113.57331000974759,105.10391093717986,95.4165924498898,83.16553042746972,67.77322903790358,50.698621834164356,32.439248603900026,13.619980329510584,-5.45608776674808,-24.728673948285273,-43.5398664132885,-62.914789174801854,-84.3355768796739,-106.39182904270865,-127.55293424771006,56.0,102.0,64.0
20.964188914797482,41.60067064705204,57.027876186295636,66.49759198164872,70.77753230815443,70.23263215790098,68.46243842776833,70.33023155016048,74.06422037612607,74.53908905477232,70.36067610175726,62.6398701111828,53.08498260817269,44.53697912884588,38.187106271710306,30.585522924157466,19.165631867170003,5.887180473857656,-7.455594816251281,-21.91337146377935,-37.59601422086949,-52.650429905199026,-66.09109597113317,-78.07258386878681,-90.88318435130766,-108.99556411477143,-131.04620458014853,-140.31938355236326,-120.311896418088,-82.22094206560782,-49.883156402515,-27.41750809008958,-6.317167949974594,17.07314179984173,41.425142292518665,63.34473986870337,77.55962491487384,81.80537308022772,80.49567250130337,80.55928113335202,84.7430286807433,89.80356116151164,89.80620822259019,83.05113962482275,74.72846637388028,68.65582926802588,60.56193855113181,47.17222827217385,33.75316080865182,24.06162470878813,13.944489259662404,-0.36339564965968196,-16.80818526225464,-34.682854451656716,-55.566856723324655,-75.8338434093721,-91.09342919276256,-105.49864192894097,-127.5664492864094,-152.557448389709,-158.4669396479361,-133.34806076122027,-92.60787313855397,-56.85377790257561,-29.911286323690998,-4.945949974154758,22.053268272238572,49.43148745017166,72.70488579917784,86.20846601735792,89.322991438418,90.40865305891808,96.96243401331733,105.2123759121103,108.31222344451778,105.97237638020133,99.68834130739768,90.48192787616227,79.30255130442907,66.92873464205014,53.34530228308205,37.62400889932066,20.671710866625585,3.907932733718796,-14.47124071872471,-35.710008726097804,-57.99968662828289,-80.08692961879667,-102.92248765562914,-126.17253132803474,-148.38521479080416,-173.1817865988294,-201.52902647287473,-215.3850729116409,-191.71670296955898,-137.96265479132066,-82.57719769153236,-40.45970599097876,-8.600801752260182,22.270542355786336,58.68917917993761,95.90552524113522,121.14963549434398,130.61621594037402,132.55143471650146,134.00163501424018,136.29263587945084,138.10905781062263,137.64256769923426,133.889612798154,126.17216997196394,112.99726419398358,95.3905067432243,77.23619702638084,59.75297042999278,41.25534138147879,20.164644419176156,-3.0870569265110106,-24.609766538229835,-44.09621306857633,-66.88697347347357,-94.26982104531648,-120.38473427865078,-140.5075514037988,-160.99155822054345,-192.6266192286126,-224.1246927737845,-221.06896521922647,-173.1267005291127,-111.85947877009824,-65.16863533521204,-30.695795706352904,3.4512723949672046,41.32920614003192,77.10115833248251,103.01651397561544,118.04466432883241,124.06087240970956,123.78014893542712,123.57566923579029,125.27273857059824,123.98242850661376,118.38445923489596,110.01408622390294,97.36421795332265,78.80296058900002,58.18270443203583,41.49229781007851,26.930028828399593,6.683187843712279,-18.60915853352198,-40.88358554918741,-61.57173627504093,-86.61565233252901,-111.72362223704656,-133.86998716450404,-158.8321524927427,-183.9486385884545,-189.80012841341136,-162.00168778515527,-113.7681548848834,-71.35924891705803,-40.64033625309203,-8.806592795750127,30.03002351102735,68.09045868499229,94.31075203884355,106.45690231168872,110.22167948303559,111.80197843373249,114.9669055890166,118.39416151635196,117.62517670009403,111.32733022194702,102.43268358744515,92.23552434705186,78.97247737798814,62.97851846668415,45.522682973925356,27.03109926121267,8.141770586144213,-11.0319450629003,-30.21684143705348,-48.98075768195486,-68.89825232142361,-90.75895262552454,-112.56725326600228,-133.83673104438537,-158.76484984603684,-186.71889589956555,-200.02111892118614,-178.9395674086025,-132.93196411289003,-88.17029842472607,-52.20982911867683,-18.003911486028173,18.162799982038468,54.66515184259765,86.52181163157648,107.73289021148665,117.9076272719784,124.17446195236725,129.607555855696,128.72611886263485,120.71574583379045,112.17120249083536,106.83595366732428,99.65712792696513,85.94573864019904,69.91380766380131,56.678072516121205,43.88187471842471,27.835519524820725,10.232142620286972,-7.645712898690303,-25.814496836270532,-41.73292265308043,-55.46978373362128,-71.6621168733447,-93.28976066029671,-119.14388537017707,-145.68204494717057,-168.00342642825646,-174.73248519550842,-153.99028438352903,-114.87235811392023,-78.52721476978174,-49.515936804336505,-21.225957352104246,7.527021556960909,35.95585142181817,63.55456226639142,84.17569954557655,90.99309892963744,88.56332484539182,87.34963037230536,90.71296323567528,93.17726521795245,89.6022513382923,83.11693142337725,78.56275350088559,72.5840310328777,60.06308747399452,43.140064978443576,27.866993673669093,16.63703662598188,5.7250801043095985,-10.06567373718645,-29.477959025820255,-46.41760284447315,56.0,102.0,64.0
-81.24039608424214,-48.40719650033636,-22.796635025961333,2.6377974180650896,30.08229097043124,56.834223391813815,77.80757684241664,87.9473707289132,89.3593627923553,91.68296652141429,99.56454271139415,106.76241389784151,108.10988390632865,104.52083699130202,97.2770150134914,87.42369747097258,75.81742753410704,63.17471095960218,49.03525853190039,32.75285280955067,15.826370296480237,-1.112002028184619,-20.359982399210377,-42.14239327293579,-64.3872958703849,-86.55910879107711,-109.6971509172584,-132.65748847607782,-155.01995411538675,-181.37948672933703,-208.2862234697604,-212.8315796154982,-178.05447411536463,-121.03995050985486,-68.94124584903261,-30.578816013232327,0.0031937258226313707,32.16522077540383,69.904577280705,104.8997828137327,125.26718279951689,131.51516660597287,132.87829817659713,134.60850530902073,136.95243745294394,138.27348733137813,136.91485135959178,132.1259650051439,122.97075157800693,108.2014318570112,90.06097872001413,72.17004078098518,54.59519629450057,35.476699297256154,13.537533831795228,-9.649833974297172,-30.25159490670074,-50.12702053419285,-74.4887608312942,-102.281162529049,-126.79047540635814,-145.80408541918493,-168.83583008664604,-203.1157832361359,-228.16482312293115,-210.9783020324094,-155.01501810874498,-96.4866139367284,-54.53571119123617,-21.176720124689453,14.109041128150606,52.30230408771771,85.78182730625993,108.38633628608255,120.64420110329687,124.39559150043307,123.43985064049583,124.04930926770126,125.39384331408701,122.7181148548195,116.25059844415885,106.92728091268013,92.56872003337877,72.73807330959336,52.82988509356834,37.4077529421569,21.90730231578272,-0.4772737887321556,-25.563080163104495,-46.65676513708033,-68.34863670031498,-94.2037665330397,-118.24867885645064,-140.56475322831884,-166.69691429660483,-188.63614821206573,-185.21215231846344,-148.92932460459537,-100.08261417800472,-61.734269846000785,-32.10944946897337,1.8336894816992233,41.66114404919522,77.20742098347104,99.08592084821412,108.10351141618015,110.67119811142457,112.4979612333536,116.12329477829266,118.76631867210021,116.28807055518396,108.88071919103197,99.6816379069521,88.77453076466593,74.546635818854,58.070451913173066,40.25648785271068,21.59446510165433,2.639642973674142,-16.61573644827792,-35.648659633302834,-54.52361423235663,-75.06948919722043,-97.1689263612063,-118.65288306000608,-140.45109871180884,-166.96312595285386,-193.21432825846992,-197.74259652983878,-166.9814271941212,-119.04437691959745,-77.11527300437812,-42.44852785991504,-7.7524098006482,28.834014784914807,64.63736412428713,93.9315051427581,111.5818056383952,119.77001247988085,126.00340006854535,130.2291505213125,126.92900058566883,117.9765345137904,110.3817908076253,105.29418480995143,96.33885944058821,81.22291517891097,65.76259204842613,53.17931429442981,39.591202714195944,22.778273888898514,5.128631704516603,-12.941907750063654,-30.755569383981033,-45.76583761330427,-59.67892171630023,-77.3395935666999,-100.45795136727094,-126.91593679472383,-152.88531691936208,-172.26022739671635,-171.6737166455245,-143.57218410764523,-103.44586167567448,-69.68805122714915,-41.45558920288674,-12.891000419789586,15.749379768816294,44.15092518490785,70.64609321521225,87.62118610401537,90.75071275423848,87.73982576085449,87.96987371377737,91.86340542913372,92.78557269082414,87.72560938510817,81.57892949562364,77.29558426482053,69.6968737028354,55.357889683298545,38.33621194962659,24.264227429115245,13.733025192645371,1.7686132577376712,-15.55205106110385,-34.85937001566879,-50.42094041450024,-63.468210656234234,-80.3784614374637,-103.05775483340416,-124.84613668865995,-132.16729740262855,-116.58494638037118,-86.13769651984057,-54.141705877717236,-27.564484918340504,-6.594309967383815,13.396114167737737,33.77889582904544,49.18373270543753,56.679950088613154,60.77543648326961,64.0461901313906,65.485825218112,66.78467785384638,70.82375806869351,74.49266935172207,71.0491259594478,60.69074979122849,50.66104795846854,44.23448857115566,39.24118938767114,31.157363614604627,18.94744795450824,5.345189980937716,-8.145185383338106,-21.361938880676366,-35.95154105913569,-52.66752961981997,-68.39739728028044,-83.69211577163178,-103.48339330069972,-125.0415526595245,-134.32794118570624,-120.82571640856007,-90.40518100037912,-57.93334830382523,-33.24201132069518,-16.05203853184433,0.5716421564780253,19.885098380136924,39.28808395492209,55.489951855091554,65.27727507582108,68.80486022950623,70.32404708017633,72.2200083808692,73.30855930680367,71.93181017374305,68.03426507270731,63.92111754072169,59.92668446433275,54.178433303630435,47.20424874352355,39.43167045243584,30.595222176053234,21.76860435472251,13.268058444421648,3.2003706202627824,56.0,102.0,64.0
-177.83778665712398,-212.96259515921403,-228.38248470126547,-197.38613727673078,-136.85324601946354,-82.70581249959899,-44.61229705694257,-11.4297874855967,25.075622382620026,62.86782960188776,93.49748666868905,112.89391036371231,122.52427702372188,124.30175574343116,123.29641942776787,124.61508127444739,125.1286490578211,121.13601498736554,113.90786480485342,103.40898742206522,87.26624801537763,66.67038369584697,47.924918897232196,33.3424942256257,16.21209224024692,-7.887894282547218,-32.076374112518074,-52.49004524888992,-75.57120426668389,-101.57676132448736,-124.5727577458726,-147.68670718684032,-174.32599195096435,-191.10622878222637,-177.66120832067978,-134.7834410523958,-87.48530168494636,-52.912856769538614,-23.118025378065273,13.0481637569035,52.92911383933099,85.10009674484276,102.75369700645581,109.22141302068977,111.07514325362916,113.38735343518037,117.20736143773753,118.67633301278788,114.51401708146456,106.31369893185308,96.80391454938372,85.0056532724743,69.94318918405118,53.05025947141458,34.918839125456195,16.139786321934476,-2.8938911567480416,-22.178765563067724,-41.04872668262525,-60.22343447458001,-81.38866528671201,-103.5060188963388,-124.72507188609065,-147.52184544498024,-175.2804213569183,-197.8537448213441,-192.24971519882402,-153.5603336209085,-105.8497597005315,-66.71338844249824,-32.632074167541845,2.6802030141266737,39.46283669485741,74.06706698591677,100.31443981527808,114.59061253045374,121.53708306141284,127.71316396858433,130.15405385152548,124.61921971520131,115.39818588302786,108.86580439299738,103.39491280933707,92.43587637969681,76.4962845166668,61.91311605864049,49.578831696867326,34.987181516137746,17.679789725124227,-0.013458734437949704,-18.241069023990484,-35.424436703076545,-49.681049962580246,-64.22987116174374,-83.49716499919903,-107.91651209732213,-134.64952572541725,-159.60735433291785,-174.8255885569496,-166.1222081915897,-132.12833311684568,-92.72410924479286,-61.32953432119406,-33.30758079396484,-4.562934585033766,23.955792048262477,52.24152790436471,76.92482980624186,89.80845013089598,89.9887896440485,87.25540437911525,88.95121526998824,92.73542636289918,91.82884174264134,85.77122557336413,80.27119638918766,75.73226318136672,66.18755285877037,50.419115661157406,33.81676778954864,20.999061631533205,10.704503764247999,-2.6949394931707737,-21.224591077781145,-39.870586452289515,-54.17315695869856,-67.72787860321236,-86.46057538249858,-109.9653031532651,-129.0780328711155,-129.9652269558544,-108.65705299818977,-76.61155185101153,-45.76479929917978,-21.09732461970994,-0.9157303734020681,19.38884539968927,39.03243107148417,52.04828124513541,57.97906410048251,61.843175889336315,64.659485804818,65.7038736406988,67.65715557018746,72.23399042694444,74.43673235956567,68.47677466354367,57.47963475893745,48.45275372512315,42.83766159844086,37.38676043150423,27.947930521574737,15.056361226824604,1.4072691597488212,-11.960104926552525,-25.32704935028909,-40.65948024073967,-57.43876256548763,-72.64169530334654,-88.81550620546973,-110.00898576573672,-129.69028382640326,-132.83679786944944,-113.14159489158838,-80.62460311827367,-49.81550998195284,-27.764436487799664,-11.48582479459233,5.9324987772678375,25.63480679096469,44.446793938687506,59.07857605365057,66.78637931790718,69.25941916286816,70.84473324773863,72.70165286677755,73.21586389131643,70.99051070570019,66.7678828382131,62.847853851359254,58.476915822941066,52.227922515893894,45.07029936664838,36.96168620062055,27.98591787173649,19.33536062186289,10.602109489628923,-0.0704683281334407,-11.036072292050683,-21.611187624623547,-36.79843027859357,-56.04290311725464,-71.5272611042484,-80.694746896757,-91.14003488257744,-106.26147274006611,-115.33028880915107,-106.46163265383474,-80.87362955780374,-51.43057442059607,-28.863035974016377,-12.633981782211364,5.031989909299219,25.465948113110702,42.883304531322324,53.02307724659374,56.06000363635035,55.065804631398066,55.50723587896122,59.31437291435984,62.91402542624646,62.90420074247281,59.495733589451156,55.22911667184143,51.27997204087232,45.37185438655686,36.354675597384784,28.0110932980728,21.996946636568197,14.00292755910904,3.227236965561629,-7.2223880806000595,-17.409022582201015,-28.47692842714588,-40.023678356337186,-51.1180476189228,-61.66711083681004,-72.20900100315232,-83.88910589455992,-94.10921502354583,-92.96933354734178,-76.13777340937052,-51.845499134924424,-28.624928250866443,-10.552463575560198,3.5064219551625007,18.814171499016165,34.8668607334913,44.85021994211863,49.56212019335478,54.85745983293797,59.28576162235723,59.636758815357226,58.805894398992635,59.70021327704352,59.28795023038641,54.41618109325865,47.81276809752177,43.55124009966703,39.16180233466386,56.0,102.0,64.0
-130.90766135164176,-155.10550992388048,-183.28650969913113,-200.00672742301012,-183.7469568384727,-139.4620611856376,-93.54088733695811,-56.73308784475587,-22.66384049125606,13.254962774404556,49.9313701621488,82.7855271552102,105.6325525951162,116.9633871854236,123.33045409588273,129.11730835517952,129.34100458298815,121.98332317151993,113.11016744156825,107.48161753314655,100.97588003007917,88.06838310702483,71.93119537491708,58.29796818788859,45.749028516539816,30.133014287202244,12.581097578076402,-5.220981560834621,-23.460622631940307,-39.80372899948671,-53.61223386106699,-69.20841433153052,-90.10504397788937,-115.57369063122346,-142.2508187785962,-165.5883841927291,-175.30291829826618,-158.274960495448,-120.29696990442986,-82.82504376977045,-53.2231986403052,-25.056563767482107,3.7234085703972357,32.16799038651564,60.080249467062956,82.16139392026923,90.84648608732572,89.01046920513699,87.21196441622958,90.14408130663001,93.162246973743,90.39020604841441,83.90903890193576,79.09940345835255,73.70719507573021,62.107800031557254,45.41973441387387,29.655584749041747,17.980731285204268,7.388615410703589,-7.642995399343114,-26.905604687657615,-44.449834676070864,-57.84778127597173,-72.4673240827363,-92.99968469538096,-116.54941998752425,-131.71946630736883,-125.78283195760135,-99.84601630405263,-67.23428993144101,-37.948325087544596,-15.029840036213672,4.81539398331467,25.374600492488213,43.683205096975136,54.273448058087794,59.14987651378251,62.835451891517984,65.0924948716291,66.00010065627262,68.8068842341108,73.45644863948446,73.6231312901686,65.45529447848259,54.48465529928208,46.55538594661886,41.467416259905825,35.15720340275299,24.436348924664458,11.118674044929143,-2.5025991845637328,-15.757134076918444,-29.4751107257226,-45.51843455920061,-62.025667973584504,-76.9488514410915,-94.44014473721121,-116.48050578036607,-132.8926499539431,-129.31162648235252,-104.3623905379292,-71.04376405154646,-42.49855454319536,-22.80144176691233,-6.771581688431733,11.51275068412748,31.30330863733531,49.26203021763499,62.052118561982155,67.83686736933814,69.66882165263335,71.40722785961749,73.06844308807172,72.8803252142305,69.8637827820915,65.55796746623045,61.74228507120327,56.84298313907841,50.21898726767488,42.85370989556596,34.407750756671554,25.416264358044714,16.9134838218085,7.739051856991517,-3.3635208093916718,-13.959324992768877,-25.336396362609275,-42.244942554415786,-61.222098128385255,-74.63202232297346,-83.16420474033794,-95.28923715407772,-110.16349033517629,-114.87711018858168,-100.32423382268766,-72.13836162118955,-43.97813167243697,-23.853037388117183,-7.940875570613933,10.84772924701666,31.090842255439437,46.61217426357868,54.55898407264907,55.95661701927787,54.834685137796725,56.3514318973508,60.58388079723717,63.34099078970397,62.17660874276899,58.23437344512226,54.10406295670345,49.91156733095142,42.992355949214414,33.667166937512405,26.164725202605414,20.077697689288556,11.027021787832442,0.10060520347931942,-10.11706144486614,-20.50774943699166,-31.810672655743197,-43.29866212895914,-54.20889090220831,-64.66795188089193,-75.43698794244528,-87.33645178913994,-95.40586685630532,-89.51436841446292,-69.41197755781273,-44.776642683837025,-22.79785704432339,-6.297411585914867,7.624331599618314,23.66402627717102,38.58033565213253,46.439915387699905,50.93251108611701,56.44733141880571,59.79535169813031,59.2888257065833,58.92496697602126,59.931996002230704,58.33766603278937,52.44225196787271,46.29915902680418,42.5688998930331,37.04037986884981,26.238785920371978,14.47899592093604,5.692453441712796,-3.8503390750919393,-15.318058336234976,-24.854341087195436,-33.53048475666602,-47.13642195901537,-63.688474833107634,-76.23624285198918,-86.78192729462064,-102.79732517570716,-117.27600005236638,-111.16363561274432,-83.39957211793569,-55.65032267544247,-39.447871845777456,-25.47238094887579,-4.109637685446202,20.652054629733613,40.202878845594334,52.80229847906787,60.738459145717236,65.08706356129805,68.48539210785907,73.89649741897858,78.78513156125034,78.30156644117095,73.57841722453512,70.55499548097265,68.63796185034589,60.86569564445138,47.651322289668435,38.6140704489709,36.496393439345574,31.788583776000063,18.71394598365086,3.2867293632122587,-4.974842999371517,-6.714515746747758,-12.611880010391692,-28.121008207788556,-47.02990355313603,-60.441986820910635,-69.10165855991059,-80.58474898349303,-98.85727081938082,-122.80037901869309,-143.85367184480216,-144.41171740911582,-116.14394912170553,-77.70767340688788,-50.15991428931808,-31.327780396831486,-11.660998951164753,10.557561685667723,35.479853369535434,59.98444644258749,76.22655407605062,82.0899599432872,83.45542875398607,84.27789883394254,56.0,102.0,64.0
-48.6155392569372,-61.634567893472884,-77.75302714498265,-99.85037026072966,-122.45618177383301,-132.49060086365878,-119.83504333482179,-90.52053274246843,-58.174887325678554,-30.7126538485162,-9.223443267422969,10.660442123635244,31.19904089188372,47.62038075487719,56.00342954782335,60.269227720092466,63.701667790283715,65.38185810681105,66.47910043170155,70.16317774258675,74.29119863739282,72.0292166464159,62.20578217136969,51.79109020623087,44.920101307728046,39.992680928463116,32.51351436782145,20.712346785578465,7.166344902566017,-6.374209236784006,-19.576980170074002,-33.85269234444691,-50.42304367467312,-66.42086646150544,-81.48257451791864,-100.54222206321322,-122.51924372831523,-134.32593258847479,-123.8926139365065,-94.89329640833743,-61.92562787487471,-35.98844796219057,-18.15003220634126,-1.8100354815460915,17.22937616669798,36.81738590178231,53.64222676619666,64.39839413064105,68.55208816713716,70.10424455802008,71.97204721272587,73.27693690025171,72.28901321942968,68.62265334058014,64.42345890192222,60.53441488944844,55.04824413630412,48.166623786190634,40.53622014587304,31.80265276555112,22.905642846398916,14.442960677151781,4.672311419349984,-6.580049853684077,-16.907904591708657,-29.599002683575502,-47.89710759830621,-65.87290087145706,-77.25582702923438,-86.01312929163393,-99.76371153848237,-113.18741312175868,-112.70184464498195,-92.99354471045942,-63.44675330602221,-37.28729857863833,-19.22178410594527,-2.932158378365796,16.81607050068966,36.29163338637366,49.68446248324356,55.52917843277281,55.62849557045848,54.86543746020476,57.45454278379057,61.7131489565314,63.41545910207401,61.205275487845626,56.97625965291264,52.99904763738656,48.292779172705714,40.37320029884408,31.172455188443468,24.47671824643851,17.85340397639231,7.887472953184066,-2.933069675021491,-13.033559190446312,-23.69285143956998,-35.16053940753283,-46.51669609984601,-57.260862122705426,-67.68687857160106,-78.79929334895722,-90.51986458684533,-95.45387657765176,-84.79400070584671,-62.343556999552234,-37.950190583993624,-17.470880645366734,-2.2791276128632925,11.987079792512452,28.450874780914184,41.61092877283802,47.74788769418329,52.45966359354742,57.8387611748996,59.930011062605864,58.98074445577993,59.20176875307549,59.92816306203058,56.97887407741882,50.45769495719086,45.04748085085396,41.43019723636969,34.412903381086686,22.621742755917655,11.704205713355009,3.211091005226897,-7.1085372847727255,-18.405104360165186,-27.171126062813084,-36.824919676705456,-51.95925254924345,-67.88836021682832,-79.09603795410693,-90.74433168277912,-107.96930576359954,-118.26834441266325,-104.60826128100017,-74.39973618224253,-49.92787897335342,-35.805561324742776,-20.14427908162812,3.1419687266989706,27.066543743831474,44.459519176759095,55.50512977569281,62.31034412355368,65.97911006747599,69.83006942508389,75.6114688459413,79.31098284569974,77.11546126597537,72.34375923473596,70.18519347031804,67.21796810534583,57.26208701691158,44.19649305786093,37.583205545407715,35.87524153736767,28.80265144076656,14.023713893955446,-0.09764494742421892,-5.742950339027976,-7.53342174205312,-16.182433915511865,-33.7114312059465,-51.67364275217362,-63.11562736644805,-71.8406755270308,-85.12846318619492,-105.3793772170394,-129.83918610009943,-146.9311003403435,-138.85615593871236,-104.82352297421063,-68.29054137237307,-44.35110442871262,-25.933819679597462,-5.488659731293223,17.48679347187702,42.92231810644857,65.83146986047656,78.79170502116257,82.68000672362612,83.6754365157413,84.60767970902377,86.35973610839359,88.81241402285254,89.36430531235466,84.36782478094877,75.6932439528315,69.57541028456612,66.07606127338929,59.7357783254404,48.658734571194984,35.167360385661,22.305716873634996,11.07973780307093,-0.03659289694111691,-13.799438771116778,-29.269743671998395,-42.108191909600414,-54.079130018098105,-69.97977757257652,-86.61673099105144,-98.77397985065313,-112.81863750099545,-137.1645167787303,-158.17548265470296,-148.36714835513206,-109.26377431462653,-70.9727875483016,-46.394775795345915,-26.114556631378417,-3.6404053704771946,20.657487820099952,44.920746131604304,65.00207659922704,76.60015904638651,81.85743228472268,86.4051992605133,91.05784773340419,93.35252840349746,93.47627492517698,92.01549905396917,87.4573823309428,79.78208660566521,70.89510564652498,61.37172310653578,51.35681296008997,39.722675129907444,26.544635702497565,13.819959248104583,0.3109659482920911,-16.410080859989478,-33.416105762848105,-47.2155448619949,-61.2964732359097,-77.65390669952339,-92.35871013097996,-106.62881581280806,-127.7347014460015,-151.67748323873488,-156.28941846503218,-127.29404872207472,-81.0243541630678,-41.867091221458864,-16.251735480394668,56.0,102.0,64.0
1.4467480410232152,-9.661260167396126,-20.049150401056902,-34.41287396698448,-53.52293946032406,-69.8931787620334,-79.61889898885634,-89.39258950509495,-104.27052707318562,-114.99013789195651,-108.80540126785895,-84.82163898146952,-55.097341506689695,-31.3612897818935,-14.725851383513712,2.4402265446136036,22.772451406312534,40.94520064403572,52.113312395851246,55.99296719314265,55.230221486294475,55.22536883180288,58.71413599244694,62.603924141416584,63.14118700822872,60.060674543169846,55.76590098160559,51.84850599213819,46.367809320608245,37.62645565040143,28.944073896403484,22.805293837135714,15.290558295131692,4.692952716038975,-5.881938453894942,-16.00996182475633,-26.953394740561812,-38.49705554020717,-49.67794561738826,-60.28168167614896,-70.76130661223252,-82.27269914160459,-93.16016610230174,-94.0892323233949,-79.05141563005671,-55.152644711655725,-31.470855885062587,-12.633743367133006,1.666556102009301,16.61123318437861,32.94996814393348,43.96496032766266,48.976719718787315,54.09540295133113,58.916225998364425,59.77299775261062,58.81686309913957,59.54882497482876,59.58262826622785,55.28170876433991,48.59845845603089,43.998328110688334,39.975081464624694,31.32411144447248,19.115120005669237,9.187475920142838,0.5251728238594975,-10.47456211978561,-21.216404498320397,-29.547516964144673,-40.66045815458009,-56.857644321459006,-71.60056729137233,-81.98106921819621,-95.32070165610055,-112.6152382490586,-117.05763658638027,-96.5476441383185,-66.03716376926639,-45.19247536667014,-31.981487917749757,-14.071800078725717,10.436951246061442,32.87614438095003,48.17689204383273,57.87038823871966,63.595281038859596,66.89555071651289,71.38518797753723,77.15286863877003,79.2858907166752,75.6933981859569,71.40334964076115,69.77315092273261,65.13163068595544,53.34469532524412,41.376530447572186,37.032868749180686,34.73776302443154,25.09347203168632,9.387693112321886,-2.672940294009725,-6.142782436516321,-8.993505527841734,-20.575552224375656,-39.32672074711406,-55.68433680888619,-65.54062689994572,-75.00424667455438,-90.27781274342686,-112.3114688542831,-136.3317056765237,-147.7855270636811,-130.9251735001082,-93.37447465319516,-60.10939100192497,-38.98268590694339,-20.307241915124127,0.8756060920161652,24.665659675197077,50.18055601647973,70.77649201068006,80.5588457248682,83.0668707995808,83.89701627445959,85.01054610336026,87.04771125346615,89.35895833807858,88.56347009445275,81.95820022944915,73.47617958248998,68.51678917342653,64.74001011643786,56.96049323305107,44.86536437407334,31.283574532088,18.92357059170906,7.974902490012122,-3.6539751858268392,-18.304369268760176,-33.34044637887272,-45.387388217652614,-58.21292267804702,-75.06110623205166,-90.56631448510589,-102.08494461440092,-118.83029712178792,-144.8748818908963,-159.30380709411455,-138.90213820636112,-96.91319821160441,-62.700189953134576,-40.57625128511453,-19.890988640179184,3.2575475631674777,27.792970704054945,51.40548302982438,69.28028063536651,78.5030382052966,83.07759436475234,87.85470660881288,92.02133661415063,93.54293718478196,93.26040678056424,91.08439454146946,85.47380872008247,77.28463666563803,68.20140120478358,58.544528315692176,48.22798260144742,35.97580775017874,22.78839383717777,10.14893230557825,-4.1923777347988045,-21.549772206549758,-37.697144908276115,-51.02048264482343,-65.915550723051,-82.22156810014333,-96.20396995005305,-111.82363522241818,-135.0871841195792,-156.12820940660947,-151.18081722700336,-114.4500585397191,-68.27150080605556,-33.31866519782825,-10.184132929847785,11.373546448503395,35.45910542434206,58.45737428992071,76.03538522332384,84.63303367262256,85.99749017214278,87.6943808210083,91.67979423422206,93.86675940509186,93.52484903084871,90.69852937596296,84.39793874681993,76.83151353093102,70.45421822941532,63.19025078865775,51.91287939522019,37.40399063608589,22.046167916731015,6.713223766414066,-7.8331935796458465,-21.801607363000837,-36.77542760688362,-56.849380704104384,-83.18285865478411,-107.56971242523544,-123.71472296304322,-139.18645098598208,-164.5347668384729,-190.09343547380166,-185.7294452134231,-141.8589834550328,-90.27986163729086,-55.30327130240005,-27.8335051696005,1.9867763819459976,30.649675238822248,56.5042734002752,80.32609933116645,97.04786106478453,105.10473415113343,109.19496133954074,111.34860226320764,112.67405140442519,115.37130887557026,115.67646041154856,109.51698624230832,101.58713216741137,92.933033271391,81.11404904747165,68.84920278415477,58.29072334611643,45.767690662122114,28.94106348550187,11.615935034522007,-3.5746298552976166,-19.337053193717576,-37.751021661816864,-56.868741196505,-75.88474354700118,-94.93884601268805,-111.92730606858015,-127.9203333446177,56.0,102.0,64.0
38.08119004411428,27.89104572950466,15.86709933263206,6.795959256832084,-2.413252483506862,-13.819760479422735,-23.754814185795894,-32.18096603270767,-44.99926357770094,-61.6057198068617,-74.85522399314611,-85.15655340722228,-100.38039464140066,-116.16392650350717,-113.534190550682,-87.6199747953177,-58.666920161286605,-41.1641670383003,-27.677539778124956,-7.362858854649437,17.518702618796723,38.03841587060643,51.435107568694654,59.908112461161565,64.65249653130886,67.93972185129834,73.08945848523459,78.36995071095484,78.72247922115525,74.22256541688814,70.76658954472926,69.09729138912961,62.35745498386509,49.39708886539779,39.3114545100807,36.67943907141536,32.899544108976116,20.816819702070596,5.086359377775981,-4.421569287367373,-6.48671399596662,-11.265627101500993,-25.63013957479909,-44.698481665955725,-59.06801130690534,-67.94231180917318,-78.69159204195842,-96.0202836270398,-119.48117089036951,-141.8106070862004,-146.09194337963316,-121.11680551831299,-82.43998230709029,-53.077416048659806,-33.75532150339896,-14.440056806444792,7.44844343136913,32.041944576489485,57.02894973654316,74.73433120489204,81.71198221499587,83.34598820903862,84.14682919224698,85.49556930540423,87.78203319916727,89.6465272721924,87.22253115197597,79.3748332617266,71.62221995675945,67.57768934499974,63.02388210884131,53.80855653569091,40.946333590554296,27.52325724133548,15.671625755001351,4.823631910351206,-7.568261162392828,-22.852931811826,-37.09506434979024,-48.733045907553404,-62.76344472739748,-80.01070322115176,-94.07783564878919,-105.85670685718463,-125.82578612294662,-151.65747369632876,-157.2175912783936,-127.50695801920625,-85.44182141636294,-55.53575370723031,-34.803560777849455,-13.43431401514473,10.272652023210908,34.87494134313209,57.40153370954459,72.77809986095542,80.01142691842736,84.36519020911656,89.2598703531776,92.73389107207367,93.59482767350966,92.90150579713746,89.84299099104112,83.26914465163327,74.7280072153793,65.45444860365684,55.68133387745998,44.91378172457555,32.1441531807864,19.113104732633058,6.332266799702264,-9.00154263750672,-26.566315087826034,-41.68312474119264,-55.00321179245685,-70.68846428898158,-86.52483930489218,-100.15924127650162,-117.77519726033758,-142.3822906263539,-158.27044477379215,-143.19016499224747,-100.84807409641688,-56.61071123582165,-25.834386647888024,-4.189697490627277,18.164116470780968,42.42068637041529,64.27584057604837,79.5275085497982,85.46848757105037,86.16715087106898,88.77784792773681,92.62192938667661,93.97925142482217,93.02661676361978,89.21627103199192,82.1684969110805,74.87508141374617,68.62158883599135,60.398670746828024,47.925118039752995,32.9967567292507,17.580622353750137,2.4105342500019615,-11.889341759549033,-25.893819592620662,-41.844525957778245,-64.02136394053578,-90.91153782133873,-113.01371101265595,-127.64167414562476,-145.3714778250348,-173.0627600633759,-193.1778641027374,-176.26896726287853,-125.98320726116984,-78.42588315905235,-47.32871189331884,-19.454719645051714,10.617303512840682,38.29735227309722,63.73019180388647,86.13977276116856,100.08754412849933,106.51809820424468,110.00991928237192,111.69350609427363,113.31871680857061,116.03429771846159,114.46581757046157,107.17724710025787,99.32344475274678,89.82054968691793,77.41912605818963,65.69764925627717,55.095268134610166,41.2660207530342,23.764484984225863,7.050801812678811,-7.894944739436891,-24.42311493713883,-43.3063864062823,-62.32795512362878,-81.463222991979,-100.11958994863727,-116.47187145560027,-133.0067517808907,-154.41257177857796,-180.77973991279663,-197.9678697521122,-181.30528209631666,-130.50053235455363,-77.5600936617887,-41.97414454303926,-15.457714785144848,11.057322732960342,38.6724641592494,67.5475568701243,93.0829293076464,108.42852426539216,114.65918830498778,116.57232068651508,116.7657712558895,116.6710233361977,115.9335156733049,110.90320785851108,100.04187228963283,87.95214754087526,78.60850945580555,71.69093742323687,63.67569530056124,51.74748229914261,36.304780696368525,20.498272654028312,5.363614807717582,-11.25975380200691,-31.12043068743482,-51.36895088280654,-67.3607194722772,-82.4812655036821,-101.87361835426466,-121.44223191116862,-138.58907893234817,-160.39496489715893,-184.7661793357055,-187.41114200718886,-152.58921861208552,-99.86968588117175,-56.87018911854272,-26.40408893892458,2.1469189429742506,31.82832706780889,57.732167162447624,78.1658690236825,93.36067489177748,100.22447154592561,100.32076290982164,99.27905396632066,100.26356426199652,103.38034070267948,105.67905478989498,103.17194636852106,94.30779895333914,80.4907744208742,67.46499442807884,57.78204132380685,47.38770817488146,34.45669596519395,18.93644724578977,56.0,102.0,64.0
84.447269888301,86.06737857281834,88.50536141724122,89.55910810188975,85.3699943934237,76.81457225028299,70.14478145291028,66.59181829852545,60.87469560687018,50.342734742447796,36.98535949003939,23.915547204214846,12.515199580300976,1.5431940394962453,-11.77619227592445,-27.294818533216304,-40.57136664766491,-52.31230490882282,-67.65319122699277,-84.63358326867305,-97.30930067821237,-110.39970509470261,-133.51951204521285,-156.67363258614415,-151.86219921364986,-115.0851731650547,-75.22428962987244,-49.16192990039976,-28.904092551332575,-6.771531686736356,17.369403724136955,41.80800177528533,62.769444204168686,75.54372198602829,81.29675920134878,85.74468399146268,90.53474475853538,93.20613427018702,93.5372970144945,92.35009343455323,88.2807687350837,80.90775826641332,72.11756345916454,62.6667788170232,52.747277586241104,41.40254110481939,28.301829152013983,15.489789151970083,2.278942985294026,-14.04218046265777,-31.32887754834792,-45.484119626947695,-59.24689411837873,-75.4793464279966,-90.56335248706736,-104.4636426911326,-124.45558332753879,-149.0238328102296,-157.6135712102379,-132.75765005935227,-87.18066949268741,-46.22018761827875,-19.149116260446338,1.9419803169931291,25.146883289562638,49.173775126439956,69.54346775775855,82.18883627969635,85.83382131720882,86.56890992794844,89.98585835807214,93.31281204470385,93.91503086978351,92.2917830643442,87.42957510039548,79.93395633220399,73.04060407518773,66.61973108313248,57.21531676436094,43.73619298995951,28.56013714888813,13.131018951303158,-1.8074070900566297,-15.915651708271715,-30.12181702112353,-47.47486657897317,-71.66076664049126,-98.18658747442676,-117.72478139812848,-131.8450090714054,-152.57542208222688,-181.07829068723686,-192.91260325435812,-163.73971281270377,-110.55130659768756,-68.15880041987673,-39.527077749106844,-10.811667169680149,18.986667268185514,45.768117333445446,70.7565015580637,91.18375997921878,102.4731537969784,107.72421283915341,110.66317801633532,112.02529705585663,114.12133078410251,116.30704059472534,112.70760123553671,104.86455589479012,96.91616142717066,86.41980571292679,73.80820898719232,62.68333485589959,51.59634650855409,36.413860474355836,18.68645223698453,2.670000315419314,-12.371954723637016,-29.73329990646728,-48.84707700510184,-67.80241408600763,-87.02080861912364,-105.06755711246096,-121.01720179915002,-138.52381747390322,-161.79567333680095,-187.78028921955885,-197.45838218643414,-169.03074678930176,-113.92675171633849,-65.52678767529949,-33.98675796445993,-7.91531835916844,18.90899160865292,46.9394351729435,75.64871619492902,98.68527642613925,110.94156678692774,115.49112509763405,116.73544156971214,116.7238822324789,116.6334728596559,115.111587718691,108.24016231532902,96.4247721359818,84.90196488935463,76.48227914920223,69.65965405420445,60.684606538917734,47.53165999381358,31.64307849691634,16.121928515023914,0.8316858104796812,-16.674036997308427,-37.194661907303164,-56.475875726047306,-71.46412808402803,-87.66594567921611,-107.81034281720952,-126.45807662672948,-144.07108061636677,-167.93281518930024,-189.02385298992542,-180.97396906860467,-137.69785186727614,-85.7929027780914,-47.239318797659266,-18.325127605289943,10.766945097626113,39.909299584340076,64.12492132335836,83.2083586185814,96.287996857923,100.69517008086366,99.93043588757443,99.29785742391529,101.01658040753638,104.32433223814837,105.57109204961455,101.27397903631592,90.6364879015548,76.36997507348954,64.44472784424192,55.03468399642917,43.88046783177339,30.30902956575752,13.706607347799277,-6.561296228177665,-25.477394516036227,-38.314186273998,-49.267967663592216,-64.66797184171934,-83.62976326648426,-104.06785083633042,-127.2967088251414,-152.54034694164704,-170.02735167241698,-161.6492510739074,-122.8627499246639,-74.99893950528799,-37.55057692688805,-10.701077794268585,13.919641832665858,40.156407998965626,63.67353505075185,78.60034050551963,83.6876156151171,84.48549778380908,86.59139116085312,89.02620168794975,90.05466491877155,90.08856019824262,87.93818466081055,83.05108873719443,77.31840216843565,70.30379549300443,59.91953071975414,46.65682427652114,32.067023808826804,15.550117195427154,-0.47473052602687377,-12.053492152789499,-23.21090499943516,-40.34866463671814,-60.97350562574919,-79.5732526975304,-95.13326706125231,-108.5941036128457,-125.34936922007557,-150.29141335283367,-172.16999189852044,-167.47836973273914,-129.7094636847029,-81.40682962340836,-44.091235211996334,-17.01002414186899,8.926376829703928,36.546386306034684,63.12187695910002,84.54665320842389,96.69408611747386,100.74824020640582,102.3006380596768,104.59551946162713,106.92395088305256,107.85779042851361,105.80731537954576,100.17066793784383,92.48993332181735,56.0,102.0,64.0
-12.956800150129897,8.33084811829413,32.209724912568774,55.61736192509306,74.15632944168777,84.0347959134284,85.95769275743943,87.2716850577785,91.17489945151311,93.7463056580141,93.68760810413379,91.27339390875387,85.3952371328161,77.78107541632617,71.27100596558094,64.34974122960203,53.661489000550944,39.42024580120307,24.104514084379414,8.723676294511248,-5.946824104981009,-19.93839324847627,-34.59465232721216,-53.742060704689834,-79.54327540403203,-104.78906616584536,-121.89561842363763,-136.6721301891626,-160.6333603248312,-187.7319610737711,-188.8800591994497,-149.05596076424055,-96.3145817629605,-59.15293504746884,-31.58874564048262,-2.046473837263929,27.03964900427554,53.135063034948345,77.42423400646427,95.38907427628406,104.36065436520012,108.76629631462554,111.16216716620676,112.43613332050897,114.99075448622817,116.02190665429073,110.57291299248638,102.61454842519484,94.2603672066337,82.81411719914918,70.36707834140019,59.6963311867305,47.70492388552339,31.326741522094064,13.795462979584554,-1.6079549520944292,-17.07905817897799,-35.19996725934434,-54.34639416923418,-73.322499380335,-92.47836287333338,-109.80108123418809,-125.68847813717805,-144.56392015583933,-169.52301375568823,-193.479233244095,-193.49486608803355,-154.34722882977474,-98.12409443911326,-55.06283168222724,-26.384034339145856,-0.2725565942107079,26.850456086681834,55.31945292649161,83.2680855532568,103.31704418532966,112.8088170540722,116.06977563860977,116.79255026579094,116.69249224019356,116.5031361090039,113.80791422672941,105.12291626984201,92.85722062384679,82.13905222259764,74.50786435518093,67.43349380503163,57.321632674383686,43.069920394578226,27.043098193597807,11.778414891726515,-3.8918861191048206,-22.384496980075625,-43.163556835781456,-61.14195863662158,-75.69483862827889,-93.25734869217601,-113.57016913744764,-131.31187275059537,-150.2012831780985,-175.39943654069663,-190.69167267172315,-171.32638709935804,-122.13919852930312,-73.04266985033402,-38.44019773109294,-10.14739003321633,19.429574309364835,47.524947850820794,70.10139618922271,87.7766221804628,98.42995825001442,100.72766794883076,99.57580627953229,99.52923088020816,101.92529020640653,105.09590420024017,104.9772392455383,98.83052803015906,86.62391426149418,72.49738262292055,61.671791207714996,52.09995966579792,40.17794112772903,25.918602813828887,8.117736851294273,-12.487449228206087,-29.809638160820956,-41.30103390928236,-53.16345274043356,-69.94265240359998,-89.36195066691218,-110.42642796344708,-134.58700298601912,-159.1364574108132,-170.98046094785812,-152.9943047868035,-108.75503664969496,-62.7813773072168,-29.04313108283534,-3.6975971425539185,21.40535358623244,47.53215321360385,69.04629579060477,80.95402493950098,84.00670313304805,84.89366745745205,87.39547243321253,89.45907429004147,90.16984903614896,89.78290458101901,86.73282370097812,81.42614425289105,75.528753982187,67.69535301482054,56.286459299018134,42.57536466060305,27.505265403282284,10.622539718666234,-4.284446013081038,-14.945465437011125,-27.466880579951514,-46.25413214067842,-66.6748533291993,-84.36557783108846,-99.12314151803727,-112.72941630182287,-131.80844710400325,-157.93278387084393,-174.43032714762873,-159.38256409551693,-115.51525711126298,-69.1423080706768,-35.64747775576641,-9.686447693049084,16.80610460076655,44.491156386256435,70.05957242486389,89.09574245394558,98.4752004530509,101.2165133868482,102.87386262977923,105.32910807924353,107.40562925675576,107.63300907279057,104.52076327255047,98.05131457278597,90.18421456819942,81.45851022995538,69.58848765502823,54.915830906728345,39.47555790809053,23.838854225261283,9.233671531669854,-4.356213053981324,-19.597835522527397,-37.28819226278256,-54.849880875433726,-71.52611986688834,-89.24976570655815,-108.16337808691416,-126.05056613495852,-144.6681180567758,-167.29738543634127,-183.54070116424927,-172.71825612887713,-131.8285996793601,-83.88297717597676,-45.63862132815033,-15.093551468569782,11.280264048821666,36.89704239706536,64.42037747066288,88.06241457838188,100.42749222508564,104.56108088448978,106.9739989431532,109.60938837024274,110.71862007574819,107.50177308307181,102.12396081349897,97.38620967801592,90.46795907572252,79.17312550574012,66.14655526929506,51.91595985427357,36.16982717147954,21.61842893226053,8.516710410039915,-4.873563583306338,-18.0760235826739,-31.33116827399795,-48.19250375906414,-68.6995553620801,-88.18034259675838,-102.98822549595224,-116.79363759250327,-139.3749122462491,-165.7152198737891,-168.2161326267086,-133.8457629030347,-86.487908339001,-50.124358815813615,-22.031186605370763,5.513333273920604,30.90285543233498,54.68589140209246,76.18905186681758,87.5787115085632,87.5614469282313,56.0,102.0,64.0
-130.6149146050246,-151.1748776177868,-177.29721531190714,-197.15352363366333,-185.94402702224085,-138.17943499780313,-83.67508680455194,-45.879447622552966,-18.9080420252998,7.46350467315262,34.90968571148143,63.71544106424074,90.18233334603346,107.01406576132547,114.16844836382337,116.45148955911199,116.78239743655692,116.67720140129289,116.18024365033452,111.95094879749793,101.68866358046705,89.44826136445994,79.66201827206064,72.5874987349968,64.93539757434519,53.58728047874531,38.45574674143881,22.540861142489607,7.4067736283771595,-8.867684901969591,-28.329816280218864,-48.86629963942856,-65.45058094759246,-80.24286396817878,-99.12524923477623,-119.0339959349701,-136.22786253265892,-157.03754566697367,-182.12604012580871,-189.2275548989411,-158.98512636833567,-106.73304853672404,-61.67675206550075,-30.144142773296906,-1.7784523675065091,27.97495320519486,54.62782511789729,75.70566091988812,91.75629482189203,99.81547875706532,100.48442572357919,99.33550859053955,99.98205719507546,102.9189082171115,105.58074925076455,103.86452455486277,95.85148521903116,82.43228123553246,68.96865936104376,59.01101948678141,48.93005450220321,36.30214742053905,21.22115533038746,2.244450658000089,-18.114272695822613,-33.577999434222214,-44.33711300239696,-57.530391697289886,-75.41764983072107,-95.20928833949978,-117.0703945640571,-141.9838285346971,-164.72536720430378,-169.28650999349944,-141.9684023178359,-94.61074600287873,-51.71212390889533,-21.261953314459426,3.3405971164278614,29.02935138215667,54.51297856976332,73.5799343572672,82.51649251929797,84.17177221624925,85.48715004262102,88.14420845326926,89.7677739773387,90.21705372500156,89.23404570549752,85.32644466801455,79.78116340355203,73.57940547053738,64.76174053702991,52.46413772597897,38.403225605001104,22.746376960540868,5.868355726532249,-7.664514891952941,-18.006457391054496,-32.3263978815995,-52.28410375385766,-72.11276185088698,-88.91455479252122,-102.96648318536943,-117.34859053956369,-138.9999737322472,-164.82581658256024,-173.86794339000275,-148.6865968399016,-101.21778153991707,-58.112968133567854,-27.836615737774817,-2.257730485070065,24.80742120226994,52.26411808123363,76.45166767736946,92.787109159193,99.68401879378072,101.62572079939304,103.53551485983058,106.02817745487542,107.73648677178639,107.11900981033102,102.93672748797408,95.82452359608388,87.83647376260899,78.42603878778559,65.52352343388968,50.49344608239456,34.94794327469505,19.448636040676405,5.296947251134681,-8.472937989038053,-24.541462854779226,-42.48632970655329,-59.69237595394494,-76.45953297612456,-94.68704273784753,-113.49041700119966,-131.11499651241547,-150.89211881540936,-173.55452785013628,-183.92695087837328,-163.27706643392824,-117.53211083965829,-71.70476795972688,-36.261134565587795,-7.1307119034420925,18.53803658145053,44.732047591162264,72.08985408898594,92.8810439077871,102.11197790037558,105.27129120960606,107.7189774254671,110.25197020246183,110.249634992672,105.96782029366811,100.71183638330567,95.81702518513751,87.58180543600038,75.4740778475609,62.23004547257309,47.429693134025165,31.740143352438142,17.777515918976906,4.703163691073776,-8.764808127697997,-21.775057566299264,-35.69759461406627,-53.90912415633257,-74.66279019905232,-92.97174432554807,-106.65343765294124,-122.1243232518887,-147.56421605239828,-170.1708839590411,-161.57511918691517,-119.98868579943372,-74.52793167364639,-41.68252528608015,-14.049574111733753,13.167774174912374,37.811641518032786,61.41251314033906,80.84350498745043,88.42992227218471,86.76196043119099,86.16568084785482,89.96749683456432,93.02012400137257,90.88954714365107,84.7141430057173,78.40590139706775,71.6887345973861,61.22236213189835,47.91369950966211,35.505803632470524,23.779239439092365,8.721847510506382,-9.409679484914873,-26.92471093121266,-42.76790347748988,-58.095575501139635,-73.39189850155671,-89.1163962438072,-109.30083167726983,-135.6016689524398,-155.3672957045284,-147.56550824899895,-109.73267218428265,-65.13486499389559,-33.50718319543307,-12.290331704308173,10.392545533092116,37.17094336693481,61.60760823316886,78.40205056459669,86.07391370235788,88.68539799249463,88.7732899994203,85.55260670863943,83.74286877084315,86.49762270033676,87.50503638962039,80.40030687154375,69.1819328232583,60.4151564461309,51.725206293428734,37.582045220870235,20.538263051795685,6.006062638378912,-8.379578842084022,-26.085069679936577,-46.574869510086714,-67.44537267617156,-86.33654037738296,-102.36478526076876,-119.25373920452377,-141.7250098488388,-163.3211982281167,-164.05588333585305,-135.09977964886673,-94.97249434571027,-60.81239825952268,-31.257070026007522,-2.2462347770630577,26.42534295728151,54.10294033564389,76.90618544948768,56.0,102.0,64.0
16.164507497571407,-3.780104030639473,-23.28128212595619,-36.89155567949389,-47.62466789657609,-62.33114578899923,-81.01729532326348,-101.22300133800483,-124.00724035772649,-149.28513753887984,-168.8015098453724,-164.724342645415,-129.16718422956885,-80.98964904292045,-41.777781947488336,-13.967015326738492,10.534522084907907,36.67074900176362,60.93783288958524,77.22324246181634,83.4319255438462,84.35775396033144,86.22408625075606,88.7796456374892,89.98094202340991,90.1627950791102,88.41041441106411,83.78726601770458,78.10863060275392,71.40144169752396,61.513360423555184,48.51129495736874,34.10451157866053,17.836990737949368,1.4328236838775308,-10.713462426987354,-21.449198854962674,-37.71973608305823,-58.26775609801968,-77.27946907736248,-93.22435392620757,-106.7892712874923,-122.64414738581702,-146.6866833234396,-170.30405650854564,-170.21487144834666,-136.01237245936184,-87.44778234573727,-48.27285596744315,-20.388480504791097,5.3518351565211155,32.849259983457436,59.77512458663277,82.16914196240324,95.64104928614496,100.47783533088509,102.0690708706657,104.25514232986173,106.6620675309819,107.87272573229544,106.29456416722631,101.09315105266762,93.54708954311049,85.38688200927696,75.066074873849,61.285261391847634,46.039103856586806,30.41016279519774,15.191900897074417,1.4073550590744992,-12.807425129858277,-29.662289122749616,-47.594922689890964,-64.48514698361383,-81.53932049876401,-100.18464500336431,-118.67153493617704,-136.36379540898503,-157.4888466587655,-178.8295242240788,-181.52909837391033,-151.58028406045952,-103.37007164695777,-60.50211224204678,-27.369507396423185,0.5160252373975597,25.861897986514986,52.736765972125596,79.19300180382551,96.64017007254931,103.30669949930267,105.95160525932971,108.49593818590137,110.6814382394944,109.37455282525428,104.37010833731817,99.3778545231868,93.93710875448659,84.34196348863456,71.71769365574939,58.17075019288421,42.84664073225111,27.49077750260435,14.011395051198813,0.8344149175461208,-12.60036961868273,-25.52350174010342,-40.471141618692286,-59.85811252678096,-80.40687770917035,-97.31194926279001,-110.43238582824301,-128.448990077237,-155.66694055496782,-171.80738544719372,-151.9224130244814,-105.9342040700156,-63.81749306419177,-33.624698883424955,-6.03979988715401,20.55007617027112,44.678560513388035,67.83962072849525,84.42064807725062,88.44637055776974,86.11249409143625,86.95300042607566,91.20805563759006,92.99884770701951,89.33661768838381,82.79802909118165,76.66398109846993,69.12939021243504,57.49293426743461,44.12582243477343,32.215951934665426,19.896762084611506,3.624562270677858,-14.643736337499114,-31.645199490225167,-47.18925224092658,-62.542205303986385,-77.78078843607358,-94.26321091245629,-116.48602866646351,-142.9586806775378,-156.63511059395057,-139.015762294336,-96.29673362145934,-54.37864711761142,-26.852397630857194,-6.274664977758798,17.931735981641893,44.76970228310589,67.40284422553519,81.46610780899867,87.11447847078396,89.02623568592323,88.10601757554232,84.57771571060702,84.19412952577102,87.3869004926744,86.31356784777805,77.19956301128533,66.30350988694778,58.21087712820892,48.27891005950807,32.6308053039148,16.035495821403956,2.0651789979055994,-13.117736085625488,-31.809196033537965,-52.68049593505626,-73.1979979019048,-91.20196190925553,-106.87641729637039,-125.13640811218026,-148.79090454753606,-166.5844566239364,-158.32794743594872,-123.5319833627847,-84.28922045398387,-52.073634742986094,-22.864680081456235,6.084597413158195,34.60643880034258,61.461379807349836,81.78592244985781,91.93843531480366,94.4198536930487,95.04249527231757,96.68660510134497,98.26728992743084,99.56525778921451,99.53820559833446,95.22226860658076,86.73987492977943,74.43002534304236,58.32672486105639,42.79110114120548,30.718410645348303,18.574229015497277,4.103089614254568,-11.54524810613878,-27.62519396031158,-42.68984926461327,-56.443462026709355,-70.59492608958229,-86.38563104697036,-103.52001960990667,-123.10143649869808,-143.9993417706705,-149.40174225282303,-124.85501038651671,-85.04458776831437,-52.61274299447711,-29.267563668601863,-4.722475298193427,23.137635715763707,48.399966381294824,64.46087652160648,69.43054006102325,69.65767747375786,71.88393172049356,75.80471725886912,77.37411492242478,75.74243488565196,72.92442105485492,67.49298894595918,58.416414287197604,48.391330237438666,39.56791600575051,29.530517107434935,16.462384161094896,3.729954237483026,-7.960371069930358,-22.073594722553754,-38.56992744217125,-53.65823022573433,-66.66828154682936,-82.95509957713467,-105.44816073053256,-122.52747955873916,-117.5945902985483,-90.76299351573564,-57.905925299326505,-30.302769415588713,-7.7318686890451245,10.680286439592473,25.431296469822712,56.0,102.0,64.0
91.25004896191518,82.7553537249957,71.38357824830786,56.94078639280344,41.554003732340135,25.897748187515916,11.082558047128277,-2.514180045389707,-17.395961053915627,-34.87697700989881,-52.586894006822035,-69.28942137482518,-86.78180677168865,-105.66426151707753,-123.73404807510599,-141.94930419123156,-164.23493634399827,-182.5281748352376,-176.170688110589,-138.28893556091262,-89.83005216250326,-50.16133691674593,-18.88205697038144,7.919104435734452,33.362042362217586,60.76681295754822,85.48624250504544,99.42589213826386,104.20490150564419,106.6439684216011,109.2704271441426,110.795019566458,108.15362357623485,102.81123393092344,98.03840342139897,91.66079271065578,80.84417912772568,67.9186325635614,53.932051642694844,38.25944682753361,23.43225613611927,10.257276045782255,-3.070649051224655,-16.36283505280349,-29.437066283117854,-45.66598257482052,-65.91115029858871,-85.82043185236569,-101.2616870373703,-114.63165503848569,-135.74505785437304,-162.90503159300002,-170.1464932796127,-139.9299146532678,-92.40428716923427,-54.234448700054266,-25.69184827697363,1.9044908175171678,27.68020756483547,51.53735767702796,73.7270312423498,86.84292039916694,87.91015314975785,85.80535661635739,88.0687374531026,92.21718990904408,92.48093657824646,87.53567064081382,80.96037773668748,74.81491861794044,66.18033268396876,53.61414429404047,40.50073310516892,28.909807330268894,15.632093691465101,-1.6439578065135498,-19.74782721638606,-36.2319251288073,-51.609697589023014,-66.97179571429903,-82.24057665675807,-99.92302848872018,-124.15331815068895,-149.27144195770947,-155.10006689155156,-128.21080987357496,-83.03814745235299,-44.98303042741728,-20.794292210772635,0.14284697519119818,25.726954874951232,51.991913963975286,72.45994265583724,83.78089961943402,87.88414876142335,89.1433770278062,87.15623857937231,83.91485531478388,85.01140791965403,87.88891007799397,84.36461692060892,73.86535972463126,63.74050249327147,55.8444613647376,44.27918290004139,27.61137539645223,11.822185846154632,-2.0020855333262544,-18.172232921551768,-37.72387756601577,-58.752092395925004,-78.73048351499415,-95.83144957808753,-111.6109295158728,-131.57363209956458,-155.456029001946,-167.5216357083198,-150.18911555879023,-111.70501004891734,-74.31318588359977,-43.552535355953225,-14.47507733634647,14.37759548241542,42.68386807125103,68.26458637988081,85.76930257722326,93.19981211824093,94.55612104496787,95.43025148845419,97.19921701855966,98.65071539004624,99.83728680915979,98.7981938648349,93.13624766499355,83.6230074315545,70.060128086465,53.52349654678083,39.021028747670634,27.417643243718764,14.596944937528757,-0.3387861317383492,-16.189658509146373,-32.15220164204652,-46.73524317351657,-60.41568474827079,-74.97008467910157,-91.22594143906545,-108.7910291749645,-129.42197705356895,-148.18510617472077,-145.3102986155088,-113.69854035949973,-74.3769623358736,-45.38529061544806,-22.632051635969425,3.1776640443482633,31.021466930889776,54.21881404901405,66.88938849580707,69.5862884493899,69.97047640163203,73.01146110626742,76.65001892542874,77.12291880296557,75.04132783076938,71.7384563077949,65.18307148677033,55.452851465765704,45.7423230929413,36.97002386698449,25.98300262511824,12.58384715804839,0.38762565707989594,-11.676289198387694,-26.741898389795804,-43.223677438829846,-57.486093459201705,-70.72769849493376,-89.01713867117881,-111.79209007328193,-123.79566533860779,-111.53059255871253,-81.13846798264369,-49.25246613678078,-23.383027994736153,-1.9309945646772324,15.152018198717121,29.705490713180748,45.853946605980205,60.07008150214831,67.1851743537621,68.04562065126284,66.36096375557483,65.72242302853353,66.79727506202026,67.84751566795732,67.5253226200797,63.39666885081231,54.07409416013367,43.928051580496934,37.545736307325456,32.23571341266824,23.406442155002388,10.663931326955181,-3.435161735211712,-17.571652562502372,-31.419286643097934,-43.983243194196824,-55.93107916628093,-70.23627614802697,-86.37319555165408,-101.44386765798151,-117.21738295008582,-130.3556069777993,-124.56311227823795,-95.02917382472623,-60.96882509506863,-37.10304404264665,-20.71738692631398,-4.315821182502458,16.71396882469966,40.65737922318964,60.06659209634789,68.82334994236204,69.43369735401575,70.05082346185495,73.45476552136022,76.11372854413474,75.86408186227266,73.39340182732776,70.22650763442023,65.5870796627765,58.07127672918679,49.073387718161946,41.314173990699246,35.19669384003117,28.905627814585976,20.54178840276292,9.521278693553088,-2.3917561344221485,-14.173099092246108,-27.75977452313026,-42.647703762631394,-56.68945769523596,-70.62666297859565,-85.78106737327656,-103.05484621870674,-120.9017609034698,-129.43024227412644,-115.79425936788279,56.0,102.0,64.0
87.1264289047383,85.94472930762683,89.36025193890691,92.86733999057581,91.48929220126412,85.61133837985399,79.20184112220049,72.7455731105377,62.86047608866311,49.700609700693214,37.04880666483061,25.4563086588799,10.981801089001491,-6.965978566010937,-24.696940877512905,-40.720030191241584,-56.0456893048477,-71.37142070322992,-86.88007898014905,-106.19315352481557,-132.02056114329065,-153.9332011281293,-150.6113571689312,-115.7955807035818,-70.5314807219357,-36.870893887196246,-14.97991793469634,7.048498301314191,33.58324638620264,58.70994890965487,76.71693730549933,85.4667808249317,88.46909901975226,88.96738620957748,86.05808812332485,83.68723255928579,86.0249083017386,87.79256869898197,81.76720120071747,70.609853070632,61.43098883901043,53.13249860485876,39.78480199262143,22.714737984960934,7.817564266793589,-6.300834597127884,-23.525420192248568,-43.76548735759547,-64.7331753795237,-84.00106893652186,-100.31319644646909,-116.72873413209244,-138.46041778102838,-161.17102060676817,-165.79016538544153,-140.17080354514718,-100.12857159234342,-64.95877088554528,-35.12873774466308,-6.099010606532425,22.633188971910112,50.56803414650247,74.36416659356959,88.8674722951799,93.94113460991551,94.68872003146731,95.9121202323583,97.6659972470112,99.03256283862326,99.9307993114594,97.63780983916695,90.74638713070475,80.16155275553172,65.40059205370157,48.92711116175455,35.536451813898275,23.9799050414498,10.430715102739939,-4.848388960477745,-20.85619929717887,-36.54423862209336,-50.697388886009165,-64.4665037216827,-79.50467285901193,-96.14622942946933,-114.35163169792921,-135.7313537108574,-150.4726926090198,-138.57814924095354,-101.93964483624512,-64.75243045888757,-38.70711814716672,-15.649411322899196,11.27856152889445,38.51282875451293,59.11546752902413,68.4252599985345,69.57453389674521,70.5595242125645,74.20102854700265,77.19170794981143,76.65192321789306,74.27425717102797,70.26008769662825,62.58156866352318,52.508890585288746,43.20907310742365,34.161788086214614,22.194601117125377,8.853916921938852,-2.92779220080478,-15.684357454771005,-31.54552208078318,-47.654032110197114,-61.18679437884326,-75.24899330947405,-95.57850805972892,-117.22716957042472,-122.88130604621385,-103.87490887816496,-71.47165104557428,-41.17263337234314,-16.799925792358874,3.4898007162179803,19.377834496204056,34.189933293191196,50.47536270725049,62.93046213163474,67.92275420838817,67.64658869769329,65.95577751679885,65.92973723742006,67.16440364672141,67.97377484016891,66.8537250834968,61.165754880883625,50.92023032650358,41.68195429615998,36.1472963316794,30.163042170874967,20.023486822446756,6.632074743533689,-7.529591511006514,-21.63130069658492,-35.22303234424857,-47.370347784516085,-59.731625757632024,-74.87464782683229,-90.85317586129834,-105.8095280877452,-121.85044512932718,-131.35913900255503,-117.91837894340046,-84.63441995288878,-52.90359049891425,-31.947038328701275,-16.269661386230485,1.2192407555655478,23.5919277824561,47.10948220821203,63.77266586927985,69.49105053708115,69.30834869286238,70.85808854851159,74.46088880150675,76.35540384779767,75.29506944026039,72.52755982603978,69.12989664213963,63.710812509999364,55.49411051571119,46.620906341592345,39.43979305226186,33.49089723051648,26.766405616012406,17.595130734052763,6.059711840643002,-5.749009983148261,-17.842652968219113,-32.05754344186579,-46.80791877077084,-60.65638214481453,-74.83550461698141,-90.52872231125743,-108.3931422381105,-124.98854962933778,-128.06694794740093,-107.65086639046788,-73.65199601152062,-44.21805759068862,-22.856169034567454,-4.639055997826944,13.309267615976616,31.519396432097597,46.94805684366406,56.71510554829221,61.18360385703778,61.399681245290736,59.654933642506165,59.458761611953335,60.54073989442683,60.745533796169376,59.387447105946386,57.79582667189113,56.389786499854864,52.33938524542287,43.3358329728578,32.198104509988056,23.94577567464387,17.23560434048175,6.516330804689067,-6.562284964943151,-16.619161237482984,-25.29904182563282,-37.02354662403586,-51.31724825140271,-63.62666366866205,-74.39736709634894,-88.76171233667007,-105.24099622871877,-111.34927982171024,-95.18207183052817,-62.402840754311455,-30.231405185580165,-7.95440826387402,6.498144722500773,20.1799572465993,36.18890961107674,50.52829247369988,59.35711738278454,63.928297858673325,66.08767763243983,65.38852115415887,63.183794172304935,61.988778483635784,59.689853879878335,52.988658660633284,45.05643192902208,40.69178157890268,37.77117324518523,31.567449835214138,21.00857886983666,9.192162027969394,-1.5188724469915074,-14.121488660235833,-29.57061485784737,-41.71629606119437,-50.10415197984874,-62.19507948027219,-78.78053379512556,56.0,102.0,64.0
79.64624379531361,91.14103668985786,94.32149608136955,94.90375145126936,96.44093951444309,98.08546102819123,99.40635867486388,99.74370155550044,96.07088269874684,88.07117547184247,76.32597965017708,60.569944980404465,44.6452862115227,32.2244347518369,20.33340036804479,6.123943157659209,-9.419062223776423,-25.50333503325563,-40.784139407646606,-54.62793641626019,-68.62964087899502,-84.18604794948303,-101.16106465880786,-120.26271508595632,-141.59707995932877,-150.35706888245625,-129.5943632418161,-90.2531095605816,-56.2145571877505,-32.2520718045175,-8.25967674091818,19.419182865967937,45.44084192682385,63.00954979947764,69.23928076559422,69.594735820559,71.41485709974269,75.33411688846883,77.3930849152699,76.04745409160785,73.39086077638372,68.44615510281959,59.7631588719191,49.659995938492514,40.72413825130307,31.064936807460704,18.276491532402993,5.308210398996868,-6.331258171751031,-19.99417001924955,-36.37048829066424,-51.822563213985624,-64.90226564709457,-80.37190240789249,-102.35773147898814,-121.26010898457537,-119.75058397458902,-95.07416747863229,-62.08147442358711,-33.62540587517724,-10.521585354365584,8.502968595988085,23.511620799392663,38.87516701713244,54.75407188408184,65.12122465714859,68.21732013381849,67.12832498298695,65.72072453924298,66.24841813667368,67.4897947626787,67.95302631987933,65.78674089944737,58.50076042262647,47.875685800838426,39.803750981715275,34.70171468950437,27.706862949625208,16.3593687974046,2.5516984335627844,-11.616111115577242,-25.658863531760215,-38.882609691504356,-50.76388580049635,-63.80583457094809,-79.58566722542018,-95.19498632412277,-110.34238852931942,-126.0356036979275,-130.28389591367232,-109.46193750534084,-74.49075447359078,-45.84241291696819,-27.228777466761976,-11.647191962763834,7.211420137058069,30.598617417830603,52.96213125702281,66.49449279855658,69.64380250819994,69.39170460068742,71.8652784013392,75.29880015707974,76.33392340174308,74.58356563290849,71.63276774652493,67.85873337357629,61.576684350263385,52.860163833841604,44.33428387780016,37.676528724169195,31.71804415581148,24.411984274345162,14.431224296768793,2.593773269785842,-9.109574368900288,-21.725280336947698,-36.395480418885924,-50.869150163524274,-64.65653149047742,-79.17077141160095,-95.47830188486017,-113.69979456590859,-127.94468787315071,-124.5801530783455,-98.30540482302274,-64.18206265268257,-37.432934545132326,-17.440187213156417,0.4915156616813673,18.62006834646815,36.44256687317967,50.390949027618724,58.487838420006845,61.64585140963656,60.9088192158286,59.36915746327004,59.73712750584145,60.76726336012811,60.47859058144394,58.87861940542981,57.44354942788451,55.65567256269057,50.236777270093555,40.08006245943737,29.40417793619827,22.116324354929937,14.68130670681656,2.6754592984226413,-9.853678269338397,-19.044534687851367,-28.259446430897775,-41.08485264211598,-55.219112938061286,-66.6729787156232,-78.02379181856404,-93.68560427700443,-108.78013988574463,-109.13054656468837,-86.67695205503011,-52.38269356038401,-22.696634990459597,-3.267057547919321,10.248608819501346,24.639484456354097,40.76221680096386,53.67244978745258,60.98688303888551,64.7961607244065,66.19423666101427,64.7564310932248,62.71981913863318,61.64585244485448,58.21320688767564,50.53040744328099,43.38280567348839,39.93432425641201,36.4589681758992,28.884750570486755,17.538344550045057,6.024248501612791,-4.7704534912392464,-18.492152182058284,-33.68168330738073,-44.217959494115675,-52.9791486280594,-66.71391215820603,-83.7859640312474,-100.93144792899385,-118.02689608865825,-129.40891604521082,-122.79270651474602,-95.52094418042854,-60.831195683359006,-32.70396459988559,-11.636616013645016,8.86778606375899,30.57474940095418,50.47217497676751,66.0790798695316,76.71138319488192,82.02016372097452,83.90797032037224,86.24189028970315,89.71057970828484,92.07101087798146,91.28310023205813,85.63336575524846,77.58523768294816,72.2928581741284,67.09326059264038,56.211255547903626,42.443827594724794,30.173557175946847,17.033368728881857,0.29373035985529505,-17.252617598973455,-31.757248134110228,-44.18519128534718,-57.9445593862062,-73.63896143518328,-89.50212143021662,-105.60944532681805,-124.72441461848824,-148.93433722552317,-172.6638146527514,-175.15799227668657,-143.44890099572655,-97.47609873763314,-63.382204075932556,-40.91740335910367,-17.17252019026299,11.294943017608846,38.664728208337436,61.231108142648395,78.87683820725768,91.08865896777513,96.05251131858486,95.9234583075956,97.13776650218003,102.35922023648617,107.34710045591754,106.6042928236627,99.06483911168458,89.69442534109021,82.5774874464433,75.61572547306581,65.59694451348138,54.70937263921661,45.0935191902815,56.0,102.0,64.0
27.71185593762809,43.65948468965964,58.530674300613654,66.66992816998764,68.16288942227656,66.58972777983574,65.679112988546,66.62129993883622,67.75314573112976,67.72250970674887,64.26293005864245,55.51483998116714,45.093327173414465,38.214638411620705,33.07646455978043,24.851578737860528,12.493341038139246,-1.545575899477165,-15.6945224242054,-29.623409256084113,-42.40023677215904,-54.259467427038835,-68.15297386219544,-84.25739326940239,-99.4677475332697,-115.03375778049657,-129.3024316236409,-126.90297410026339,-99.75170902920384,-65.02683034042299,-39.68400520461983,-22.75138145016036,-6.7189930479213125,13.631458666239926,37.539331562084065,58.031868477838145,68.28174421065896,69.51952311307903,69.77112722672587,72.95659773277175,75.91402225225538,76.06378366384455,73.78159602159656,70.68925454340929,66.3625174654447,59.21864434133542,50.2490327923185,42.22767677863608,35.97488474937524,29.82865064850695,21.819648167872597,11.09760248452532,-0.8310141963939242,-12.544012535618393,-25.815877493945074,-40.69439528510452,-54.86090252840656,-68.72247138536295,-83.65595232543224,-100.62555497478158,-118.74626938458748,-129.37832504334418,-119.00753116287723,-88.31111403474712,-55.46625178777289,-31.221687717963896,-12.177250277090716,5.653190027763905,23.933209881384204,41.02812270380176,53.31975912281223,59.85723134048942,61.76172026611526,60.352484744998065,59.27691557131105,60.07299404279886,60.86842632366063,60.09037528311754,58.397389522278004,57.08680266428802,54.603288825097,47.69490270705659,36.77887998405336,26.95747730904091,20.286087642881693,11.665808642506224,-1.203058401099559,-12.804197127823455,-21.472784397567796,-31.568783501623532,-45.273073050132176,-58.83910271514687,-69.69236283176163,-82.08077585621932,-98.6364404049673,-111.05266164765295,-104.8515274520331,-77.14928489127267,-42.83725764813867,-16.08276226172,0.9074913884668565,14.118191927984746,29.29178221882857,45.04141960619354,56.312658736513356,62.33695848341356,65.47936898815261,66.03598535603898,64.07707876725728,62.38050556916873,61.09746827060462,56.32077280936732,48.131267725393585,42.07724132206418,39.17183563960633,34.771497657827545,25.861584964961356,14.073004553762892,2.961970587734063,-8.310057263699065,-23.035219967744993,-37.32193795077191,-46.53523424250467,-56.35219311024503,-71.5158461807687,-88.76052286879559,-105.92273949699673,-122.42770425557254,-129.79399685377555,-116.68460836711184,-85.46816087281775,-51.72904376388442,-26.1805130193277,-5.871624387963419,15.1106518994354,36.66148067101405,55.47125660374232,69.68268584613233,78.77960120186734,82.74072661357062,84.41267494903371,87.2103280441656,90.60528715498484,92.25903900775589,90.16733240973677,83.28522948558505,75.68604050121702,71.12247131123705,64.58985757134778,52.23651119297608,38.73153487056299,26.672976960233747,12.540002061614409,-4.910002681505718,-21.8254897179236,-35.394176871093016,-47.92630534555526,-62.34137699369287,-78.27684418371321,-94.02605083716729,-110.69960777701873,-131.17782633680784,-156.5144737012054,-176.63797284181123,-169.24361948586028,-130.15277929288317,-85.87602480160226,-56.288012743038095,-34.61230196819913,-9.241486023145066,19.580110425592324,45.718706661695464,66.81627921939392,83.0483348964495,93.29853952203115,96.27748818419474,95.87662817850062,98.32055860856674,104.10408065775987,107.8908607924344,104.99106375716326,96.26500875047574,87.387386197684,80.75312007095673,73.05229951943684,62.33874395835577,51.89288689429512,41.996434562738315,27.665743224746013,9.23430432361269,-7.031954298669496,-19.12319479184628,-32.31412582169262,-49.40459178764444,-67.83874618696673,-85.92650196344265,-104.0068132331943,-123.71389063537089,-145.7944346094838,-165.91683242058278,-170.65115609647702,-147.44286473852878,-103.44421283105666,-58.73195048653221,-24.631773210324493,0.9391075973046668,27.158366699746544,53.83211206231551,65.74263884348183,55.59566649856937,39.17814032006004,35.312045321569315,47.07133094316332,64.90439251527971,79.5653388822325,88.28024635353162,92.6098620708707,93.32326100384873,89.23969509531636,81.51233767559283,72.66514194916867,62.42720088500623,49.293237027322675,33.510129386819735,17.749083091384602,4.486538523496084,-7.97780766106173,-23.32657694797662,-40.18603911545327,-55.318628159574565,-70.50875676110724,-87.54901536434329,-106.2042726364378,-127.12290538170505,-147.00310187972295,-151.55881276644956,-126.77152206774782,-80.72170002428246,-37.42477522881653,-8.21143358367132,12.306710698128512,31.010433923063285,50.411304233134445,68.34744442693314,78.53440155469944,80.82447479288685,82.64893028333942,86.27540742263125,86.51132784051305,81.58698473551809,56.0,102.0,64.0
-111.58617088430285,-78.21226102653623,-47.58294605518411,-25.426085665130998,-7.006616078836204,10.87743411314286,29.16389860921628,45.189885057136614,55.75162030380631,60.84941195379797,61.57098462544743,59.845840872202,59.36654627076521,60.40499155810586,60.819972219944255,59.619715251102676,57.97179819764135,56.646776096208285,53.155125065383764,44.777914878853906,33.59095270013354,24.83705140830379,18.272030092179445,8.219714982419585,-4.932763159994461,-15.464125348885297,-24.037750886699268,-35.2301331568698,-49.44134379269876,-62.171592383379135,-72.85070016057468,-86.5691524031343,-103.29511230910775,-111.68888447067866,-98.63042166157898,-67.0893479227124,-34.013138874683115,-10.33853484673807,4.768541362133015,18.207633836995793,34.02227798943732,48.90731716422859,58.49034997858814,63.46902975791138,65.95083473341143,65.63751847836437,63.44203072535843,62.11311910300026,60.22551425167183,54.09236071411606,45.95292407530374,41.0783479914648,38.26847372824798,32.67354895876664,22.580310950257918,10.70071846308725,-0.08519173253973998,-12.205426699703146,-27.554390762052027,-40.4406971890233,-48.91772340348025,-60.24232277475868,-76.47314762720504,-93.70326498557486,-110.9279224357851,-126.0987819492735,-128.36204484303445,-108.96130755124025,-75.24634867074425,-43.420933086495495,-20.108080818635337,0.00070174496775538,21.42121322230396,42.50578280483839,60.07626230657602,72.86290229447992,80.39378968781952,83.2628363568899,85.046487734972,88.2389998843062,91.3475874768876,92.13792075587246,88.60698492715214,80.87111952940982,74.12245017659751,69.77701652591226,61.52113697429496,48.189814969903765,35.19338770646831,22.97672584194565,7.72820448941552,-10.06143850159325,-26.07448149139374,-38.943745984966974,-51.8507351392253,-66.8773603822632,-82.87370373518107,-98.61608469638514,-116.11182248430259,-138.10796072444097,-163.78099121557088,-178.18372135337654,-160.4209048886982,-116.49269583530399,-75.72125055558746,-49.87116397653647,-27.900677460683717,-0.9812618497500634,27.602622161898886,52.335069175372944,72.00779336505815,86.728983021276,94.8573734558355,96.1997189657232,96.1130009033303,99.82676494266373,105.67392110919299,107.83896288197964,102.84923548806906,93.48127309388103,85.31481402355466,78.82815314119178,70.18729997846006,59.12955574546481,49.17332839412687,38.481456694685896,22.51313316640124,4.0632924529064605,-10.811236582039491,-22.549400547595297,-36.92672043875652,-54.71165097227622,-73.1210018572366,-91.08928255260426,-109.46136005070657,-129.89075856875394,-152.23429908399982,-169.62221027016406,-166.96634673199765,-135.9980366227952,-89.82412748417177,-47.65295580337039,-16.740496443586732,8.113010238335152,35.31655976543973,59.53094439105372,64.75100801661225,50.46624165750833,36.29499174331782,37.3930813085313,52.115827890192726,69.71027651072451,82.66764931312262,89.8895150555102,93.23577340226156,92.65830008271928,87.24655074943966,79.0190978863286,69.92952816069125,58.96524190702425,44.92670944151831,28.801785458329935,13.634033605121196,0.9987353874641668,-12.050702231581614,-28.240926499721322,-44.75112518266646,-59.55483877847435,-75.25083484102241,-92.76242742979387,-111.9959619836984,-133.39430977322667,-150.7300148474922,-147.5901352511934,-114.63926649736686,-66.9989387625103,-27.593239461806846,-1.7716858407768517,17.711295168095816,36.53056037529825,55.998021498333664,72.31267729408947,79.72289021872675,81.1055232358941,83.66912358239037,86.94409305593992,85.43790881689216,80.04642250968857,77.43493438938934,77.61849442784728,73.70813469654513,62.27683203069738,46.29654035585438,30.72541219299408,16.967675621763686,2.4129779694515103,-11.898490258417825,-23.48307398299493,-35.408183390695875,-52.220162201726595,-72.66385450771187,-90.91712457962737,-106.01391688826344,-124.23469862116606,-147.71565279616988,-163.12246461657563,-149.21863891148374,-106.34462414351846,-60.69033440618485,-29.766100169079614,-10.197009491740161,10.033923327491657,38.24494532638502,69.03505896791197,89.97360289055004,95.98787249143497,94.62402214315638,95.86693406597733,99.57648207054427,100.07804491952218,99.16052144011559,99.98282916125568,98.46661700220739,91.08674692298187,78.60755907993077,64.41585755924785,52.009789799029285,38.565010651643114,20.143716653406628,1.4834389347426318,-13.503005839911541,-29.6787567647719,-50.54988192741751,-69.63143383329061,-83.49002995994205,-98.61395791298983,-118.42341387180838,-140.530054232181,-165.3684003274476,-189.65581025780813,-196.84710853522478,-170.6645347025363,-118.89085061186263,-67.94473889918672,-31.24662016682605,-2.950325765230228,25.02958214483473,55.44159437236108,84.81140820179522,106.06457908573093,56.0,102.0,64.0
-81.48046302181125,-98.64409264278503,-115.84274452050653,-128.68203847436018,-124.99519783956657,-99.9735509115326,-65.26258059927672,-35.91646812355152,-14.286818002279208,6.032530177754129,27.709466787531735,48.03958577337722,64.27863931506981,75.60201290487745,81.59077090756804,83.70261166118689,85.83199675398812,89.2605607473226,91.89518728467313,91.64822808834103,86.64616076594187,78.56766636383931,72.8331308660618,68.05590278740895,57.97049666875901,44.22015844265157,31.755427758460495,18.987388214643413,2.675167970928867,-15.041505752364923,-30.02170888165279,-42.51017114293772,-55.97633165545134,-71.49730609340189,-87.41859540121774,-103.35366915939342,-121.90719367511791,-145.45323257770124,-170.18109269596815,-176.83149105431463,-149.21515924400313,-103.25886597246051,-66.9866035373175,-43.74339584287161,-20.6771900597859,7.423892523603946,35.26757126948462,58.52028356326018,76.80408763746337,89.8530686813861,95.80112943185469,96.00295525465474,96.72182897052068,101.53997886271448,106.91918511798917,107.14307956816187,100.31758030828352,90.84028015487375,83.41872198438661,76.69323664944741,67.08145924832485,56.06297642329003,46.419440957109664,34.45889667149998,17.129247294167428,-0.7585409265597636,-14.27879272840316,-26.247608275739722,-41.84664871962308,-60.053702648443966,-78.35470353771602,-96.2790152491077,-115.09645085268608,-136.27061878882512,-158.3312483315641,-171.61629212336945,-160.74202192067452,-123.24725530549377,-76.63452511054314,-37.595712137018694,-9.39191946902816,15.593972293088491,43.32185740019734,63.5206995568756,61.96609222304724,45.39682611797884,34.80992643521367,40.67555207581926,57.36656658879794,74.08489777021302,85.26914928566066,91.19423602057584,93.54381596503165,91.56135817478058,85.01990797004841,76.48005229052853,67.03561137546437,55.2323980261898,40.368136290455766,24.182413017369143,9.768403908621874,-2.522411538882947,-16.436568598821637,-33.17573438742,-49.12669743276574,-63.890528960667005,-80.15030651780619,-98.10597872542954,-118.01192863957462,-139.41520456741836,-152.70781799375604,-140.93538136536148,-101.21987955532107,-54.117117080615934,-18.979355332955713,4.163890681666731,23.08685600374314,42.13808283328212,61.349493946422,75.45852099567136,80.37199501212636,81.55265604268854,84.78941721254981,87.16026537245646,83.98807250880971,78.79618572934329,77.46486902696189,77.19752869457425,71.14231503736184,57.89494645620545,41.584680708511264,26.655648485191257,12.923408496686775,-1.9266659469046459,-15.498114069817843,-26.648830860924026,-39.667784096138504,-57.99680466553755,-78.3784457303955,-95.40200137660166,-110.65490687663987,-130.73064226567004,-153.99274555449833,-162.7702755103168,-138.88767914526753,-92.22472264271389,-50.076353069179625,-23.436547923588535,-4.93483848276208,17.344855544807807,47.41672453872056,76.5693480135765,93.1120203095469,95.8195090020774,94.47578753643995,96.97604668215435,100.15444009182832,99.70198032397269,99.29165154005,100.03368529270637,96.96477586530469,87.89966740030431,74.47973876841056,60.61283644900988,48.526170522202314,33.69505090021965,14.451972660720426,-3.1509809299371794,-17.72583738170013,-35.36485605994168,-56.61917222373448,-73.99751876069527,-87.40039455267275,-103.94068606735753,-124.63580783404188,-147.36180861122327,-172.93148339402944,-194.4470996037666,-192.956193497911,-157.2553357318134,-103.02170600355387,-55.910978308237716,-22.6488140352161,4.939199057459287,33.59223314906709,64.34600554645331,92.04742277867423,110.09322651477378,117.54779904681861,119.28286779404735,119.9475540544685,119.75036797304014,118.74512318593013,117.46775392805942,115.27456130166654,112.20791901445753,106.59895611846443,95.4134357490409,79.68397960849308,63.773988903792244,49.17229026349674,34.64979396053243,19.053597087616005,1.4779501914132727,-17.18245571758478,-33.35162222496089,-48.646767787853335,-69.4722772595574,-95.18585449509766,-116.77308047120033,-133.02372411112836,-152.32355867180976,-177.1195808491234,-196.94886910421758,-192.9692358399648,-156.98588940502697,-107.62336016114754,-68.0934542735398,-41.65549848495691,-19.917075819536336,1.114974985832306,23.226206355741613,46.291388849107875,61.57235940164406,62.98603608657895,55.79326270502597,51.24132446599036,55.65519111352238,63.18453594037332,63.081074658433344,56.54108949516156,70.75453887788369,127.050676475064,195.17246444777413,225.6900574563236,207.20693665000192,161.3599971131642,106.56249815147771,52.413610234422215,7.524071908953323,-27.164245645493725,-57.50460335804209,-86.220592347819,-109.29561311167971,-127.1087065483018,-148.79686833528856,-173.634676784834,-181.54639041420995,-156.53477494867695,-112.1208515657608,56.0,102.0,64.0
43.46839077924635,29.917444196753802,11.700621721112817,-5.154025977573399,-17.594285202108765,-30.310287686828655,-46.98591361963313,-65.38892092337295,-83.5441916921013,-101.54227154548647,-120.94243183884163,-142.7824313924473,-163.75308180052147,-171.50136490636018,-152.1295677863182,-109.75966175707822,-64.17431099883474,-28.518359331894697,-2.312253902792867,23.43949627488971,50.741944801715036,65.52122718157375,57.817264599361806,40.920247189277006,34.81432031063975,44.89396549837644,62.57435580262598,77.9577358024156,87.42168173140995,92.22517846440563,93.48579555760948,90.05641184417517,82.64146527416217,73.8871508779693,63.93606366315434,51.22745015502317,35.686866113461065,19.729272628797542,6.117573361677115,-6.200383160886817,-21.102658300691758,-38.01309176051993,-53.37615977695245,-68.38033090391939,-85.18593631102874,-103.6059834686636,-124.2213124886343,-144.8298126937755,-152.49355020833363,-131.75601208398388,-87.20019696164287,-42.39505090957925,-11.409510611304952,9.78178522253528,28.494659650420353,47.8014573398143,66.27459187544918,77.75062879848558,80.7097799392393,82.24531510447905,85.85276436363795,86.84152250772104,82.34843131851291,77.9439910017688,77.61282575367417,76.24664230586151,67.93776649425757,53.25522368013719,37.023008225209516,22.710362735637183,8.734320970937727,-6.145406972877935,-18.850591191722618,-29.97539886909408,-44.425917538537725,-63.96298961000513,-83.75681485754784,-99.69553675608448,-115.75428157897524,-137.61669196443793,-159.08780057242214,-159.46511817288817,-126.514057660774,-78.63274387001931,-40.881168906837374,-17.814005087654415,0.698165522721918,25.404568210962598,56.533706662737444,82.97130168420468,95.01131669428301,95.3266553060722,94.74292336488388,98.14939527160095,100.35038237530523,99.35703044895965,99.57435455284498,99.73375173195807,94.9390446868382,84.3334915738183,70.31836463445849,57.02323203041254,44.78923276237655,28.384657285491294,8.94012299752871,-7.4669256426496275,-22.249688693964565,-41.43038309245632,-62.29561779637367,-77.96845973409236,-91.63572041707687,-109.63837727035775,-130.97466086443123,-154.48750377403465,-180.26054775356945,-197.2711142215859,-185.99629769474424,-142.21952140571327,-87.91194057717335,-45.13631466680255,-14.497889373921437,12.952277878018156,42.37616973275442,73.00785536406207,98.43355831079809,113.19484004655244,118.35970627909157,119.50423767119457,120.02076920204325,119.49105234218437,118.43077145463631,116.93598452677324,114.48952251111996,111.00172750353866,104.00740404013983,91.14899549097083,74.95092976370833,59.458803100866525,45.02947239286796,30.2934957671317,14.211594956284303,-3.9569847089071346,-22.20342003554152,-37.58144623964346,-53.8894044774042,-76.74863697038528,-102.1838314353523,-121.70311476140147,-137.94754445373687,-159.14380005388384,-184.1245693167697,-199.04998610490188,-185.51169980099505,-142.82639541319296,-94.62998542491101,-59.442740134165305,-35.210237017499374,-13.804841800047976,7.263782784869102,30.04194962166025,51.973683352784256,63.37299304811816,61.329845636697,53.72575354159982,51.63176260511754,58.00857737311881,64.29859752553244,61.12986661552398,56.90042744515293,82.97274985786008,147.98380584134486,209.31312889553783,224.709329636394,195.67728611844905,145.98522777161017,90.42134999099392,38.24718267114064,-3.335848514456351,-36.11458073446354,-66.06287584296375,-93.66832151941001,-114.64752980138256,-132.62188279802598,-156.24994029211106,-178.7679800003322,-177.7035361796869,-144.45899615188117,-99.57432617288377,-64.45063724347115,-39.38661396176872,-15.730282635346015,8.617620834287926,30.031889783715833,45.2924049698195,53.51239136099686,57.27363622600243,62.909121055660655,71.04271197438158,75.10080425047354,72.77766771179542,68.39953188066559,63.510439215944,56.26552377066582,46.00204382563958,35.67677676344737,28.81732396614854,22.557126202324298,12.769078525883359,1.1375826825065372,-11.360210493069536,-25.811184676174207,-39.22329206023796,-51.206415035754276,-67.0018058572325,-87.01664311316793,-105.6701844345033,-123.74586275787355,-141.08379712229342,-138.43439383482485,-102.84777675684497,-57.01925601016774,-27.124606334497386,-9.783411491629723,8.838039347207395,31.70506986524007,55.31368393182689,75.30490751498454,86.44536325214504,87.85476765782029,85.20196705411007,84.75740479668755,87.87141216162343,91.82151188357143,93.8422378781417,90.63821525616714,80.6290291495132,69.12112175267644,61.81847954644004,55.8862612554389,45.449223989001545,30.52682823710096,14.134269548614457,-2.4025097203299737,-18.02638845871401,-31.89604970680573,-45.85068362232931,-62.30496923703996,-79.76438583488671,-94.82109803582682,-109.47455280736986,56.0,102.0,64.0
80.72995659429152,77.51024039252286,77.67537016370574,74.66425104781906,64.17236838898742,48.49549397244349,32.66384220914407,18.792459236599548,4.4222492186840885,-10.145085653359487,-22.037571687049617,-33.602007143261936,-49.66406255415892,-69.94650745856589,-88.74501645487338,-103.98295562274896,-121.42158420147133,-144.58886302690843,-162.3775793561805,-153.12064710871334,-112.85371068806167,-66.05748196953137,-33.005342872605205,-12.574559122368305,6.922966423701446,34.089336042749295,65.24750223740082,88.07664856230929,95.87013671853349,94.80444980403196,95.43115120487634,99.18885869038829,100.21726374624016,99.17227033782925,99.87891419836193,98.98230734360268,92.41108125694628,80.46597520708566,66.2406323092133,53.58200106180409,40.6418839650299,22.776805355997645,3.748416064546729,-11.604262577166939,-27.218846881486407,-47.67671636382368,-67.44567619616102,-81.74793823867527,-96.30519343678459,-115.60674116699666,-137.46776898392724,-161.89014834484882,-186.93651405284177,-197.6265096337827,-176.10991351498552,-126.31069728532029,-73.94381522996524,-35.429872672543894,-6.575631946896131,21.16423920913074,51.30758822460579,81.22568305721391,103.88092202480757,115.46133776270914,118.8538398099623,119.70871389314054,119.98845134419912,119.19405954086578,118.08665986297767,116.31469340201213,113.63984000234339,109.5059021864897,100.88521709697525,86.59297372206282,70.311567863946,55.24069675881755,40.85686725785224,25.82645296026349,9.17604444457668,-9.416536675657929,-26.92517043998833,-41.86919560025417,-59.75743779012508,-84.2866000027179,-108.5868909370066,-126.31613465139215,-143.3606302926616,-166.3655867411537,-190.33832386937846,-198.65157550441185,-175.41556703442726,-128.26305286968542,-82.88491458593184,-51.741853927215914,-28.93888191917464,-7.736898642609694,13.58513412668421,36.85800621860133,56.715405810610555,63.97513851730656,59.184462727098435,52.176496523392665,52.81877520353607,60.36403100009503,64.51103472839408,58.87576742590995,59.94595076834547,98.87216928646603,168.5877031171147,219.2663408251966,219.87164154607458,182.5281095251443,130.1458092709998,74.56251082838816,25.039799032178415,-13.431533431068852,-44.87156394288182,-74.47437371255607,-100.49446937345381,-119.69255212861894,-138.7283062612614,-163.74425256894025,-181.83324604250376,-170.93161804550513,-131.41975617530153,-88.01600182211185,-56.58213025810695,-32.67271630202315,-8.652967106748463,15.293369157244678,35.151010256026865,48.37543026741849,54.79518674848354,58.48338366011743,65.23832754314732,72.91517056167487,74.94258549256274,71.5423821638687,67.10549443993058,61.73686537952429,53.56126044413593,42.80305370883893,33.32496949655842,27.214319375388865,20.112494701220193,9.459453400933869,-2.3022039392495786,-15.38873321452943,-29.96252826821121,-42.63553855202309,-55.178674607637284,-72.57879224852982,-92.71506395533521,-110.70781337249993,-129.32119616969433,-143.49880150801454,-131.1681984204221,-89.08071545740378,-46.33886643846547,-21.535744568240037,-4.904492522083783,15.137275029199632,38.618108539712026,61.69829567926186,79.6149031789729,87.69003580407072,87.17838024979389,84.66827768891834,85.38010945871513,89.0600614013008,92.7263322025135,93.61364347361035,88.34997054321467,77.0940066290256,66.53054977387305,60.2752595761189,53.464681494602246,41.45707250800301,25.845108585272374,9.344153173027015,-7.079660200876284,-22.188899741831555,-35.780178059424415,-50.31518610238447,-67.42830356799628,-84.41939798376643,-98.82296095193519,-114.60853630099942,-137.3238073534563,-159.96789115471722,-160.95824916374366,-130.25871810992123,-87.41622732524492,-55.57935539639537,-34.41843261180701,-14.060162288894388,9.55755384639521,35.32571505167207,56.7042829689153,69.01008883581997,74.39709822442913,76.57793830226454,79.59591790309481,84.50917882538059,87.40524398897522,86.45366417491546,82.88727558034097,78.001321489702,73.61511493377135,67.32561971948938,55.54518411924997,41.15130227168445,28.677299059323154,17.949392637908606,6.400794068592252,-6.242234181394853,-19.368013151650686,-34.14352649435122,-50.287862788090415,-63.588605165055284,-74.43253701230044,-93.32497366054768,-121.92351538919718,-139.8972895062827,-126.7323776492215,-90.43438505400944,-56.028231893863406,-32.67714678314705,-11.72603963561372,12.239246116706205,34.17673851932909,49.5414045522903,60.77149301429155,69.28210772766136,70.97606536271589,67.81960570424332,67.31041541680665,68.80646091579858,68.01733630419898,65.39749987556624,61.14562526778608,53.12934814725699,42.11697561459293,31.314850874489174,22.394703248853098,14.742005953823613,4.976840030706668,-8.953492109323372,-23.830630011563883,-36.570058850862814,56.0,102.0,64.0
108.35489079239898,117.02301159731446,119.16851798290907,119.88497160902885,119.8472187720848,118.88704848060685,117.6819269905795,115.61733585446729,112.69305322767003,107.62212677460553,97.2479692428606,81.87694632129418,65.80509171291057,51.08113889190022,36.626369162361684,21.226403823917764,3.946128544482468,-14.77714518028691,-31.371127934668255,-46.41277865082693,-66.27113592695059,-91.8053136046816,-114.3324505780541,-130.87078764861107,-149.3583891984049,-173.7489099183652,-195.2598727244574,-195.43835864721396,-163.17342870842361,-113.9691318989732,-72.46640731316721,-44.728254077535894,-22.75147401172956,-1.685646926268654,20.13307442350818,43.4266191047193,60.32245126375665,63.5084902918992,56.849052873149034,51.3470152561516,54.65271933589469,62.4188382246259,63.744332156106054,57.020018592780595,66.452772310111,117.69647775156864,187.43008523339515,224.7031632024126,211.81455607861366,168.23531628742592,114.03001355425218,59.236861112806785,12.828575140846349,-22.93381232563599,-53.53237155195489,-82.6078988561877,-106.66078425357384,-124.71643851573495,-145.48638709435482,-170.74579687450523,-182.30371412503038,-161.57118243416102,-118.14362138349864,-77.6165440315167,-49.35069910206458,-25.883913926059357,-1.5585987931205745,21.613074205919446,39.70351302337547,50.86158027195311,55.82536750817184,60.01805512616612,67.68159919979782,74.25524091090865,74.29723065114497,70.26457541912613,65.7438873314552,59.71524947287642,50.60997836629006,39.72100294887491,31.31345398048132,25.510268143256617,17.323334901838166,6.090922981197201,-5.850685690291149,-19.584817847537604,-33.904977253058,-46.00725125255023,-59.6182354745678,-78.41484566424496,-98.14996459712208,-115.84805523262908,-134.69724643584595,-143.5562220237737,-121.13669315141577,-75.36363082640078,-37.3890632304324,-16.61616791183985,0.35560999645436053,21.73625439075906,45.50276943466284,67.65966114829219,83.05667335524913,88.17847036813059,86.34559357809638,84.44660888745497,86.26811915050824,90.239437938646,93.4106823274637,92.85112889609877,85.50055919129466,73.64349541875036,64.36955584226455,58.68113056433418,50.55491917992259,37.16161238558365,21.106913517317643,4.552524949282211,-11.640694268231035,-26.201353322857322,-39.74734340198778,-55.03237920345929,-72.54229786750206,-88.80592081630677,-102.91910661721028,-120.40940514440993,-144.68196709225123,-163.4414946441506,-154.9830285751419,-117.79333119667271,-76.64243683416862,-48.85503335824315,-28.751634535641337,-7.620810062381347,16.984444430029527,42.30014052423559,61.18561501602764,71.1114554588395,75.18331180487147,77.20601909863024,80.93838668094166,85.73928210360432,87.47707390229478,85.64850174339048,81.51811166247361,76.66703245162574,72.23101078845016,64.48556643600475,51.40415854713089,37.2534219960194,25.52275244083277,14.765240478196107,2.8137134510717177,-9.96668894002674,-23.40012631197666,-38.804336175418335,-54.615113579554595,-66.62881967144678,-78.58880184723321,-101.12793639201435,-129.43601753912284,-139.58360964176055,-117.51322518845669,-79.41149265413642,-48.35801031191508,-26.845323504963464,-5.0226663527950475,19.106745685602373,39.29753406357402,53.016310416496765,63.65172522403275,70.60765893342696,70.19620870930581,67.22065642815558,67.78473345986036,68.8732282584227,67.37283412652366,64.42305702054121,59.27690911957784,50.11000552180253,38.86112412194927,28.520508400497498,20.158536032613497,12.315861157915677,1.328528952045899,-13.378321377608021,-27.708246601343614,-40.183949327563816,-54.52196117793146,-71.13229343243924,-86.36174761377671,-98.29272079726938,-111.04124051161784,-126.41470246000684,-129.9399903294833,-108.33926220788878,-72.27609143065531,-40.69620968342994,-18.696137403167306,1.2309403205779388,25.473740428113533,51.8841712446655,71.46966296115716,79.13929374818309,80.58827544318515,81.47870761048968,82.58857246432667,83.64798450027514,84.07555632493501,83.04149981156047,80.78131062608911,78.97416943976242,74.78537257776799,63.55747900690216,49.05301616114465,37.77585745939999,29.31217828646354,20.41231265398939,8.615984668150345,-8.771533773710258,-28.308724122596203,-42.88545138082713,-55.007022509375474,-71.66479620454162,-90.22784515936122,-105.7952662727913,-122.53972311164773,-143.67023104885138,-157.03687811461342,-145.7640121173189,-112.75502485284244,-77.30923280469821,-49.4720817441425,-25.686078814406883,-0.5980998028955857,26.641447454838328,51.94140795465661,69.81540828473408,78.62921878302134,83.0142300948063,86.458468852782,86.6803241870485,84.68316466794852,85.77329187537401,88.97882481167709,87.54824448059448,78.24899551132337,65.95500935085782,56.422000786172,48.358345032943056,56.0,102.0,64.0
-105.2536568130539,-68.36612172443567,-42.4902181085055,-18.96397289790229,5.448110537165676,27.49020431828317,43.6672073655718,52.78962795748795,56.794290402979875,61.91908587588238,70.04085780940298,74.97851726772757,73.30817993696404,68.98772267591414,64.25543919721517,57.419382270129326,47.47870618441984,36.87989139019635,29.567530891780706,23.563620549108414,14.25329646872944,2.705118502170568,-9.573402399206312,-23.853117932955993,-37.597844139567364,-49.50473242189787,-64.56210612144264,-84.32128427154998,-103.33560917705898,-121.20381249365586,-139.3563330098628,-140.75861111494515,-108.95759762489546,-62.49710928671978,-30.048927966792995,-11.948229127491972,6.061291022720702,28.532411683055177,52.2658756264695,73.05106394458046,85.58481728761699,88.0629408142544,85.52993542929173,84.57815423174053,87.33944067430816,91.34900799043895,93.79321523462148,91.48306082815017,82.22811755559708,70.46119654806756,62.5659765162743,56.85164694474784,47.16233983469901,32.6540070107944,16.338825463024875,-0.2187640247975799,-16.050277417878455,-30.110413778642915,-43.87547495572917,-59.97170723488496,-77.53234103847635,-92.95986062198385,-107.30312843344316,-126.89417640170433,-151.6715129422107,-164.4896786942479,-146.3915281762852,-105.06892260535984,-67.17563443304785,-42.768562752170105,-22.95078320556794,-0.8643380567297136,24.513439775269575,48.69589157541235,64.8771015040901,72.72889590666847,75.78985887404501,78.01106585550863,82.40320280583857,86.67406691502747,87.24505587267495,84.65116887645772,80.08123189598338,75.41664516137155,70.55575412380567,61.14563701002392,47.18336437975029,33.59850930472262,22.45242743995323,11.458037027098548,-0.8401632517056632,-13.727434621829666,-27.62020868884587,-43.52951947820684,-58.56585457470035,-69.58919947389407,-83.74993051732321,-109.56987990288741,-135.36399111980415,-136.3347974813712,-106.9090930982095,-69.15074439850774,-41.573578497441844,-20.91270693576388,1.9375492124947995,25.611311131655675,43.8238244874965,56.27283430939716,66.2613118873297,71.23736114394099,69.18992665677702,67.00333981157705,68.29397074726513,68.68365553717035,66.62952339036288,63.27825711289665,57.036069185821624,46.91306652262462,35.695436378810584,25.90588865227772,17.987641951310987,9.602830087075386,-2.670377851116563,-17.751524709852852,-31.380406477856205,-43.98875974079873,-59.224707378106416,-75.83999642328033,-90.09111244594362,-101.59617327934342,-115.53506827793926,-129.57050079982585,-126.2736582617441,-98.45684940319458,-62.12511431226805,-33.55667192557208,-13.142178270065976,7.714198417854504,33.20262609538442,58.67184247419615,74.81784926286196,79.82780775700382,80.81895456058925,81.78210263827604,82.92255214984209,83.86439526715546,83.96934224537686,82.42438106265567,80.20884514160086,78.28459900903195,72.29592413032093,59.33312407151598,45.34392916634725,35.19963660575994,26.891936646934557,17.436616229584793,4.203162241686832,-14.57514130450367,-33.15977747283064,-46.25779235878283,-59.24586665563054,-77.17084415928723,-95.01858968255041,-110.17901044162217,-128.40605481429972,-149.21632225304444,-156.70466082271653,-137.68245292529684,-101.98391786572677,-68.48399840811446,-42.4725160697506,-18.71366579589735,7.15372813202076,34.41348600162354,58.05674795859949,73.18684676668603,80.07487656468015,84.14313170667292,86.96159869629872,86.08820434832235,84.53938098935768,86.74876502009853,89.32848937843582,85.59088637360117,74.66487999075053,62.81967568976936,54.17984761144686,45.49160874005278,32.4027426581019,17.48796752706952,4.920901417933788,-8.36743095777599,-26.170168811487418,-44.20103702163056,-57.57000932557436,-66.88165099046641,-77.38101762242631,-94.9680612158746,-117.39723529608668,-130.58804126400224,-120.56806716707514,-90.41332070650648,-56.68068238322311,-29.237592720490372,-8.034018344986979,10.416525999173171,29.1904454520826,46.5473886348161,57.124341482338345,61.56634877719273,64.76177716111575,67.1548359379143,67.94107045298672,69.1383991907128,69.73981349648808,65.65611574572374,57.41149566182815,49.60305849378541,43.20681071418513,35.768496637384644,26.37526316803561,15.604432831284159,4.4999461507864815,-6.949076817643714,-18.61180258806321,-29.637965438038332,-42.76055794023614,-60.618264440349776,-77.72505132031044,-90.02361640950033,-104.30128339644868,-123.1889566608268,-132.1748346202142,-113.78024290517776,-77.42764766557575,-47.184481548261054,-26.396190862874956,-5.060442776080894,17.405521956483142,36.12505117226266,52.56187675930168,67.6845076136859,76.40566234316196,78.82584385464848,80.14192250316458,81.14985791187439,81.08091172329516,80.89952161813511,79.92950961414853,76.11765177347803,56.0,102.0,64.0
-112.16381491795119,-133.9482316028509,-157.69385496922314,-162.74695577314887,-135.7032860039573,-92.78170655698112,-58.9803697908591,-37.022713917772386,-16.927732839083014,6.204392595536924,31.969538079836788,54.36214337706233,67.85307350601137,73.94711773534897,76.32453906867258,79.04262808268966,83.86985511163633,87.2575962747547,86.75557303271707,83.47907601486041,78.64536622900846,74.19629674492758,68.45905277599441,57.3862721822762,43.020178312308005,30.18264690029762,19.38363562978639,8.023251378720051,-4.5322828566933175,-17.561709281536732,-32.042073172510996,-48.195625234638094,-62.093844276818956,-72.78389599101135,-90.04674678045835,-118.12210551172353,-139.07271203323023,-130.32367242173675,-95.65197761485,-59.91582388112915,-35.40215731792735,-14.704122390108044,9.000678065867385,31.60875626689733,47.83401604328183,59.38317557395102,68.45393985250826,71.19269760831972,68.2056799566558,67.1479285015318,68.69135545031602,68.26925267434832,65.80649856931231,61.88887498010536,54.435649177154865,43.633300639722876,32.66119434619625,23.466448849301322,15.791997894798651,6.527428394642484,-6.932471519093681,-21.96318473011319,-34.935897418770644,-48.06207117771112,-64.05642323220874,-80.3305641594356,-93.53666331752873,-105.14960717761656,-120.17938460527324,-131.19845073965013,-120.36730893069921,-87.87642558645065,-52.74635910358987,-27.162007211893766,-7.509534289345754,14.643218714196985,40.97192499356994,64.62235265076885,77.15898322404124,80.2217315138826,81.07015779716534,82.10176006881719,83.24158421305083,84.0146509470442,83.71014869592965,81.7449927256655,79.70968115020645,77.25059857735535,69.14192458664638,55.03914711186452,42.013487019542076,32.77510186661089,24.370403828539157,14.154974295409172,-0.7427997522599779,-20.362475756447502,-37.45865185195308,-49.622388196239726,-63.9927159676502,-82.64356069389082,-99.50910145644858,-114.86178653113622,-134.61878570963225,-153.63848719663196,-153.9693447671131,-128.14438063287454,-91.5145885417961,-60.35529863369226,-35.64706221790218,-11.529230324180947,15.053166040357329,41.88220129940056,63.427658504563325,75.82221561551033,81.32101995306856,85.20813853803402,87.1025583697139,85.42367613867201,84.77872267749791,87.77716128688058,89.1083302701467,82.97322445870174,71.02440571601953,60.010167362626696,51.94441100655071,42.19702887276041,28.01429555977693,13.60207627504539,1.4343542298819698,-13.089343138439048,-31.668321223158436,-48.61230819275665,-60.52532957970488,-69.47782355597927,-81.60008194641463,-101.38633650879532,-122.94906882368768,-130.35592730470125,-113.26614449080313,-80.35013269085002,-47.9850951428359,-22.598617702679917,-2.596598873749283,15.756368380299417,34.59430424302802,50.450771461328635,58.79947800173542,62.491498892502996,65.62129249985897,67.48775709470205,68.17102809164,69.56635234467457,69.15007471605345,63.51299450677143,54.94533526848491,47.714724616509606,41.246344719280174,33.249966623560766,23.354153700051416,12.40253505787754,1.254161343087881,-10.354578152053115,-21.833089221274502,-32.999918149680816,-47.51414234323153,-66.01417350611302,-81.62514912757482,-93.56499953236752,-109.58858978984004,-127.80760755864335,-129.91443654874888,-103.94934513475421,-67.38527768532116,-40.658056985240485,-20.575345656214704,1.5776379168592956,23.27274938156912,40.9289748311141,57.2401327802314,71.05605014542691,77.50526906935394,79.1808443420469,80.52987596864139,81.21313447895763,81.01294026067843,80.79412799739362,79.18606736966981,74.39462348835235,67.13025277875911,58.455185926408205,47.27443188617127,33.837364448585554,20.36622328594911,8.72543062917009,-2.2338824055235853,-14.153236473357516,-27.780272937822446,-42.9107429840703,-57.79172491037956,-71.56286664042003,-84.48371418479326,-100.12442462980066,-121.52693786741169,-137.32988076051038,-129.17417449940535,-100.08337044703266,-69.65310237495666,-46.23847851828336,-25.685326279542153,-4.252958911158857,18.850891195915253,40.615179955433575,55.586843303453094,61.81939096528745,64.01075217472204,68.23064624378031,73.04157686407359,74.0621200502147,72.82466729000774,71.1922559364582,67.63791865771272,61.89860156227513,54.50700219725275,45.40254392181771,37.09362556399092,30.101212229859662,19.101475491679633,2.0652576054284286,-13.706877768437488,-22.890915461757576,-31.049160377503057,-43.92937763121003,-60.71286299995683,-80.41813462135609,-103.18319494016777,-121.61960662689248,-119.67638409317358,-91.42341703862297,-54.856651757402396,-29.204853226934222,-13.449360631640632,1.3335997597726197,18.165353131793626,35.16506526658374,49.33713240005877,58.85089893107133,64.16566538676723,65.93900097653378,63.516236815471736,60.136774105233144,56.0,102.0,64.0
