-36.200908372200296,-1671.5935663504767,-2059.122830002793,-1695.9028318921119,-1455.2504468563009,-1419.7047840270347,-1324.9561392986534,-1119.046159255835,-920.2912475123952,-789.7701066156437,-692.4922031549182,-592.2286524908027,-492.49994601140514,-406.66357012679805,-334.2171826687265,-266.8791584075695,-199.88963401886397,-133.5732879662395,-72.38539462981532,-21.0585693207813,19.04124743858972,51.911129345230144,82.84919040234966,110.41977395654423,131.4947325505383,147.41049552857498,158.42122608938564,162.46747511499683,172.88601341258703,216.1139056810129,287.8587230755811,344.94246378570006,362.55749989445974,355.00809808163484,342.00362130405153,329.2990501746415,312.26226196189884,287.6674831372938,260.1042881724532,233.34338771800495,207.973397591388,184.85872506892858,160.87195803226308,132.80935588913215,100.45298711663405,65.84925062471143,33.407254460705424,3.507383287808817,-27.826993699739504,-57.98073123648846,-82.28441869944713,-105.79880931772354,-129.081742526506,-127.33748482355057,-79.93773646833358,-17.053813200198537,13.152797253327513,6.440325099479028,-8.35169872809608,-16.14863060340499,-23.0022148853121,-35.46466250713784,-49.739074856146416,-58.368135270674,-61.00241120561664,-62.29332770889512,-65.11001173711358,-71.93048454161335,-82.49683310024629,-92.81118510369215,-102.13905452785647,-111.79605924305659,-119.45551364084903,-122.72986781794444,-125.111950938976,-133.27133972521645,-142.3015939113,-126.58940096496639,-67.15744172468206,10.221989097460511,59.80874968518863,73.90282711696003,78.14125373407309,84.40099928162759,85.58062994637429,78.76629690143633,68.21152953304203,58.59814955055179,53.708764932070984,53.22273551523407,50.84559894854516,42.826493365432974,30.164766629411524,15.17500450845462,1.3814701834546024,-8.523193258886655,-17.015233496889927,-29.464597426294166,-45.57947149590337,-59.30557439746381,-69.00954783706045,-80.71170517084832,-90.17744212580669,-72.20346547967763,-12.310488860418598,59.688819523093386,102.14183949369097,107.91942767235066,98.75222711777465,93.50740952163258,92.31575462971489,86.47276146064166,73.65724200403824,58.45427298851412,46.601014166135535,39.269667614954635,33.05946066883591,26.911351570076675,17.90858249496479,1.567854213495202,-17.61014022556166,-32.88259598836907,-45.097654661197666,-58.32483629409009,-73.08247981067656,-87.41577293015717,-98.7757815358586,-104.72229588243832,-110.02296079054766,-120.61449868643125,-122.14072227378725,-84.23755374037961,-6.966575892742772,61.26248442911049,83.35532857282695,76.40230622053146,71.28996684699841,73.05222838701401,73.26538490693278,67.41888684310845,56.380048703823775,44.20380185187303,37.52863416514179,38.0384783808167,34.954056740057474,22.334080193012554,9.350319251237412,0.5846970863339926,-9.545037838660932,-24.250592977779572,-39.064049642194064,-51.211195695701825,-62.972158115997544,-73.95434113785275,-79.81479534963144,-83.03900088548066,-92.46011482353167,-103.90556731757061,-94.04262881949306,-43.323516211362254,32.19415141997602,86.1069336968764,96.5730031027398,85.25621509839014,77.13724182312558,73.01883440370275,65.17439830566033,54.19281338003935,45.17606281960472,41.005254024027906,39.5373831309147,36.00665683480805,28.320740776411252,18.018892848191456,5.935730646283716,-9.134266881196329,-24.472386556939334,-36.42434923450085,-47.61150727112447,-60.595075036004,-71.48265694471004,-78.0059384319692,-85.73698603289994,-99.61843838966539,-107.25203029143518,-80.42097372741182,-14.108488128667345,53.213692689961334,84.97724470016365,85.19425262744436,78.5492228122561,76.5289636616192,73.01913857758379,62.75649442947511,49.73274480254791,40.126916516136255,34.925440201559795,32.50955075780986,29.726367914049327,21.040433609929618,6.317189189227917,-8.675965980518324,-21.816710875862615,-33.81861856792236,-45.12418963188271,-58.25441417518487,-73.3830445455084,-85.62535477561032,-90.57796099426922,-93.03041301240408,-102.28674270108542,-111.07464071183382,-90.14907685296707,-25.34472437123231,49.57927311775553,90.87942185717395,94.76018814210946,86.46149236650975,83.89219604677444,86.3965336737768,85.12253191639776,73.8869416687622,56.589017319673175,44.43478764174218,41.98976727817258,40.42971985574706,30.346311714832535,13.678078741637307,-1.8071497729581645,-13.279344793650576,-23.093294221671297,-35.264900091691324,-50.70630857927297,-64.48938095931321,-74.05391853837502,-82.10751569809467,-88.61979255491099,-93.48633017838105,-100.7484430443032,-107.2727872639433,-91.1809094050185,-32.89448933954719,43.124534813692215,88.2112013532525,92.38368004132614,82.72321365395092,79.39053638164287,80.60825340802387,76.51782907616274,66.18236096146855,65.0,107.0,77.0
-53.00958329393955,-59.54708726398722,-61.34428359152118,-62.84940019883142,-66.57671567638423,-74.75703337368995,-85.64457711409452,-95.5163386528223,-104.92102720655964,-114.38698997406078,-120.83237699168265,-123.19058759134224,-126.70836766242702,-136.5894428789609,-141.6973756060463,-113.7423276646807,-44.41435923549417,28.765811123480642,66.5989807828271,75.05769115601555,79.92357296644143,85.59824755780406,84.30672706364695,75.87225907989229,65.1538479127342,56.57622848112298,53.335151890287705,53.0158234785119,49.115887124983146,39.55669383800364,25.942939027342295,10.890185007517369,-1.890881022328414,-10.866995593585335,-20.054199017266818,-33.967666004128866,-50.04967414671167,-62.320010412350975,-71.96372646662385,-84.48251283878281,-89.10608477541479,-58.731757791456715,9.420606487721793,76.11883608677516,106.89322271500853,105.67273086163199,96.47452107396181,93.13477181079811,91.39383228525315,83.35969692015188,69.23495815849006,54.496361067566845,44.149615350042055,37.47347868487271,31.288129478342537,24.882595578153712,13.942498345601301,-4.0767402848583405,-22.537274003654392,-36.52842022785965,-48.69955630207712,-62.51420600013798,-77.34983717708164,-91.16377319152588,-101.02474607771943,-105.90431982165599,-112.6314717118525,-123.31853363906656,-116.27324186228721,-64.46479852922508,16.239507922250805,72.55582743466854,82.670209349912,73.97850104560335,71.44230207898224,73.59720247572712,72.2363714671617,64.64038861570279,52.71487466803827,41.42472589485828,37.21381244788579,38.11419580870187,32.04609076705818,18.161320969693776,6.524260407607608,-1.8972334493390364,-13.426804435664506,-28.76716580246898,-42.79327936904062,-54.54347100888004,-66.41408054646114,-76.28522067295624,-80.61957185998637,-84.88224087976816,-96.33581653131502,-104.47250872007562,-83.7627361105845,-22.193424367787742,51.904959207618965,93.2286553118974,94.07849714800868,82.09955938202393,75.95328538864459,71.2911488537551,62.103153506533594,51.183155768429614,43.46412618540966,40.51769212391881,38.90337785425565,34.192163743556705,25.512622136485906,14.768310957413968,1.8829789358176647,-13.77994355308159,-28.277399359900834,-39.513614431722566,-51.25267020293759,-64.18956108274756,-73.70519047950829,-79.74440815339635,-89.20618268788539,-103.62667052035573,-104.12752001875789,-64.26038127870768,7.453497702192425,66.6532194664356,87.22666222344927,83.03611063536529,77.56129718199738,76.07315410026,70.72243466784296,58.94955080336171,46.45184400112656,38.24263468028729,34.01473574202652,31.985879110047996,28.00510441953282,17.182057560590383,1.7924445756164251,-12.616452927630728,-25.40623106679029,-37.07438483418334,-48.62356184895583,-62.55461958367755,-77.5069201488393,-87.81447951955464,-91.06623578835098,-94.8237675068974,-105.90499876249227,-109.46997936853967,-75.31923563650611,-2.3808692316319426,66.04050453606025,94.93459982301295,92.4443097337842,84.87254856547256,84.43454992375598,86.82506471783974,82.94849748319224,69.0626618356927,52.08549074864096,42.915316389457445,42.01551600846814,38.54018095753189,25.85843890260064,8.812786590605478,-5.4838237357925905,-16.121502358260525,-26.203475061825376,-39.535163221140515,-55.11090819052236,-67.60045345027152,-76.44011703579623,-84.24036163521664,-90.05293446203422,-95.18944587785583,-103.31309229882083,-106.26462459849354,-78.63600799012303,-10.452118131586612,60.84816171341357,92.72177713258067,89.69837993007876,80.82941299306901,79.74015115401771,80.26399040883463,73.90781849506448,63.033604961345105,54.39768085519749,49.39052629807612,45.70120258531445,40.26606521864954,30.83184328664999,18.23092367792113,4.152576894323083,-10.830244475391767,-25.516817105017193,-38.74997940168952,-50.085036092824645,-60.055271278750205,-70.86620393479912,-81.6268700023836,-88.07417601558706,-90.38046375494615,-95.9139939444395,-107.09123197751605,-103.67226811921876,-57.501080925732815,18.495290383226667,75.20293438824923,90.75533968086188,85.35736616119434,81.70541148609664,81.1452967391915,75.68037123726778,65.73732752683794,57.431174229546066,50.952118616759414,44.124000148159155,38.70268302290112,33.47927123628319,25.671497721149958,13.609497799999348,-2.3797368524857263,-17.721038317881955,-30.709490849253015,-43.420510109857254,-55.64726299328354,-66.54485233757963,-75.51898990967688,-82.55149781812425,-90.97258244720494,-102.06047369906184,-101.53015643435315,-63.53034034502445,8.639653744834686,68.62157271060045,87.090478530632,81.42639795313168,74.20350181909036,69.07020461056689,61.36154714390763,50.8797283180057,41.6243736143002,36.056853612091174,32.439285264449005,27.507560283488054,20.599161049039743,12.57057776910529,2.76759195417335,65.0,107.0,77.0
-81.53967080849579,-94.57904799673824,-102.78458494750761,-107.25881047728745,-115.76124137871,-124.61836902653818,-106.3383880558459,-41.958741320433575,37.14247301724244,79.59915233863235,80.47268659651141,72.28701412899542,72.00829309400521,73.80414002332685,70.65686170919697,61.48432109813515,49.08219474936068,39.29202508628551,37.428817096270386,37.50537391093573,28.39009030864072,14.266664976372388,4.021567036234074,-4.688332360795352,-17.676804959297343,-33.132631569930446,-46.303488929093206,-57.926070492214414,-69.71017134202849,-78.07615955940605,-81.38911371011322,-87.4667584449002,-100.05232843352412,-102.55153754995226,-69.76236792502132,0.1369620207887423,68.56557037264243,96.70594608783182,90.60652003572956,79.6171704280434,74.88398894038855,69.11134733478391,58.880381869132975,48.4623481266696,42.190321510489994,40.146811622305755,37.98370082430298,32.0232269935807,22.551488307841066,11.350225143816331,-2.448597681493122,-18.312469903732204,-31.75655422240316,-42.67221764938032,-55.04382464523613,-67.45966366358978,-75.57853433758474,-81.79733784149151,-93.24370793538694,-106.56457267234336,-97.36482312426118,-45.14296589932544,27.808984445162608,76.55892330320741,87.35501821489882,80.92232721883016,77.00377470976025,75.23974106499836,67.82690500602068,55.09078432762544,43.57514585231113,36.68992892694653,33.30587517743183,31.315411722644075,25.650988503613547,12.91490941786376,-2.5991478402568178,-16.423790150292415,-28.901632296461536,-40.29934041672989,-52.354291729128406,-66.97512046214831,-81.22322168320667,-89.33280350804482,-91.58726430075296,-97.39137141906876,-109.04149810282115,-104.50634010188382,-56.87985924401411,20.12358176186957,78.85936165383357,96.25348502151506,89.82990598536611,83.99294467513339,85.24017839337722,86.69390890389215,79.85946833906243,63.94403641531057,48.315402606830126,42.17853042569876,41.78764864319658,35.7906087466083,20.99389353702719,4.231472660789689,-8.83478942302853,-18.905608769965475,-29.622897434532746,-44.03220985728263,-59.213347242654265,-70.37893086329753,-78.78267614622769,-86.18336207588446,-91.39897964808912,-97.22115559376398,-105.59889129486095,-102.61769209995718,-62.30971450658935,12.295938262594147,74.88421227670534,94.1566219844448,86.66415780911092,79.72822164457702,80.23685700931121,79.25212240061663,70.89095862276012,60.121416588211275,52.65550909887597,48.314751265200805,44.45213143976908,37.97530080954066,27.418711105994856,14.281974826979672,-0.11585100037354895,-15.174245352515475,-29.51329954303699,-42.23659664321632,-53.01453758500185,-63.02795821546897,-74.15704495879883,-84.08132424999742,-88.93477493637309,-91.27005531662579,-98.94104444194872,-109.09867376700785,-95.27867012808915,-36.60576623034498,38.80901545909164,83.56209504630618,90.02350058602102,83.65599149053102,81.60957043987366,80.27988932130121,72.97994790994017,63.0027017472674,55.53216260824441,48.97726860863219,42.359102534920034,37.329922634156624,31.564692630585945,22.68973323713557,9.244584167327655,-7.085819387757754,-21.625954515485244,-34.360690813915895,-47.062252653108004,-58.94509024805841,-69.3789793151823,-77.66901437840531,-84.64058556139253,-94.12891211454829,-104.26062455375369,-95.23410047583279,-44.6406874946202,29.47802867391648,78.10684662786214,86.6252685469581,79.0014800119518,72.70827502481777,67.24860063673532,58.46716933798924,47.90095919897889,39.63700278419726,34.97043110040122,31.24776871191973,25.66315839462732,18.39563877080765,9.971076754254602,-0.5296830449287622,-13.40723771582875,-27.575404507275987,-42.68728741253781,-58.63625815247916,-71.61883126238271,-77.49622281333919,-82.62781502676079,-97.06765579520331,-109.76922884892906,-87.01627207430151,-18.197216062160756,54.011206926062904,85.51799523679165,81.52834017781079,72.4219294829709,72.29784888406637,73.86191289882342,67.43224100255976,54.38344184428064,43.36571966402707,38.207856858086465,34.569561491833376,27.050515328985156,16.18780892346326,5.298187778182342,-6.459787268373538,-22.061412228272495,-39.8051791754263,-56.27665503495712,-69.40369667850719,-76.81693314108549,-82.15895395071055,-94.24964542869523,-113.49417390830418,-120.88401773168957,-86.9655086661316,-12.61988816053579,56.08158847484988,84.61865333057177,85.53654461950491,83.52142916114721,84.01816187741348,82.4108525171125,76.63894726067647,65.95889163220477,51.91832750804102,39.790037204848645,34.674724967923154,33.79937452605729,28.595120617539827,15.744091468082136,-1.3327152005633387,-19.35357104372389,-35.16198411453672,-46.684573291496335,-57.845291883925675,-72.24146943549562,-84.68024058183866,-91.66600001989524,-102.48496903083654,-121.79103886775151,-127.68828419691675,65.0,107.0,77.0
45.87939200613199,83.04099312192034,86.07144765056945,79.18061834726382,76.67421208892888,73.8630210509553,64.44032833030278,51.36377036009843,41.12114649525691,35.42318808707314,32.74329392532445,30.33114567482835,22.63890339642476,8.418107259524483,-6.802686266796478,-20.133851137964363,-32.2909167170651,-43.57363557620384,-56.33746686825283,-71.39102827747426,-84.38471077417068,-90.28166274168399,-92.44572337333943,-100.63837387155378,-110.89574360433467,-95.62973269069862,-35.70528491955814,40.888896940827856,87.91745042841782,95.55434762040935,87.412909076761,83.78987381800492,86.07229457054646,85.81616467862774,75.93478542973176,58.84438235630478,45.44112491162382,41.982627006850215,41.02303547151679,32.22782989577527,15.98034948068442,0.010749605974763802,-11.923484396372803,-21.73869668013356,-33.40175920928317,-48.61238296975335,-62.921487178569976,-72.9275691096775,-81.07765322808933,-87.90135966199595,-92.79030150412234,-99.58022612328432,-107.0623054559112,-95.64962606989269,-42.74758105373816,33.90884741799675,84.91534193705328,93.30948481171075,83.84235010192148,79.36026109989906,80.57887501669096,77.53358700792285,67.67486144755206,57.53550726493999,51.18386131316797,47.283389376589334,42.974790500744625,35.318204580322146,23.795761001617723,10.234739733352576,-4.44916433720089,-19.451932216792503,-33.37257812319721,-45.551226212382716,-55.868115661339075,-66.12985464137502,-77.3641274035703,-86.06231524807544,-89.536492688389,-92.66927252701612,-102.3709243924571,-109.09975843577999,-82.73839434541334,-14.154180971581301,56.22631476087871,88.48184342932356,88.31083856364276,82.47784734179554,81.58507674684554,78.82910534864432,70.0439455425113,60.54191590661003,53.698733930026314,46.96412266050654,40.77481535996072,35.883197896610056,29.39091696814791,19.30541076888318,4.604390110021693,-11.593643679029038,-25.369424355221227,-38.036900992022375,-50.626216224403514,-62.12675251519018,-72.0256202180125,-79.67887274668202,-86.96877188981793,-97.47818862323821,-104.92022097982182,-85.15560264379056,-23.509916020176682,47.8846679360236,83.94388449143742,84.90575758208223,76.82226875830311,71.29830610617056,65.0997821906415,55.40795314338088,45.1346361990099,37.980777697889096,33.96335877454375,29.874522983352094,23.678071964113396,16.108973171203356,7.1934565581578465,-4.039010205368642,-17.417005040013166,-31.821312692763883,-47.28071174863866,-62.96984559388014,-74.02064703480426,-78.48312299415836,-85.73737484754328,-102.20878179316179,-108.27777217293621,-70.84033312905804,4.950471729058632,68.04413349183581,86.6972306524498,78.28212460240914,71.51881618676255,73.13350880144363,73.01123258521825,63.98772100893922,50.649330143702315,41.34330951876383,37.30783442832983,32.90034214857685,24.08980612062914,12.967550476899381,2.15865483722689,-10.54077181997232,-27.150412792085074,-44.78800305263534,-60.53006378912345,-72.16136754788003,-78.17303262380412,-84.66685583368564,-99.488093824794,-118.2124716672339,-116.27034447019983,-68.18679115894298,10.191808343153081,68.66633804948704,86.41819316501582,84.61064568915549,83.60204914520452,83.92399719366585,81.2082773352511,74.06411595272425,62.07521002815748,47.92239423965208,37.516491180524405,34.35017834843434,33.06299954510935,25.582373415890864,11.058788392574401,-6.554238555630936,-24.31512588466426,-38.88041337823864,-49.66124699501684,-61.741749071682975,-76.3960737416803,-87.06106102553176,-93.83853676764538,-107.59307070513552,-126.49183670224792,-121.66419451827677,-65.86277845810548,19.723905667777824,80.26130194744485,92.48612762687125,80.64689251679219,76.02274431440314,81.5491908737904,82.49021960073996,72.21093704975652,56.56987357439036,45.53488476181975,41.29204955727421,38.978102310030614,35.002179925016044,27.707194115378556,14.984424460857758,-0.9887833846845998,-15.580584412301645,-27.973136772224887,-40.8962508267107,-56.78338392511488,-72.27772497833094,-80.84646555974612,-86.15851330024353,-100.53687416297616,-120.0775547414556,-110.87843577731032,-50.01015412936542,28.210378724781584,72.93579689971439,79.32671299495621,72.0938005916184,67.15638044504712,65.98268946847499,62.25428193019089,52.26886355960966,40.954784549120745,34.58956460993552,32.66822861494616,30.270264842921115,25.621874468853317,18.120214042672153,6.230008097651762,-8.347289900622295,-25.416422403199817,-44.52991696556132,-58.90736947394261,-67.44124749657912,-77.48580768275616,-93.24219344662868,-106.90974090159698,-94.23540991362472,-40.053212476277736,26.571355588397008,63.0305023049626,67.372939836516,64.92968573315466,67.1266784789743,66.73922782197505,58.799524150500666,48.441132530299605,41.517636137340375,65.0,107.0,77.0
64.46358507882209,55.30739669390555,49.92058892985425,46.222329523934185,41.19941930985318,32.31815768020354,20.01575311074708,6.092845640965198,-8.816274373821186,-23.630346854801893,-37.08799057979625,-48.69147692909226,-58.72039747031334,-69.35278379102932,-80.35607181118266,-87.54701797661151,-90.08267596253634,-94.72861044604451,-105.7396233139415,-106.20072027736069,-66.25584439636206,8.430790327119105,70.08912214177111,90.55482377967624,86.26850219040968,81.84473967959316,81.3710718253535,76.79309361692175,67.07114479476527,58.35901765928239,51.83626171428175,44.993784485418786,39.337122777357244,34.28381443295376,26.921563784494555,15.500797944323223,-0.17343403759776302,-15.846569375339431,-29.030279625620967,-41.7251902673029,-54.08846514728645,-65.18315235341097,-74.4647102375056,-81.63599120611394,-89.62617228523271,-100.72321713594577,-103.27340905791631,-71.1963817585903,-1.4464428350678957,62.94752249111353,86.67632385999912,82.57149803892162,74.96227667654988,69.81674911714846,62.61244361757614,52.29827843984843,42.656292423296264,36.61102871882351,32.9402308666892,28.299672653754005,21.58966426173323,13.71696634885268,4.213846383670312,-7.737415050650086,-21.499380571740915,-36.158250729438116,-51.93032642423689,-66.90316181626581,-75.77427131934908,-79.70871586267316,-89.8163611270854,-106.61899441571525,-102.86710812857267,-51.07579818626615,26.864385781755846,77.98015708573757,85.55745956317699,75.35647602439559,71.4324994175285,73.7940166775395,71.32487210256672,60.15658330915844,47.31010109368161,39.81275603904872,36.36240724808868,30.812616689504736,20.93309749456933,9.817318294583732,-1.1398727992553939,-14.993816772912385,-32.31752124392159,-49.60481716818705,-64.45066290897775,-74.3817581384368,-79.55432782938063,-87.94910113186906,-105.20650677868373,-121.24501221814654,-107.49336226473721,-46.5795985102534,31.081437152397502,77.52580648806753,86.6247927772505,83.91537220639322,83.80862016155066,83.54667787824603,79.6402272116832,71.0594159241222,57.98666422964696,44.24990910951138,35.920334110570096,34.204232343181125,31.747855915572394,21.946873475786727,6.135573138114185,-11.800273889680014,-28.99428396469857,-42.228923441425344,-52.77597657099231,-65.92733614650054,-80.16527211406911,-89.01301685789373,-96.68455655496872,-113.3463215760381,-129.23038675065604,-111.00990104503639,-41.8345373028448,41.85862134863804,88.36094524185305,89.83582669998022,77.81316841383968,77.17299023551529,82.85831098330982,80.61121046338609,67.76307807143557,52.60086720871824,43.774437957965105,40.65473005877214,38.070943529706604,33.33680281457483,24.618604400230527,10.467972914254103,-5.474127973185656,-19.30974953716014,-31.494979945661917,-45.17786420616001,-61.638127040623644,-75.58927388139945,-82.18812650131188,-88.9775295589229,-106.69195773975117,-122.19644175468315,-98.21834808462714,-26.49761510440763,45.83120418988814,77.74408900579063,77.60764493749483,70.14564613895264,66.6321690507954,65.48639478559764,59.93557408794135,48.78598918646172,38.47334767841354,33.7872217324635,32.19710473751375,29.141377485447972,23.845118307811163,15.118079526100956,2.196621917391328,-12.933442891331824,-30.95366881067738,-49.45788661002473,-61.70972417155483,-69.8587524655344,-81.48942925511297,-98.21286321799239,-107.21172040500333,-82.47580181331004,-19.828243153154048,41.24311331971455,66.56101017236753,66.37091249217487,65.21670202856292,67.7128537681383,65.13126241235652,55.7141560508127,45.97367927775129,40.26106241559238,36.75825543643217,32.31654789193211,25.270069923963113,14.147998869012572,0.7705457462757483,-10.605238035311476,-21.720422893473465,-37.49225738181904,-57.02743570174428,-71.26350189851598,-78.5961139592789,-88.89559675862517,-108.25412106397735,-124.77152286668765,-106.5600170482117,-39.78429777486351,37.68324671419916,78.91850560361314,81.76303331851788,76.617241680829,80.17603112822005,85.87709924570524,83.28129239001433,72.0667138706788,59.15099461890534,48.92145219857764,42.51924574930493,39.27805551014981,35.0040537061145,24.278534173144045,7.89947750686223,-8.088750350747203,-22.745141270333665,-39.24662255446124,-56.877556686269884,-71.0819380093348,-79.6360118156537,-85.34590000740926,-92.52236192057548,-106.59084707415035,-128.19033174942098,-134.99228972765735,-92.67683709668844,-9.212035951699615,60.12138600357247,83.42525450084891,80.84480021375087,81.24498418353495,88.89349483756466,92.63190119851954,85.58537048775626,71.72605602323603,59.73473264069768,54.555948739146686,52.82602669505861,47.251027248153065,37.480038522749794,27.61393868705927,16.424530848758547,1.9129756318246915,-13.356763336344676,-28.582427077337474,65.0,107.0,77.0
1.0176384586493887,-11.589942041468626,-25.64331762769997,-40.601715235985594,-56.550544468871294,-70.28050682754893,-77.02394703498113,-81.51786377776747,-94.67616670431607,-109.35163995393083,-93.0531124286743,-28.86690263638792,46.225524184099825,83.96311903218485,82.97365305586773,73.14450217671882,71.94264284825108,73.99111941276747,68.8269600019899,56.189448457496425,44.48242710773673,38.65721510334755,35.20830909469099,28.320040978370596,17.687718710829113,6.722505220601778,-4.703855666031881,-19.772128061210925,-37.462636432666415,-54.22392444955129,-67.95284487165618,-76.13030916225223,-81.22404510615749,-92.07236480582914,-110.97696538160244,-121.73822625092343,-94.39792361405847,-23.41971843198324,49.00657091606616,83.03667607856693,85.96442955074531,83.56829314148492,83.98493956676668,82.84731190962503,77.68134698755556,67.65110215177769,53.82232544308039,41.06091513221564,34.947853685467976,33.989140834564445,29.75317992928027,17.79692302641229,1.0503224422808712,-16.99799806733452,-33.30934742842888,-45.31167932054416,-56.1665413324127,-70.25476440088143,-83.39326604720432,-90.80234337576987,-100.43075231931954,-119.23061220462831,-129.024833958955,-95.67176262407965,-16.475365762217606,60.53475524062676,92.4111583384034,86.12626835109846,76.17071513691515,78.9043229150213,83.40687320773507,77.77196766726526,63.117168439188895,49.23876629074774,42.51986727480669,40.03560996926767,36.97895301897975,31.349213394086203,21.025549717695768,5.8048790182327075,-9.750138599630965,-22.881886810868885,-35.15085431768288,-49.74625016747213,-66.28977869713549,-78.18480393498486,-83.50337588463196,-92.88271693364293,-112.88331718319729,-120.81250544438443,-81.10708385178476,-3.002376425794228,59.67063685095301,79.79250922662224,75.39566345312475,68.60736287371732,66.34605279990389,64.57653773229141,57.088383726953104,45.38835159418815,36.520062203613705,33.258610346840065,31.563305682160685,27.8375481414645,21.783316812120894,11.732219679246064,-1.9854818338387004,-17.783508114094634,-36.58429638415748,-53.77952033772778,-64.13149777151844,-72.6103795142317,-86.00873618045561,-102.66610511018908,-104.55552471639905,-67.17997532955009,0.21534726422416028,52.5641288466122,67.87486136884881,65.46250997882547,65.90435787082505,67.80624481132078,62.8903775201003,52.622999534110825,43.8915520235478,39.19419257534942,35.65665965398131,30.621006419552725,22.502544648174986,10.292286228779679,-2.7927743267490364,-13.610806431039528,-25.645500468041288,-43.076823558561514,-62.05424241789197,-73.76169251804612,-80.79068244770212,-93.63037135442187,-114.48983508295476,-124.54229554399058,-91.4981714850741,-15.948887950836962,54.44840345649858,82.52752475515567,79.80808519710162,76.74602147308873,82.1650794204919,86.23156004532018,80.65519196383308,68.22337721408012,55.83605095521688,46.66354309994114,41.36419747184665,38.42622582232039,32.70429114622006,19.872070572626573,3.0358670943318073,-12.310175838436638,-27.24715838166263,-44.391596467813855,-61.537947870435055,-74.08053547234601,-81.39044598042823,-87.06279622649224,-95.62071413165167,-112.47398785872872,-133.36143008822717,-128.71505640965123,-70.76049143473206,14.75961704090264,71.44645415810633,83.76045541363372,79.9492846482743,83.11324233003809,90.88056241478814,91.71333299928908,81.90364873910399,67.72163769975356,57.518028006422554,54.05047858950767,51.81782588220006,44.650765041845645,34.56347084492142,24.694594831496612,12.50808522926331,-2.53498683949207,-17.719159784166358,-33.0381561298575,-47.6495659208995,-59.204723821275564,-68.9261148389713,-79.16419691966868,-89.21087043345868,-100.26740628930695,-117.55153426849208,-133.41069797117225,-117.17717743428327,-51.25165845141999,29.483848703859827,76.17050768993043,84.47517693292372,79.25257400808614,77.60999367323342,80.03916405987651,78.29565908761121,68.11533722411967,55.19575496656298,47.2603736577059,44.67887613420994,42.91462975622481,36.002562120199364,22.47300939579073,7.198007761592624,-7.274933462019811,-22.183365151859768,-36.40883759681782,-49.33271834044612,-61.05109548664322,-71.38716390093312,-83.7680948119075,-102.37738475127793,-115.80181647838661,-95.73669008143229,-33.42901684276449,34.726226026473945,68.31422123123932,69.7844900968932,66.33483304409953,70.17419978683877,72.1225349439646,63.6851356436748,50.39946079048545,41.22656150184286,37.52103278089696,35.62998730449843,31.979178117724068,22.948762570346723,7.491287847450452,-10.442569098892315,-26.692797512283487,-41.39587153950014,-54.66700882242294,-66.24193712758262,-76.92201049617681,-89.29993039636844,-106.94177557383081,-122.34834156524234,-107.56861562223118,-46.83499230206892,25.75830352038408,65.0,107.0,77.0
-124.99666043531283,-76.08575110951763,8.645036469113672,75.05471413736281,93.07821067179903,82.26657193903067,75.80114679672695,80.76675832392024,83.01338229225239,74.11503113551586,58.564108664179045,46.55020747175165,41.62541137431001,39.341458067710306,35.679365853477314,28.96251365810854,16.977092514568092,1.134207680276239,-13.79331347945227,-26.369815650136896,-39.02165535521565,-54.535559767068314,-70.52110794841082,-80.12595410039093,-85.1688660734465,-97.90090903287083,-118.2077387565393,-115.10354524126143,-60.411190414338826,18.95757993332119,69.6060775574012,79.80755410715551,73.09931556890481,67.51653135573359,66.12111683612962,63.12441487168938,53.84688022920225,42.26223426954676,35.08961246774787,32.85351586538581,30.726004245104733,26.364154928646077,19.367281270205865,8.025031137110105,-6.303119180752644,-22.939494493602417,-42.09458639690347,-57.4356629897372,-66.391556809825,-75.82528871337796,-90.91503656517268,-105.97241668098118,-98.369566948348,-49.06589929524166,18.797140065236324,60.466618331678184,67.72767997392991,64.97360720321961,66.75635440949134,67.24194418636053,60.16641720225245,49.69698659143709,42.1885820913823,38.21427879434299,34.422377126020415,28.671823302674962,19.356665376438656,6.357937082186847,-6.105166522520139,-16.715290484099043,-30.078939316204444,-48.84641585138891,-66.37112909647033,-75.81029918233197,-83.52833064901246,-99.1778701764994,-119.96323695462203,-120.47619984742906,-72.49483619468077,7.356855746290084,67.29744833665063,83.43510497875558,78.01829071576448,77.70981591047251,84.02238628208463,85.69189583181645,77.43053469205084,64.41967031580573,52.802424406736954,44.73964522850752,40.43625735836412,37.34125744129428,29.750083722790684,15.108774702009983,-1.6409175357717611,-16.489470758862094,-31.972880786531505,-49.557937136871864,-65.779440839965,-76.61123993137646,-83.01079598565201,-89.00340752843341,-99.45775192513764,-118.9015253880903,-136.4316666402076,-117.55801160762432,-46.286372194228576,35.9744261707565,78.7381782910264,82.81998739088259,79.83634879428915,85.41855931226547,92.224620867144,89.83311653425461,77.84590688441206,64.08818468923555,55.926707464411976,53.657281869227155,50.323645002700644,41.80032169968716,31.721967463592,21.558684833282495,8.320815432224128,-6.959904598997525,-22.104858598327162,-37.45247944047705,-51.34186531505863,-62.05206239537017,-71.81520519885784,-82.14160847397527,-92.08142961770507,-104.49796352590542,-123.31027306418227,-133.5581621834292,-102.72299264535184,-26.839970395198513,47.66351886930192,81.55703696395891,83.27340610701012,78.10560459418592,78.20216019163104,80.32826012378463,76.14310987651271,64.23881064400607,52.22056091293771,46.11552522490681,44.34994416104483,41.66164557298643,32.629002840184285,17.99647959386503,2.991132051245193,-11.53665834642038,-26.43897543107655,-40.253043080562186,-52.86980169282391,-64.13076749210032,-74.47735037247716,-88.55906442569729,-107.9063474404176,-114.62469998342011,-81.23417335514195,-12.019477156453284,48.77911162375796,70.89936869383841,68.24344433400834,66.83873748734818,71.53788847984829,70.75015364595016,59.86487291789519,47.09995558504645,39.72771281150987,36.956350131736556,34.91440160508137,30.06086712605559,19.051736778943326,2.31159916289863,-15.370369591944177,-31.05350358488321,-45.41202809446764,-58.16436587932923,-69.36017084668224,-80.13216463964075,-93.82021935312777,-112.52979089287012,-122.62312751972397,-94.17162154993294,-24.66436179745656,41.788140829450576,70.84565625107174,72.3217397743888,71.706140763666,76.52108809152138,78.22406590946534,72.70343949979035,64.00049289090492,54.7697815772733,46.69737056197635,41.61928787579651,38.13493279891304,32.31105280640154,21.30741687511469,5.560393483843423,-12.043800068581128,-29.768631440232696,-45.4066619656143,-58.197598956069946,-70.53867054207822,-82.32208544000423,-90.7286811003843,-99.38519063909405,-117.39373309074597,-131.66626960485664,-105.4652874525398,-30.381807708942148,46.79992972853951,82.36141587978432,85.7764930900912,84.15327110702067,86.77415786604182,91.32390836476124,90.62380536838543,79.21974039788839,62.458166403515094,51.60449214794006,49.10666965468197,47.90496508578569,41.96068175560014,31.876608027413855,21.12897653311226,8.184771042645036,-9.289025738506146,-26.68352309667642,-38.944551546346744,-49.76936384252962,-63.39090711489616,-76.96632821769055,-88.16838537715229,-98.14125731848524,-108.35848922313171,-122.46797139016287,-137.56687610239845,-127.94632640320434,-69.59029543776947,13.290853493142649,69.79107605123798,83.46425015088437,78.32022245419311,78.04515459450823,82.77992285160927,82.72393262618804,65.0,107.0,77.0
40.810551185434704,37.231659600291835,33.024617022919884,26.42173604873097,15.85908383721327,2.4936097826841683,-9.213679467834917,-20.060333427852115,-35.04139584811099,-54.523284313856855,-69.89554869460736,-77.69630462304467,-87.00724177345674,-105.32341639692592,-123.8086490487668,-112.00887804279452,-50.54165116609253,28.767159782277215,76.1286950740016,82.53526680654386,76.86342743354481,79.30535186843262,85.44187481593836,84.23995935607142,73.81176491189458,60.764764897921005,50.07289814043578,43.147027530875945,39.637681953946014,35.86034784527236,26.143104520703588,10.17811895965441,-6.098874640247524,-20.73721733034772,-36.9112642396271,-54.618344764702066,-69.5281790564636,-78.75268181338586,-84.59817901323146,-91.30090067801224,-104.14041691221288,-125.38090340773623,-136.3542235816323,-101.55127216954692,-20.824808725350536,53.463811508037516,82.58712686269324,81.43896946107407,80.6089879147563,87.83493379929959,92.72250954636218,87.09354249559134,73.64648717406632,60.970764266403414,54.88672115906993,53.15275890139857,48.32623971688566,38.84445920238015,28.917807933331606,18.121603806462016,3.9564155452636345,-11.344716534518737,-26.5304481113657,-41.7494518280229,-54.72927063247855,-64.83039193740355,-74.77669237414595,-85.05542059044367,-95.12723468960479,-109.40210313798877,-128.52071760065192,-130.0768000924117,-84.08500302724767,-2.615470939291797,62.06344595595665,84.16648154361657,81.60789334590082,77.5044256142926,78.99857212644987,80.03696785375658,73.27353117670532,60.368525032289234,49.80162146139703,45.3482779700132,43.95469934027545,39.82906333774954,28.748389460696636,13.534879372445216,-1.1649062078806187,-15.857817291702197,-30.58323745877416,-44.00282856196535,-56.29402680942319,-67.09683792558339,-77.88389322203432,-93.93984039128756,-112.48226998295154,-109.86617656309416,-63.406233507050835,8.564798054873261,59.25087371354043,71.34505449783899,66.98339698017969,67.97473155205236,72.3785672678453,68.4307427525921,55.90479376167319,44.31471731087446,38.62901181938022,36.4449384450818,33.9704107320292,27.60042237425508,14.640501559535574,-2.9306798869404402,-20.096887464264405,-35.32264361060249,-49.28622524949693,-61.528280870252956,-72.42559415107013,-83.58010519913321,-98.86438955829827,-117.56246834149565,-119.48681203465708,-76.94695570667216,-2.8513293602140513,54.34931122567774,72.87745894487891,71.5561787572859,72.79084586252155,77.73996706297402,77.2562206413072,70.3251894248516,61.340113839316246,52.20841447288103,44.90425453242048,40.608620367194874,36.8635305980118,29.718223608920788,17.129329041815442,0.5558294810013474,-17.21749510945425,-34.616372645146406,-49.30894723343734,-61.72301681250401,-74.12329214400472,-85.16023704297119,-92.73958700831356,-103.51903256366319,-123.39297392772974,-129.69786421430072,-87.5670803800113,-5.545413355282422,61.89599767382426,85.26804679021971,85.04651089215974,84.46045463291247,88.1414772418252,92.02764160297157,88.43729368248523,74.40434478022159,58.35209927201712,50.24070005653744,48.9974500827922,46.780235993711884,39.289788396189714,28.78623758356512,17.800402815168166,3.543115534284755,-14.666533373301041,-30.75503651189481,-41.907576437588716,-53.44224734186361,-67.50973928595113,-80.4264099840072,-91.11573962631797,-100.96328447552254,-111.85303122996964,-127.40299887213469,-138.90928867786513,-116.1265563757425,-45.82222485968017,34.06115446313496,77.54911752513343,82.49442473765984,77.29714607654198,79.36340298039723,83.54099204899298,81.34760825326927,74.01100192587602,65.85632707820649,58.95770131551146,56.36097257292212,57.85081762908844,56.14684244251856,46.15127672066335,30.834304453983833,14.606414672382396,-1.5009734960551182,-18.268838359815813,-33.92588214339962,-45.23662002389422,-53.81849714036827,-65.1714042323683,-80.18992582929344,-93.24502344905447,-104.42475226682973,-118.77254664203402,-120.5789833494781,-79.98718979501152,-5.334456329713472,55.05330974518439,74.17284822816765,69.4826243849394,67.47227826163434,71.96830123372764,71.82043342215319,62.27064412268373,49.44163600326665,42.5482440782761,42.13394734034673,41.925986150728164,38.20369891699489,29.99917377660571,17.399390996510434,2.63859207924706,-13.670618786455822,-30.856157126991164,-44.15561509780409,-51.685050053179104,-59.87099727915613,-71.77128024833547,-84.64432377986414,-101.35836140695368,-117.55141912568445,-106.23337160130257,-49.91318095522899,21.724055008862575,65.63351887532467,75.74858111539167,74.2397382796333,75.59833972568497,76.00133960004092,69.02635217050783,59.18896014688773,53.11722788128678,49.42481320231878,46.916117698622664,45.022146912883585,39.329328078950184,27.41490453905453,65.0,107.0,77.0
-30.98508663188985,-45.84729184176088,-57.842916658048324,-67.62037662812568,-77.77909870405128,-87.90566959889274,-98.52841249548256,-114.894094850414,-132.3599526922043,-122.30481041874687,-62.140995108447754,19.965509655170727,72.57299028575886,84.71660425987123,79.93374208676616,77.46232865851238,79.76416653843982,79.02518996995948,69.83511558580412,56.736906067288736,47.94208086825113,44.850634556334896,43.327620602016324,37.35764488896211,24.505420809481844,9.170412103043203,-5.3342432781810745,-20.194808143682657,-34.599296758552626,-47.670053109868064,-59.583563804021495,-70.02142736166186,-81.77461762699488,-99.69932591978193,-115.31313453200939,-101.12984392947499,-43.206625188777714,27.120553795526398,66.19848499805902,70.44192331617892,66.3607029057146,69.4648322347801,72.42081675093132,65.32080521144559,52.06702504004317,42.07849990610214,37.82336076243451,35.907627989832356,32.70124388843056,24.553536600564318,9.81747003867765,-8.106007467457347,-24.644774686044176,-39.50293512159875,-53.005010455322136,-64.77733501860511,-75.48942660616014,-87.39014594229867,-104.33743025938783,-121.29957865816914,-112.31898498316092,-56.785534074151755,17.311541313028414,63.37447263993608,73.24782946570058,71.17622509354587,74.25944745884196,78.42519535867716,75.71177984522976,67.80872306667025,58.657496267564184,49.80408811828219,43.391711041931565,39.653206472078196,35.29483196734269,26.64567282230345,12.606165361058704,-4.529285365587588,-22.37803887886885,-39.2126014772483,-53.00321895444707,-65.28005619871747,-77.60924088414765,-87.63599447285517,-94.98982460670636,-108.64786489935771,-128.38396885938016,-123.3569373454894,-65.95144134775066,17.85561844640377,72.90633027980773,86.23503597524846,84.43681551659108,85.16149829801793,89.55739452780072,92.07908938084385,85.28579252229038,69.4062960185405,55.001081016044765,49.49770230582699,48.77503214252401,45.16625314366212,36.36260360707315,25.707923672932093,14.181668482027025,-1.4906530103184774,-19.839518529874574,-34.341438564426085,-44.935604062700286,-57.3776497097174,-71.50195085226629,-83.68303799054088,-94.0001763483423,-103.84065915412887,-115.81095221600118,-132.19628013483236,-137.28699232450577,-99.91429719057224,-21.2004545722885,51.43823137187272,81.87037342536426,80.78315329965255,77.05594585323726,80.86936902866658,83.68565565784151,79.52575946530706,71.6269828820418,63.630498157610866,57.63093759851079,56.59942172843892,58.06153813835393,54.10470305359983,42.03081083043172,26.12381738728225,9.978319524000476,-6.280472185076725,-23.074602092720983,-37.70349110704729,-47.76038723279083,-56.61479421726117,-69.32435758170557,-84.3928094039094,-96.35693517819114,-108.33576160359524,-122.03347552378837,-113.96778895923913,-60.07696274922612,15.67782618227251,64.71942254352795,73.84793649254662,67.95119971685538,68.5286303405896,72.85117737194652,69.92294951870795,58.44371985034296,46.58749481803637,42.01067207138042,42.308500615551196,41.27003603099938,36.32546314420529,26.73831085244861,13.263379888725146,-1.8768885655647756,-18.693279321256135,-35.34048591156751,-46.75246594598636,-53.650538444720766,-63.056919614182476,-75.39795943192144,-88.88542452969561,-106.91133030345974,-118.56468340541666,-94.18495841782149,-28.54360835215466,38.40101866470113,71.24647530017995,75.4829027977002,74.24032445963513,76.2290401657923,74.77074097817582,66.05589756911036,56.99100375792578,51.94121422337525,48.5415826965426,46.44681150133957,43.9830533596722,36.47308796210622,23.16876095614993,7.719741327018128,-7.421669532090683,-22.38192824449673,-37.41577238786728,-51.34260451781761,-63.653350120308176,-75.08480865288114,-84.6838700160666,-91.1688731707708,-99.48344600567629,-117.06588965415379,-131.6889286077881,-108.4169443438677,-36.707795381265036,40.83218057402382,80.63918240497696,85.20479765667756,80.78153437338784,82.73984713049722,87.88223663285042,87.36838005738632,79.12700187599945,69.52038620382433,64.1020001131573,61.43172064803645,57.509328586549046,48.987766702927175,36.54266563253519,23.267318685402753,10.774737799784242,-1.2296604463031207,-13.582536789567609,-27.454608553033577,-42.909470829373284,-57.46375981914736,-70.66352504746965,-83.45643589317189,-94.30682006658263,-101.42984477930118,-109.09795373145568,-125.90233790204898,-141.88555476424355,-120.45487311085711,-45.38113267993051,40.67531293897339,85.62829538885555,88.3705785336857,80.7723608389402,81.47963561911682,86.01680892184564,85.48007632696121,77.52400965207026,65.67820227198969,56.36477453201117,53.00492985275084,52.171109736926624,49.167214569260146,42.67532755152265,32.53710954114562,17.971635158005366,-0.006748331864058266,-17.178732203364223,65.0,107.0,77.0
34.81032336356127,69.14148394314645,72.69932260307164,71.39270084010681,75.83826523052473,78.44774814170931,73.7269127442378,65.21423703311672,55.984959234068114,47.618307149864286,42.13136464713814,38.646173585255305,33.35086632934729,23.09633442450164,7.8262128499324,-9.664462351253167,-27.467119426270074,-43.51925032078109,-56.57171570605225,-68.87554782502285,-80.89888686339606,-89.79856913112924,-97.80968711953939,-114.54830269208335,-131.3102477082704,-112.21955914399734,-41.882056069953684,38.48903280601444,80.13442404554092,86.05712560875314,84.15091639661014,86.2026674158667,90.83699657168182,91.29932688432751,81.28942096450629,64.55757830452505,52.48581912398607,49.17529250787146,48.2692208810492,43.072308663746085,33.30297184506525,22.59771913004856,10.177114578005789,-6.79776867353291,-24.633620321377013,-37.548686582088536,-48.17779494092747,-61.47867830573255,-75.29459949485076,-86.7805628845817,-96.84084152555664,-106.87289427458786,-120.2681812656894,-136.2061789482416,-131.87995687055687,-79.86454094437141,2.8082202245218104,64.92257780079267,83.44198843076941,79.01181159244253,77.58454045775397,82.2561337623383,83.17247222020288,77.40008187781537,69.25170237951497,61.550481530298924,56.76221390900028,57.09478697042858,57.77512619111377,51.32858893289795,37.603788815877465,21.419109849795035,5.346997139582601,-11.13347027202952,-27.70174866473969,-41.049587847384494,-50.169982182131086,-59.783411867922446,-73.71714373066223,-88.25566322089678,-99.4541002781214,-112.6069835006255,-123.5205710247734,-103.13466029186225,-38.14367683689518,34.16370462612874,70.76633559360783,72.31840922284792,67.15271930382049,69.94961328488753,73.04435352176274,67.24853198310021,54.58177625331997,44.42827327163546,41.90308432270576,42.335334674143574,40.28064660117775,34.0530166100615,23.133287998375902,9.017163628582006,-6.549202000812406,-23.735252770326987,-39.34320648681139,-48.90981675800713,-55.89386492011479,-66.50972808034123,-79.04712587825854,-93.61133228361636,-112.11184216142873,-116.39506787544009,-78.31332331389297,-7.1178470834884395,51.90338656133926,74.35618962013915,74.88653553284723,74.62582602975222,76.54406547943526,72.83838513722495,63.08643109502367,55.189119687419385,50.86835164006251,47.78075944861725,45.97749969312555,42.488491774132584,33.09749445035542,18.75878009279884,3.282509018168069,-11.724803378031808,-26.751465108136692,-41.61328925560022,-55.03501834669683,-67.03551334321133,-78.14964128417475,-86.82572481234499,-92.95742168533805,-103.56838994763577,-122.94080968974652,-130.33383638185367,-91.61427487912684,-12.32219826781281,56.997398144654305,84.4830562099498,83.78700576498893,80.54550424774412,84.33372416621978,88.58531411387708,85.6233898390963,76.11526081545392,67.48435096761338,63.20892211134592,60.6197905414549,55.57863140064437,45.665431294760076,32.66983349594824,19.57037913222433,7.289606218643997,-4.721301356130537,-17.376570210928413,-31.845386357478915,-47.30327548447628,-61.34962241502417,-74.41907809308685,-86.90875727971058,-96.73450169860313,-103.16508619951077,-112.85391295054214,-131.91157830440952,-141.23658581653518,-103.43062800070487,-18.761379928733334,59.05426284277979,89.505126893651,85.89359209182922,80.01162711457846,82.87408962569381,86.62392669123541,83.87678972165816,74.23712704015983,62.45336320787417,54.82069792653553,52.76183579718296,51.64346031968902,47.65018164089275,40.14608673862692,28.810801060174864,12.976055004261866,-5.25158566055365,-21.418245168401473,-32.66110347590752,-40.07531483750841,-48.71935823091434,-60.981987092884616,-74.6560748947741,-85.77045732116643,-93.16646205194323,-103.70547626025834,-121.29676722166799,-124.96725425525794,-82.54211867765463,-3.2883858236836114,61.58421553146087,84.15368544819866,82.25149684390752,80.75407360383605,83.61893965967259,82.22969636898792,74.01410242729649,63.78808875403394,54.86559556089211,48.97342554039998,46.54927518034166,44.40624745084413,36.21877956530932,22.125925398777998,8.964700272266574,-2.5875621788408845,-16.031447490610926,-31.569444379406903,-47.02132194727596,-60.50896096747628,-72.61728764432229,-84.86313656094977,-93.92976478112297,-99.3867140478065,-109.76771521872108,-126.08272306241773,-121.20376961599156,-66.39816641143703,18.07044568776814,79.02259945845722,94.73377062305639,87.34405519788986,81.38680353661954,81.64472268092686,81.22078364005475,75.39187252952904,67.51474317262159,61.46522103823184,57.51171866364688,55.173191564111136,52.468291323489574,45.6487891880456,32.55321008592666,15.578686399724416,-2.2876292002049428,-18.220395031486333,-30.93542279957766,-43.18718714173554,-54.63536077558841,-63.43790582521069,65.0,107.0,77.0
82.04581163066342,75.10069489377652,66.9139676620091,59.70307255395544,56.380808127575115,57.643608417622765,56.831048484681446,47.90915136971946,32.99354172102488,16.74777857916487,0.6753968475204228,-16.021742437436842,-32.044935567261476,-43.9931422809004,-52.62658662365512,-63.375468349617314,-78.17037898968672,-91.74479694805804,-102.7697587090739,-116.92118781048961,-122.29535541237149,-88.15359073915874,-15.566294485584478,49.31705755575394,73.68673064893919,70.3548025365943,67.1912836291243,71.39126059965628,72.40800418593338,63.94764457618864,50.96080287973913,42.987146762672786,42.03965134960974,42.121715662039975,38.94248802953977,31.372296904157754,19.256305912647182,4.675922018152629,-11.388861072854832,-28.664357233729067,-42.77367831022237,-50.82229581174992,-58.52278997567677,-70.10012767240451,-82.81997028024622,-98.82865612319863,-116.24210052016703,-110.39326625873994,-59.37894218197228,13.104994194315868,62.05135831214293,75.60917167072537,74.37398337808062,75.27037877458426,76.32540764335914,70.32508190382066,60.33864264336518,53.71449675319119,49.86391883315639,47.159595124127826,45.38016924338685,40.45714071213657,29.28777693813515,14.274702698686099,-1.099633432307555,-16.036741044719726,-31.117723831450668,-45.67846784642886,-58.60234340330108,-70.3641740371056,-81.00573406547724,-88.69551330910538,-95.11690333436961,-108.57701632847015,-127.95816194188838,-124.82377974482525,-71.05180401781078,11.061356841380155,69.31236744668229,85.91594524858024,82.28531213334982,81.01438027938471,85.96322388787237,88.6274661818369,83.27377743286823,73.21544534265755,65.85757819558546,62.461802870442995,59.59489824677022,53.20587430492644,42.07849846782611,28.807121308985337,15.949645174682587,3.828333011938347,-8.262015520342066,-21.33625500801919,-36.33663208986643,-51.54936350916738,-65.15669471496625,-78.14757858395475,-90.13431536257887,-98.81997605587591,-105.15081513666702,-117.5811467430002,-137.2893646146902,-136.3735580594059,-82.04863493757739,7.162761343231682,73.0496446375091,90.42740307733274,83.40359673190308,80.11692040877406,84.3208035012736,86.63864439791735,81.66588825519857,70.7564979833007,59.610952611848454,53.79104714360034,52.584951563179395,50.850413342432404,45.840481629654306,37.304687823721125,24.68690923599878,7.7610093407250655,-10.310581437189022,-25.222834066302152,-35.00958620193006,-42.228002890577024,-51.93310100782254,-64.94542779916168,-78.3049928019956,-88.13490356488127,-95.45391043477251,-108.39753429528454,-125.41540646463993,-118.21825074826656,-61.47530103719892,19.14831623909296,72.30312723892375,84.75660830124369,81.161679741926,81.46698794780812,83.98569286949372,80.39311798274352,71.05341583771394,60.99577637153468,52.78808847564159,47.96817456753754,46.16833490336219,42.88049348059339,32.45446976749603,18.020408710807345,5.628768040886365,-6.1831022221546235,-20.39356485059952,-36.139174866528315,-51.16981736987461,-64.0299328971179,-76.19777956107316,-88.00532398609492,-95.62360119135516,-101.44342328933746,-114.5042146476158,-128.61393673690307,-110.76326204124135,-42.75253482305279,40.10329225365981,87.76275966982158,93.5761002101214,84.89207289151028,81.03927378599542,81.94312214546072,80.0738956553167,73.07193522046137,65.52983325690361,60.12059032565126,56.71628733514021,54.5718417409503,51.09735967428573,42.47225734929503,27.88993616123176,10.398700867661645,-7.223405600910134,-22.151108391722317,-34.4045434675131,-46.74664856272733,-57.3544392435035,-66.02479405070295,-76.86490059412422,-88.60570434590215,-97.07294396198019,-103.95402902944186,-117.31619427255781,-135.78335883934798,-132.889035875588,-78.74104749776457,10.059249274958825,77.5903712641734,97.12715435019133,92.30911573291617,92.43062144304372,100.40806044726513,104.259944717506,96.67708205020814,82.56927844829723,72.64312454142367,70.42610983432053,68.87668957077375,62.811033591352306,53.905047677421386,43.433969093398446,30.215464324458793,13.532336485878712,-7.086881236565919,-29.852393798358413,-49.90865518685449,-65.57247889106426,-79.49758025136873,-92.32059072754328,-103.08102739517028,-111.07334800497371,-115.07125704456494,-117.53833775117029,-125.84089903796706,-135.88143626234051,-116.09085822860378,-44.121484781179916,44.941863918498015,95.10886293419928,98.50199040583159,88.83027012482232,89.6642620284497,94.07326264082907,89.07399315855987,76.47560706752277,64.9746436045384,58.786254997756956,57.77951017095857,58.4062627626327,55.286034988796494,44.41263314264186,27.95792436685943,11.105077791484685,-5.3549273689850905,-21.80696742480932,-36.77098994254609,-49.687083603649455,-61.63322062996574,-74.0267304210974,-85.88884711082329,65.0,107.0,77.0
25.153003126036467,9.781822864867008,-5.4340561504968745,-20.373370142440656,-35.445085542610315,-49.59117739156632,-62.07562441541895,-73.61976844633664,-83.592908727489,-90.39588014944023,-97.91520258966779,-114.3022903139925,-131.13345132299582,-114.67862981829383,-47.88045422767054,32.15486660563664,77.86219060593987,85.67746623084274,81.12375149609377,82.0906414587259,87.37075295357418,87.9369464817876,80.49391866361084,70.599494817183,64.58827947404289,61.76461281922293,58.25564302760411,50.40798028712205,38.314057001556975,24.998476726354138,12.395112247108036,0.36972110493797505,-11.879415104493017,-25.48188346904205,-40.84696134633707,-55.63217872102129,-68.92873976943348,-81.80770303545285,-93.06748352690491,-100.63996513501294,-107.67678271000314,-123.15000031218011,-141.02380127667703,-126.64849405776688,-57.42325766819963,30.854231739482227,82.6166403544725,89.31443023042175,81.42314664553156,80.93169388089638,85.56743254467206,85.99973928001127,78.93088994346613,67.25271696092189,57.26304848213132,53.18094812774651,52.338583367540515,49.76686075437136,43.741130294952484,34.12523326577685,20.173393628332533,2.4443315211340004,-15.090666607094713,-28.56801923915153,-37.118737332965146,-44.62852836290865,-55.44428319814336,-68.94907620009646,-81.6266958075084,-90.2240711017779,-98.2637734022219,-113.65170582072551,-127.52693075619922,-106.91909807971615,-38.20431551278426,38.96687676049833,79.34226492480937,84.0837325221331,80.56719551172606,82.4050572022016,83.76406042194628,78.04534010213938,68.06212674042328,58.35679852243629,51.00631737885126,47.2431862394567,45.685319891402834,40.67987182353152,28.331514032263396,14.15661010535016,2.3460154188359033,-10.012538458298643,-24.88895267461028,-40.64793121557964,-55.10978527184825,-67.49780273167588,-79.7964258033046,-90.74508405053956,-97.10177909458585,-104.20244562130259,-119.56502363330804,-128.38626878375558,-95.70136728832735,-17.75247437555517,58.838294528236524,92.7628211610971,91.30078703629697,82.98651396382243,81.13336334685835,81.96977418511523,78.43769768034169,70.73415922958745,63.74165908348836,58.94221575522844,56.04041053496286,53.87136421425625,49.27484023108913,38.76532036033808,22.996206553713918,5.199544171626067,-11.914817949964014,-25.825690791096036,-37.93276045914586,-50.145855866779286,-59.86452447408464,-68.84722752810397,-80.37609356068931,-91.4856475551453,-98.91565656101574,-106.83153373055065,-122.79611162107572,-138.84335195841868,-122.97661278420921,-54.38679509898949,34.034560512468076,87.81876944046616,96.57985570830778,91.18457099789644,94.38392477375412,102.47548135856326,103.25187145630609,92.80021393940207,78.87374412634557,71.39704659750959,70.2902454828726,67.59963779363395,60.39915604207893,51.08192692480442,39.942504311889266,25.774857081022514,7.978635461191103,-13.635999273602664,-36.12076373472415,-54.79758654421891,-69.66909363042805,-83.3715194426946,-95.65722082605608,-105.73947655942847,-112.64697577284258,-115.6601490165779,-119.05756534557898,-129.49005812898238,-134.9857267896788,-100.28858240455983,-17.31770026693751,64.99587963040027,99.74741399761274,95.42494724106142,87.81785982874152,91.32889688881593,93.8165167529477,85.81145040488866,72.74431139396955,62.57954727132816,58.06287196905529,58.013061689690666,58.13618788498978,52.989112120567704,39.96971204497708,22.998741232382088,6.362594644183956,-10.155166422061862,-26.348048374759877,-40.68820440809268,-53.164900692859824,-65.13780994790498,-77.6537779659326,-88.72124886180409,-96.55038483875907,-106.7926668842297,-118.03851491183373,-101.76440009030746,-38.07349572626141,38.15207014196489,78.95997751354754,82.7490208036352,76.33060814339117,74.36141681109227,73.2119332794127,64.96243587787954,49.644840776931126,37.03487450562108,34.35290098137673,39.78385841767939,42.90390413561136,32.56475016430972,11.997757766923014,-6.447740924920911,-18.727821890686407,-30.236548727932977,-42.70762157007802,-54.56528826758136,-66.47855933176831,-76.63403823382829,-84.4862635983898,-96.80215138298506,-115.41226749647501,-116.4696226048598,-68.32432251519245,13.7665898863261,73.13548891996706,86.64204159681364,80.08812498118046,77.49848898120828,79.07858421295984,77.31864576991411,70.11468205330812,59.90210183236155,51.31666232481734,47.23599934934918,45.583944458592796,39.90452224608833,27.87365110913841,13.655515952910488,0.28741264173059355,-14.028339217391755,-31.496575016397127,-49.04025253599371,-63.25799440839585,-74.82883245900153,-85.31553911346992,-95.05794233498503,-106.11746203387759,-122.33139885713014,-134.8467724073515,-114.86822390355142,-46.68004862876085,34.65527937223075,79.5192832283857,86.09333568026001,65.0,107.0,77.0
-19.515185337252323,-31.46409907619893,-39.134467490253,-47.34949216718756,-59.19314507208646,-72.8906982777478,-84.55633547539202,-92.2163363057583,-101.80113953205192,-118.99470143335034,-126.63623326799834,-91.16145179879253,-14.190908775441617,55.33045967285601,83.22833437572346,82.84772795476857,80.56716590280695,83.29711314444594,82.86934891380476,75.33931063008691,65.11638073558913,55.913599198352905,49.541051313139306,46.73596383955164,44.91288945745484,37.77639253903705,24.0753710212121,10.552014774999762,-0.9978618989788741,-14.081503181499276,-29.45592705322458,-45.045334976579795,-58.84532752012218,-70.9876326989482,-83.30966935543067,-93.02702559773137,-98.60601302969013,-107.81489569417029,-124.27377170455205,-124.46018039667767,-76.45079544107519,7.084656149940692,73.61616665208291,94.6744329114559,88.58944593971442,81.74058378981599,81.46889424718822,81.57287226991087,76.41488686522163,68.49386534471367,62.142459724105336,57.92686589690669,55.440308090178746,52.97585129881368,46.92314270585311,34.60135823232928,17.94459172419477,0.04896581044126678,-16.304795066264855,-29.339316481551663,-41.52471851866134,-53.28722973986359,-62.299078463107925,-71.94022509856988,-83.85377133838455,-94.00086540861082,-100.75928488360613,-110.48673117780996,-128.48307364904855,-139.18755826085288,-108.23408760452911,-28.19634105825885,54.751903558864306,93.97901039902098,94.94359857549823,90.98381480850774,96.7897937205998,103.86939795853374,101.21923925967069,88.61615929602745,75.79507500098609,70.74797447403415,69.97232637379712,65.90344428828477,57.837014756922834,48.11496894706421,36.1905923781638,21.034550114624835,2.081359283452345,-20.27698524143593,-42.02975196571949,-59.34710072940905,-73.69995913223276,-87.12434609885788,-98.81152427263072,-108.13687238043582,-113.85951824906144,-116.24244937451138,-121.29023786608363,-132.9465816087494,-130.54598268123726,-79.98316626414919,9.407046381177398,80.63077306962754,100.93787185269508,92.25614562747495,87.94144305537863,92.866320612906,92.56200623421003,82.11965050557856,69.29894143346039,60.676770944361614,57.73488232883004,58.26960830835028,57.41057583656219,49.97964732510718,35.195791966203785,18.110506409022747,1.6200212956200364,-14.941517526620197,-30.719310533293942,-44.441532466829614,-56.60022244352175,-68.71146131584345,-81.1691920851131,-91.21125582651693,-98.91817338173446,-110.70648042408494,-117.8135478117685,-87.76445498643102,-14.71709262144518,54.66679271377414,82.77577151984437,80.8569530755665,75.23026907780391,74.33642558862687,71.78663322796714,60.94340987801321,45.236933668731346,35.15888604346849,35.38760436266295,41.55498333314967,41.49780651878302,27.12868994506132,6.015353881424353,-10.473020066521679,-21.88728427647669,-33.85456517947197,-46.173878010286394,-58.01466623326491,-69.72453455365414,-78.9757046297963,-87.18911654971356,-102.01800421488048,-119.21952139911227,-108.22470088412675,-45.777103544674006,35.47611266603908,81.16099196103805,85.29330626539644,78.5478465937993,77.89691383574473,79.12949178795972,75.75090324769793,67.28416296672836,57.05915622100019,49.64918614810069,46.76236702357331,44.61959202030581,36.964429099259874,23.771284288458883,9.699141070489462,-3.5860092011550218,-18.78724651085031,-36.77945218572853,-53.52483030164519,-66.78307544980788,-77.93936946331827,-88.19042650763335,-97.91798925147205,-110.24482194403531,-127.33408101775501,-133.81915275208027,-99.60034814949574,-21.89241992409664,52.55493920438887,84.15220832709929,85.19327355372658,84.58909001438079,90.47651244269123,94.21973318242406,89.36228554234374,80.10169747052647,70.59579985486808,61.35073820782352,55.737407821001106,52.13662397326936,42.84200515254532,28.65847982680147,14.724887009080575,0.3141115898117748,-15.934786814652627,-32.46486133248974,-47.25251404735794,-58.64345937696166,-66.93775585937486,-76.52070187514698,-89.39081974196075,-99.37147484505273,-107.99803285724892,-123.04269798958389,-133.5173028134361,-109.67932240731669,-40.7016476169613,38.460019017653316,82.91005686362926,89.68985982859054,85.17054182203104,85.78544353578012,89.52192948993941,87.99126766373364,78.39434097819233,65.38697275232714,55.15015755505065,50.848352614185174,50.33041910800087,47.90864017196875,38.269254834960414,21.37855373778857,2.5262900832733264,-14.728636165853684,-29.6456714055983,-42.378539493396595,-55.33338107679185,-70.65378598130154,-83.8518362851063,-90.27601223305078,-97.44511681095875,-113.69297482373952,-124.2077186545621,-96.47425343454931,-25.183226215718175,46.33371989890226,79.39263896642875,81.05285501078104,76.13311458659756,74.25371434497097,70.79731327714289,62.427491468285496,52.273262099127976,65.0,107.0,77.0
-64.80754265686532,-75.27149047528707,-87.16631811358769,-96.16842260596042,-102.84262128090204,-114.98214078106282,-133.7354015536226,-135.8691676806415,-88.95524607704284,-1.7635494629748383,71.39759764320658,96.7489164283822,93.0667963861521,91.76760355129431,99.3063425947522,104.36959568676123,98.28227147947382,84.42386985349961,73.45994747398632,70.48480969163926,69.31768890875921,63.85221741487241,55.16839351242897,44.961539918502474,32.16559780265051,15.976604253019966,-4.132074688705568,-26.869469488467953,-47.52076349253966,-63.6476772798586,-77.68195342328309,-90.7211135340989,-101.77963195538652,-110.22568970895615,-114.7483750656099,-117.03579768686352,-124.26289603688494,-135.3796974635456,-121.7503878163233,-56.03663878785126,34.402299478001474,91.58721360045567,99.64701097376883,89.68586749052564,88.9795417823212,93.87359990365164,90.36339205445377,78.25317141318051,66.23815330706621,59.27129524823538,57.71432786628427,58.41525178602237,56.107724534751455,46.303896084052006,30.25401747740279,13.301672545224568,-3.1471854746190466,-19.66498193390425,-34.904569286439845,-48.0572936577173,-60.03714645662786,-72.34352898369863,-84.46749558371559,-93.43376408418737,-101.72613563645749,-114.45968506252858,-114.29598895238607,-69.72597066599074,8.240812942032896,67.33874900438511,84.00059274317645,78.81121001419692,74.62235606113641,74.1728643058174,69.5928024760042,56.4578629088985,41.35476198021768,34.19691667514993,36.982114779920124,42.78330026606265,38.7673047867014,21.104438960645258,0.5094317587070806,-14.023036915192414,-25.160353873777495,-37.493973343300226,-49.58503222825401,-61.48605450246031,-72.73871724398494,-81.16573361696017,-90.5188960619341,-107.65064731025426,-120.65862186249147,-95.22787585138754,-21.475241521148313,53.80281590639786,85.44829812120146,83.18166293540044,77.67225307486076,78.45219343732533,78.74609741863924,73.7382255352102,64.29403479791145,54.473108096775825,48.39736144000503,46.376840139378984,43.14084437446949,33.526426347316374,19.62216168872815,5.84402903144875,-7.632754807599086,-23.825102609811776,-41.9374912899173,-57.68993419598484,-70.137949502038,-80.98492439147702,-90.99861477985675,-100.9820888252497,-114.89902208259006,-131.59151283161222,-129.21017844196373,-80.28441959842935,2.560797620141728,66.4475174767545,86.14056091726667,84.33439056487362,85.8549407607544,92.25408733204326,93.68107283169238,86.82717141115685,77.3714761597112,67.79794673514859,59.218365323243795,54.84395703574261,50.23755282349118,38.95490621138153,24.52967669346154,10.732000994447885,-4.225807707765606,-20.775751875817544,-37.00248291246091,-50.93798473324755,-61.24770758943356,-69.31143217978871,-80.10264103342844,-92.79736843685559,-101.57289505480483,-111.63444455875208,-127.72444293461041,-131.39400484555327,-93.67881714750244,-16.480241007397947,55.97125798391502,87.72770371167938,88.4108167211889,84.64491908488971,86.91344129076612,89.92260632474259,85.93678902522541,74.69180251386614,61.91927297696318,53.28797211101604,50.528737288541194,50.10294488855863,46.00993456250321,33.94538484320821,15.894348320680729,-2.6803696493940765,-19.29137878986973,-33.499126919322414,-45.93463476838231,-59.5642408728177,-75.03547854272217,-86.32685381474093,-91.68542726317173,-101.28363943832005,-118.7047713230874,-121.3325842947829,-79.14478437798749,-2.0942397717741628,60.34651567387219,81.92700344403197,79.48150033675283,75.3496811188013,73.69873062153,68.83902809541296,59.44575974594831,49.75120169114583,43.84704067867104,40.28042719812797,35.41906904379639,29.44873700759719,22.292837706153534,10.62956637828238,-4.9852513002007255,-20.601248447132303,-35.359239362552394,-50.45585810571958,-64.88577429115965,-75.27516830148517,-83.56119136245314,-97.81419262028707,-113.82878246959365,-104.27892445111536,-49.213468265400245,24.161457196516885,69.04622198651124,77.60620763970265,74.13472431993463,73.68205037541779,74.78448502470319,72.58779345036015,63.656901682977995,49.74204040564236,39.068794886394045,35.19128483750339,33.41714879456974,28.545014196773945,18.57423326660647,3.9786530213588227,-12.230850365918121,-26.635098188859864,-41.05874798662269,-58.28155942142288,-75.13188370237098,-85.30816064419628,-91.42484046432237,-106.1786888733824,-126.83735272260809,-118.3359230763479,-56.67449924326977,22.21779353528849,66.77500481725798,73.67234567032955,72.08723858055264,77.5755189916059,82.59226498388898,79.11003687682091,70.84757396050642,62.25375566459586,53.079612446346644,45.367560654793536,41.553428090249454,37.815989574200195,28.75933427292963,16.36614338250114,3.7596661333917156,-11.967491361070362,-32.321942770816975,-52.499147470782304,65.0,107.0,77.0
-87.45917559288883,-95.54995828612138,-105.07914801917778,-117.29681947707292,-106.73328482158084,-48.546460341455635,29.36164863996976,76.13046726252506,83.41539154532745,77.01162796619681,74.39072490139439,73.64002477395897,66.59831340492846,51.78087601479696,38.203582125395386,34.115540965273375,38.88708798108059,43.12390999481012,34.77707888321172,14.857276938987898,-4.396549669806423,-17.274680574295274,-28.599945868802116,-41.08174012168653,-52.987900794881575,-64.92540893623729,-75.47120139807961,-83.38675973844565,-94.63246854074097,-113.14064644336102,-118.73134321585097,-77.71819172873262,2.9329353151913105,68.02969053771872,86.77510963872197,80.9895347759044,77.43300415875888,78.93501377756056,77.88166516902146,71.33438606774212,61.27101828159434,52.224130088424296,47.52859665882373,45.893284174616504,41.0664636228836,29.716510410753717,15.517095622797733,2.0430205815710956,-11.939755923795069,-29.05454713302744,-46.86556431462641,-61.560537952018514,-73.3699925321733,-83.96522772873162,-93.77275173326753,-104.3920970795303,-119.94954256311512,-134.3317725190149,-120.41933225190695,-57.78535190136017,25.187611208763396,76.2716610001789,86.3556020161226,83.93949931684952,87.60089357895487,93.56228735972599,92.37117431118816,84.11932607692567,74.6410951883567,65.04749641619496,57.50789999818044,53.95548553651718,47.684153920280764,34.81349021366093,20.504773737570012,6.622986534467936,-8.915693105962845,-25.587025551905814,-41.347043894370024,-54.30512755679938,-63.62692687926627,-71.95804336132828,-83.90270879464371,-95.76789115460245,-103.87077199469536,-115.96134210392809,-131.46777966773527,-125.594299124532,-74.03651686821446,7.277117700498752,69.71420497928521,89.8483718960218,86.90165339865149,84.72915925948911,88.119026377238,89.67646011901313,83.23565458070155,70.8658110297242,58.822736477614576,51.95543685436217,50.41852041735965,49.56264015736464,43.3962696951452,29.09351141765819,10.397537942662948,-7.712272011071242,-23.651176496251974,-37.181221919938345,-49.60277612034516,-64.01175373976551,-79.0392277015927,-88.19902019733445,-93.4882419775246,-105.98132508817122,-122.56547347881323,-114.4156925371996,-58.568093178468104,19.56479338671795,70.61166586902515,82.44675851524141,77.91648210607629,74.8399459856091,72.83161509717482,66.46328194979252,56.43762609775395,47.592288662413665,42.77766978437279,39.07626067991254,33.735667519542055,27.630222460962866,19.493879734862332,6.340981698758483,-9.616478452651663,-24.90038554966441,-39.65803989221648,-54.83781590270329,-68.40243887692388,-77.54348187949653,-86.81560173859646,-103.10467402014208,-115.18110390790316,-92.84805217257892,-27.577231190602568,41.405932325552754,74.38375582926865,76.75550448422193,73.57411133784336,74.0659556730491,74.68252444454177,70.77196428668674,59.85080720986708,45.96653701836547,37.36511893994413,34.7412930795348,32.47858318027025,26.2012058086165,14.761404691127613,-0.746496280006376,-16.60639153458924,-30.61401710073982,-45.750226192948666,-63.493621903771185,-78.91821359621044,-86.99751648372795,-94.3237609402819,-112.58100682030427,-129.2980670137649,-105.55953600114486,-32.88151171293717,39.85975969073437,71.50767417631006,72.8593653831491,72.99149445963933,79.63431595269144,82.48100340065103,76.8966595216991,68.38138826816727,59.65122542469591,50.53059297824964,43.89070043558359,40.784533694548955,35.81314891542837,25.28771861185321,12.779182570888803,-0.274259595483098,-17.49372456837348,-38.45273923091347,-57.529022666618154,-71.77251526629333,-82.68251349531981,-92.38714134332275,-104.78126890238836,-122.51115628342293,-129.03417700921833,-91.88994198097366,-14.434651696679683,51.58592291023857,74.0320789769959,71.39647645923924,70.27345795061348,74.27873930644462,75.32749119070617,70.97115913525352,62.847446236637374,52.816203211709755,44.86366991178848,40.52674215320207,35.738157911918094,27.109038841937842,15.722461959430298,3.256062166951957,-11.005773439776199,-26.94601507841942,-43.522404121749176,-58.81003255958191,-70.5849709422911,-79.86566094835193,-93.86358974276195,-111.93901908015859,-107.66998294174194,-57.425726949116026,14.819540866790872,60.49823578408423,67.24279938569171,59.811282177116055,57.74027169755858,60.58257112634789,58.61379956854626,49.16253574990911,40.47006350244354,38.02706199733792,37.59909570790697,34.44155118075484,27.62715631831688,15.770565739002024,-0.290535952608259,-17.04310709242293,-32.08696849599854,-45.40105020750221,-57.69091018353409,-67.0190340793605,-73.96575503052047,-88.11221770369575,-112.48515989721282,-121.7491562121266,-81.10791882927664,-3.3180707595160253,56.16009740502969,72.37191205261323,67.67655979257202,65.0,107.0,77.0
85.6366235434741,84.21999031756478,89.57196946872502,94.19314031412286,90.42350876639509,81.36703390526534,71.8810473263817,62.45601989732331,56.21666323974458,52.813777265309234,44.49602458261559,30.593411826539995,16.546609773784,2.347424975079865,-13.706901635186982,-30.321068963081032,-45.45208864412498,-57.34713898644738,-65.89165796790056,-74.9871350351102,-87.70290025036718,-98.30945725294467,-106.55914097828429,-120.77276935467275,-133.44095603746214,-115.67904546309953,-51.63578488280437,29.24543110160497,79.5920943019737,90.03861716128294,85.61042716913178,85.35441223680357,89.16121454989036,88.69623680353084,80.01346111933354,67.07831886575818,56.190149866856004,51.10298232109579,50.37223538847578,48.56204912192974,40.049444058317704,23.868243019322133,4.980267148195037,-12.55869363965822,-27.802226895144475,-40.74949741896799,-53.468623409453,-68.5653544716939,-82.48402791020419,-89.66130122868974,-95.99341155940918,-111.23012633228113,-124.34526883238463,-103.13320984737567,-35.92808527877328,38.64070773380166,77.34558660266612,81.66877977932869,76.61345284570065,74.4469592606589,71.54561229564081,63.756301066976384,53.53806331082485,45.82183865788166,41.79566727386228,37.700520178671255,32.008823793054994,25.664703252416434,16.225704948324253,1.8114118741200016,-14.158855275631016,-29.150589844731094,-44.016168587782516,-59.09929547801389,-71.4888436736634,-79.7889027719692,-90.78702092576785,-108.21378688534865,-113.51647928437899,-77.43663769437987,-5.630748319940992,55.26883904342167,77.03863550720551,75.59147453269615,73.40164173539908,74.45625678606864,74.19343145425758,68.32509562197285,55.75298173772789,42.70183037749916,36.20336626495727,34.307055719919276,31.181632614709425,23.415808580683,10.586370254970083,-5.493405402233802,-20.780442982824937,-34.699987850583916,-50.710100748030705,-68.52165308131005,-81.99977033437455,-88.5622492822576,-98.31079401168938,-119.09841104329395,-128.16276737293006,-88.21142486175587,-9.168971157290928,53.651685548535006,73.59794908714497,72.12894996688807,74.5726710737993,81.3169677112447,81.57993097262398,74.47705372094349,65.9213706438322,56.98255074475379,48.19890432431624,42.76763828718406,39.846652669200694,33.27866727009677,21.67392369265699,9.19500673807971,-4.693524338640601,-23.375271718728246,-44.40107078440645,-62.1194178216301,-75.17388925682104,-85.49541125509461,-95.44919336199123,-109.54017256366298,-127.00142140457486,-123.81997134427237,-71.86888916192751,8.267659708711491,62.466972274058115,74.36825875416784,70.29444352426343,71.25375467141558,75.15334233437939,74.55767914033662,68.94902739758044,60.010033571199486,50.11557825645733,43.34879368928628,39.416910089406976,33.666435635279136,23.984830801157777,12.234842219863298,-0.645242080514315,-15.48274474714564,-31.727892163442398,-48.18604521606005,-62.63358525885964,-73.30373781187953,-83.0644895743133,-99.3547726639074,-114.60185098295146,-97.87296252497191,-36.54323351395532,32.32692418668407,65.68285770119553,65.30008819945044,58.35032764072971,58.45296653750411,60.883150176740145,56.41121487866876,46.143680864793446,39.16249712805985,38.00340841027057,37.03435420210079,32.89325875101857,24.767934109780313,11.416814660188363,-5.205440613058148,-21.614101107892697,-36.05668207857648,-49.08687538840815,-60.81272339893856,-68.99149774433003,-76.81036305601009,-94.60555910226005,-118.5409125475901,-115.87976713571902,-60.21450864944907,17.970992312843535,64.88117665457261,71.70791802405653,66.5818948373462,69.28760467721293,77.41188568670111,79.83342837853462,72.23872645053584,58.783337631919714,46.29284571894193,41.61528293270396,44.52071284400937,44.744834656635135,35.19736987043888,20.019265733025254,3.9893055988438815,-12.604635139897407,-28.298158406636055,-42.21507953662938,-56.71408863533099,-71.12972490967064,-81.89006295312657,-90.92087968117343,-106.41161240573578,-129.48013982109478,-138.77158507100395,-101.19024854861915,-20.487955913503395,51.030382763639366,76.74366415858037,73.06851260575702,71.55063530260314,78.90693004265624,83.700182264776,79.03250712701197,67.90706079402248,56.40673856338642,49.06910673000952,47.46282711932328,48.48362323487202,44.00953120436775,28.762682365967258,8.178031311668446,-8.25515354925229,-20.28192891282203,-32.86901340103339,-48.02792820716466,-64.63776232132012,-78.93902091474938,-88.1392698503555,-94.26375049984755,-104.32253135014865,-121.38933423598586,-126.34075400223674,-85.97717585347564,-6.3473705444708575,60.26594724911407,83.0860281634148,80.01955649463908,78.24115787156987,83.0335954190204,84.93827786933534,79.06976041001799,68.74175883845913,58.634403347462204,52.22942079283493,65.0,107.0,77.0
50.87255447114823,44.40443946409361,40.78330431489708,36.167637875928214,30.26299410505664,23.438605354779817,12.492216965015018,-2.834782628885505,-18.59204845714065,-33.39411838960796,-48.42079697150943,-63.13287877560177,-74.15940577419117,-82.26853180328757,-95.46621216934696,-112.4234415064605,-108.13669213953597,-58.696489929308804,15.241644558627348,65.51138285654771,77.73654104316837,74.52466691130469,73.54301010911617,74.72977168657441,73.22156025981275,65.25948247827954,51.60235153522636,40.06404993292225,35.44696365284037,33.74898191300458,29.476648238840763,20.19844004921931,6.1146979240738055,-10.143987023809911,-24.805277194074446,-38.991730216094346,-55.86880034811257,-73.16845897904544,-84.39793311321742,-90.38588624208496,-103.45796392486103,-124.79472466866704,-122.56360304339012,-67.2165428923258,12.92897708919117,63.49328365052965,73.89863248449035,71.93112290242445,76.5884466080593,82.3671294576613,80.00987207269428,71.99223037519668,63.426536179108105,54.299366472138615,46.1771085660689,41.9044446033564,38.5627156010894,30.272465374457365,18.033804974101997,5.519269890790795,-9.564996390246003,-29.47824989509886,-50.03421783954872,-66.29745612664496,-78.35263131382808,-88.25722481784906,-98.86816684155582,-114.76706020817916,-129.84767786817784,-114.1439983315657,-49.20751986795295,28.47367475890978,69.49227363038564,73.44646870169387,69.79625198063272,72.50272385194742,75.58773750661649,73.36403689345964,66.64855470540132,57.06886431984695,47.71436739752828,42.10478714264958,38.13265560453609,31.23404327913078,20.698418677307025,8.671182251862191,-4.728162248152778,-20.075146506027934,-36.538828846580664,-52.67967438067647,-66.11412447796843,-75.89205324644375,-86.90784545898029,-104.97003886286429,-114.47401269869465,-83.94485184385894,-14.984764062898977,46.49598159048238,67.8757817985684,62.93942228139083,57.605253220979336,59.3928666873764,60.52269532139962,53.65978568983304,43.456382462803724,38.40863436550367,37.96397921351435,36.18661646423323,31.02677327024901,21.441421835257433,6.781742170090846,-10.089664182757794,-26.002968910073918,-39.90956661790366,-52.69187488907399,-63.60141985308807,-70.85837635451568,-80.58175896794482,-101.84723294804975,-122.36975749366638,-105.1187951600377,-37.25062376266718,36.26338933402709,69.98981484505286,70.1416949129058,66.30371679148732,71.5773713328113,79.09141899843185,78.59188072582214,68.66911045074303,54.74572103116535,43.926667643536845,42.00298042841486,45.38678363935671,42.973551404670566,31.074182308565128,15.422551994063182,-0.7565367577879116,-17.34425140954198,-32.4220204432998,-46.260751030177126,-61.060162158728296,-74.6934957655006,-84.37163086822812,-94.38069954659598,-112.74623048772331,-135.13512655533367,-133.72439024392116,-80.53087012779454,3.6863352116583616,63.33241183734048,77.08188086829666,71.5308805968714,73.15483557123069,81.07670116728302,83.33165940072986,76.20975183555205,64.37538374890681,53.7269730742718,48.04011274469172,47.785252650102365,48.14142040163269,40.6912223822923,22.876830610033732,2.7682625570139625,-11.948395720035954,-23.70455780228348,-36.97419496212819,-52.812847268815254,-69.18870737537411,-82.14601429402397,-89.98240156007179,-96.4122398768451,-108.81310402164684,-125.63068900213061,-120.27843336049418,-65.10837410279815,16.607709444791784,71.27499021686236,83.40875754903396,78.66152678429975,79.27971417857941,84.30007533541269,83.98542160558542,76.32531619701233,65.60814941986422,56.32054110525134,51.15520355319427,48.56124588713713,44.11306751952647,35.55964715786324,24.98628857737693,13.090454445715668,-2.9203275350695104,-23.221168516250167,-41.41270731557156,-53.47067679614393,-64.73532077703713,-77.10702188735698,-84.39736835071668,-89.88197056778333,-106.43070562121274,-126.0003003645802,-111.57912378641866,-45.63354560592927,31.806264037091438,72.25342135354029,75.06970199279142,69.1503259678891,70.91550561722472,73.60315570866896,67.53993443902137,56.45344485710048,47.11303201297431,41.6574414546606,39.77637973617431,36.69597207724296,25.59877812773144,7.605489716179262,-7.858590884718917,-17.818373703864637,-30.328139758245054,-49.452091037703944,-66.64519310956632,-75.54727916961949,-82.40751850066097,-98.78227082584164,-119.47090401285365,-112.614157377463,-55.915705604007584,20.35649530423499,66.94827318336621,74.41589446688033,68.35401798573233,70.80835683555676,80.53868561010543,82.19330334785553,69.9769271814249,55.05230825976512,48.021796091237654,45.347088907951864,39.879598287444345,32.21640631489119,25.185042356242537,16.126890386625533,1.1918750964275866,-17.903809763878343,-35.27648811386098,-48.44919408224999,-60.601599315792335,65.0,107.0,77.0
-55.264905090679896,-70.11609506606116,-81.35010803393979,-91.05482125507298,-102.78276254777197,-120.1360713401782,-130.07439509311214,-99.8999018172944,-25.375326792429043,45.20207374860064,73.2157834307116,72.03714697476691,69.97975148770722,73.761126586196,75.52457792588685,71.80219954447229,64.09753402063579,54.13302576358236,45.67694666901607,41.0147513741709,36.571055355357146,28.475041648714093,17.309172623580146,4.997713479348908,-8.987956194608065,-24.760359493469082,-41.33326969347378,-56.94008297395239,-69.24769489464975,-78.55007830036064,-91.50393185467664,-110.02884564405464,-110.75310647109785,-66.44244038133826,5.834181723228953,56.9402646449344,67.81176412349298,60.69774877058517,57.55904996799895,60.2747287441887,59.39452926325811,50.60090122236364,41.27643409699453,38.081659169191624,37.76796947099663,35.05705417988089,28.794478622127176,17.65703704993031,1.964873627614206,-14.880066638003992,-30.206911281602693,-43.68205016074636,-56.15986512012854,-66.02104116951168,-72.8875219942034,-85.46951774647724,-109.24609350873757,-122.88826517289411,-89.64485362927647,-13.825966657337764,50.807615109622326,72.14687828877321,68.38923074579189,66.92932257552862,74.06974827270633,80.03055394281105,76.51737817528738,64.76230997352376,50.96354129251954,42.37418865525915,42.898702393807476,45.706237689166976,40.33248427595318,26.67067913650441,10.807352196405699,-5.56209302746773,-21.93706024750556,-36.4213427491714,-50.42751892265882,-65.31751369698371,-77.87085426832788,-86.8426764948033,-98.62064014284496,-119.59517408535652,-138.84957617896265,-123.96964540305575,-56.99241256256295,25.52193547351144,71.42959942661967,75.84166574353544,70.81267124705013,75.35341775499235,82.69901894817917,82.12128976687272,72.99189959765583,60.95754484621527,51.48081704023449,47.500533010720154,48.19213938707525,47.105981047919855,36.42187580797602,16.801106913041878,-2.101277628908503,-15.39100364825865,-27.280301631503242,-41.31226895853957,-57.65933292683073,-73.43860868788542,-84.8866151503785,-91.67558204692567,-99.1050298831366,-113.87098144002375,-128.07710374927743,-109.64401961786484,-41.77002010056791,36.973889959972446,78.42748449966109,82.37685377843385,77.93342909830076,80.74122694889711,85.05019709053126,82.37741656613744,73.33083716684845,62.60117015149623,54.38403884836454,50.31657839104067,47.65952246414532,42.02154879759403,32.599707581692634,21.771695624158202,9.014885156240624,-8.522887035648004,-29.04897833049619,-45.42057052642008,-56.50443280657322,-68.4251825202193,-79.93088385724032,-85.5780409984763,-93.20172707545477,-113.08176090416187,-127.06631035513692,-97.05651664370949,-21.71926078677228,48.34026751186195,75.78837017190892,73.04826043878602,68.82134149396151,72.22013827035777,72.82209694229503,64.473722437957,53.41196267868241,45.105589978406485,40.850165685222194,39.34589463601701,34.50003609510932,20.742958427258355,2.499924137103345,-11.08599493813605,-20.735851372577184,-35.38542704424395,-55.10001086254953,-70.03629930442959,-77.17931131156757,-85.85838951783305,-105.32539910439124,-122.01765011743068,-101.08901853617445,-33.40697065794969,38.27642807084425,72.32063362408825,72.72252297278683,67.7785243160315,73.48246849161809,82.46318159979381,79.8348476906413,65.2548557393196,52.1123267938163,47.20624453678041,44.18701974847974,37.70485834474623,30.12447493787448,23.00317243018833,12.47018605011285,-4.134510925610576,-23.340524223939422,-39.44006027848485,-51.88248618726107,-64.40454521580295,-78.65222761087163,-91.46456268665936,-100.8231826406189,-114.36782799880423,-129.37801648978595,-115.16122616151256,-50.561130727099695,30.29497349884883,73.29220703482899,74.98412529973164,71.09495603620041,79.02502930882069,87.71251382849763,86.81534199807061,78.14571050128131,65.93324844772152,54.957352743878836,48.461466109321854,44.05892032809669,37.999965779730715,30.328572645366233,19.468464666115374,3.258987302811779,-14.053906140714297,-28.92291203426848,-42.88273521070423,-56.850572413425795,-70.79905546550562,-82.81403954957855,-89.23836336342889,-96.01614206208535,-112.82546139405841,-130.7570777823292,-119.08520109135647,-59.268015034434875,19.368470947333524,70.28821980606814,82.94907548272182,79.5537809821859,80.35590466931001,85.09668025073566,83.32389506168639,71.16547784643681,55.775574312185775,48.37579792035485,50.768233178574995,52.73037922222807,43.633135452746515,25.672758029338556,9.225313312090051,-2.725777546940451,-15.045610081209333,-29.97782592039241,-44.77086663111134,-58.237740871215145,-70.33168861820327,-80.15244298371489,-91.77453232593257,-108.42852814603027,-112.81420204863421,-77.14150908674398,-7.326263146543449,65.0,107.0,77.0
66.99696749248713,68.38678975831213,76.44220916005267,80.10479670600199,73.726638584532,60.6794016086525,47.62867806076142,41.66905047300263,44.018118352204475,45.25256055142732,36.953752144191064,22.131398639218535,6.154201642971258,-10.389100472549838,-26.33728390751006,-40.379807931121086,-54.71227246573496,-69.36468009769523,-80.68843674223595,-89.5355362199763,-103.74911613565784,-126.47735023445979,-139.6454696964933,-109.41762540416592,-32.03249760484018,43.91278528391803,75.78768671685063,73.94453628934754,71.09164922988128,77.79746227334145,83.57753650092472,80.15685146934072,69.5373271858887,57.77054202396269,49.714343937628286,47.393515327054054,48.46673071200726,45.20689996507842,31.33009750071735,10.827556768720806,-6.425044462637065,-18.735975203903372,-31.054581821059376,-45.86634217894374,-62.465696756049425,-77.30384875805092,-87.19750735094541,-93.40065883853778,-102.49936897425123,-119.09484439714042,-127.71636008033184,-94.41991409017079,-17.452060171200586,53.8260667243139,82.2466441919282,80.77114565914621,77.9718085187923,82.33618036557621,85.13863395921814,80.21759776215521,70.20047176170799,59.818290232193455,52.82752648470562,49.60901011927264,46.48105232038495,39.58571510682355,29.548860599998577,18.418955989197997,4.504539593344954,-14.426221539453739,-34.4798741793532,-48.91745489034818,-59.678758837986074,-72.12742656478946,-82.14649638366234,-86.88149295911067,-97.76763152631854,-119.42711186099656,-124.18514269540964,-78.31541791947254,1.6250940520892336,60.92342493026577,76.70647411783344,71.06348430113607,69.27918610677607,73.24494087083666,71.18829729081487,61.203712675555344,50.63164679130175,43.44415958928026,40.31351085509644,38.639422027979066,31.479810877936888,15.470598669614537,-2.1359438755344478,-13.912692285714074,-24.14701289773258,-40.949944753316494,-60.28902838210795,-72.68522940019623,-78.9243175661244,-90.3759271377454,-111.82693824873803,-121.24781407226799,-85.22634461064996,-10.591776759104308,52.688623556069714,74.72312067301496,70.68871213592404,68.26471785484173,76.48704995398461,83.30019355250602,76.368915225141,60.71137210779516,49.96830137640984,46.53126178861428,42.670564859657844,35.44897737335629,28.119540398173818,20.525353284425655,8.258678414758425,-9.697423629436594,-28.474858713007087,-43.264812394039666,-55.34227316815232,-68.38597220978066,-82.73833753668534,-94.33657125230414,-103.922016236306,-119.47150758649487,-129.94681680555516,-101.31662075618692,-26.104268688394864,48.0346966954299,76.63974380924346,72.96684634145365,72.33195373375335,82.18037146023009,88.50403168314284,84.91658342840387,74.78561335536055,62.42091308234039,52.60364542394295,47.20370225485192,42.52669117359526,35.930832594988274,27.692723614088834,15.263162597849266,-1.9006828953721226,-18.587828313667444,-32.96050392285025,-46.92495198107757,-60.886774697371536,-74.67487229383937,-85.24450081510157,-90.60431150216439,-99.72903276978606,-118.97742556155944,-131.9270568926197,-106.41245320331734,-36.15774861208591,38.29876166347066,77.22187472262901,82.41126432031963,78.96545068978489,81.77863436278774,85.63044102963003,80.75844750589998,66.51418606925583,52.46467304236985,48.34650000362739,51.984240568526594,51.439997958885805,38.900886002579085,20.40626654521939,5.462414610234299,-6.017672941519826,-19.171911273528394,-34.390382687430424,-48.772037481907304,-61.92953771749526,-73.36668312033805,-82.98928095587564,-96.33094184703421,-112.32153848411376,-107.35727554533592,-58.884701378212554,13.026418067202458,62.849016313557875,74.97386664896507,69.52807614766283,66.6606691141557,67.40457390425271,63.80804929022061,53.45091148978925,41.89440263809452,34.594526692260445,31.274349016323946,28.06022126160856,21.99452999738795,10.97663327779667,-5.634310951217338,-22.607194918160427,-36.45383461569736,-50.50957043738602,-66.59628114614621,-80.5139494703348,-88.59130940758654,-97.21943553160997,-110.82026777659975,-108.95381943480362,-63.71374634732079,11.416404797754236,65.93446052948511,77.13464456334201,70.36047619057888,72.24837709266143,81.05114505332023,84.79972834858637,78.48043210112705,65.81443329135953,53.79728856272696,45.28856373512257,38.64165653842987,31.591082014467055,23.75081350706506,14.752086686037115,1.798552169209553,-15.447022352794297,-31.32742080397648,-44.816070149533076,-60.71005600573453,-78.48233856884045,-93.45775677595589,-103.97806999680382,-117.04003639885677,-132.3012632440991,-123.3841855617572,-65.52570062985093,15.960409424560872,68.31007074140948,79.0125822707073,77.31505499737023,83.11515096242704,89.32128937781165,86.12156043589675,76.13024226621548,64.26844866466067,53.369998452090805,47.055584813699994,65.0,107.0,77.0
51.61564798230556,48.91287315470594,44.9490609444811,36.87716454016818,26.439474819192775,14.841925219675149,-0.4723933186606235,-20.45665354864546,-39.364798207708276,-52.07291731342441,-63.08609312293314,-75.62500463062422,-83.78759087681976,-88.73255019730101,-103.49401399291934,-124.44467551134518,-116.6791773754282,-56.412634699508665,22.964743196355354,69.53395616937604,75.84011590452829,69.58283520574761,70.32290847667298,73.67073322351234,68.82320128675872,57.92522927408301,48.15027759823101,42.139804063821046,39.93725056844681,37.45475623674693,27.629722235490362,10.064017660557615,-6.190445152854704,-16.571991034162174,-28.215554750695993,-46.767415247049904,-64.81549746076487,-74.73850522611798,-81.13767095934175,-95.93238721895736,-117.44663323753984,-116.37775865388328,-65.77850376677077,11.091038137769598,63.310598168570834,74.87990719417427,68.93518053401162,69.79691060452294,79.37329676987112,82.85102633491762,72.10532432102141,56.67644200768128,48.512883852501915,45.7734877344212,40.822158430185894,33.216985685033436,26.128707845909823,17.629398000942356,3.5268247285353667,-15.330351643598048,-33.224675795455084,-46.84755528302759,-58.90734388631002,-72.51661807074366,-86.56323039844804,-96.9527269739245,-107.66256981768726,-124.36242366558547,-127.0667942623734,-83.1254064252724,-1.7619298655256412,61.49551043262213,77.14559471967478,71.44725526853941,74.60199978496159,84.95597963683059,88.39851341378265,82.47937814446753,71.22909904284973,59.13826318592503,50.669756964267684,45.99149698050975,40.80487827607083,33.75764280888823,24.694934736588035,10.604917861589051,-6.984547437003548,-22.897529757013462,-36.985944300170694,-50.96201416454581,-64.93207141273963,-78.29205905600497,-87.13599531514024,-92.29639327854167,-104.4564040094845,-124.74429961808605,-129.70884905151513,-89.61774761686148,-12.716849994680349,53.9300341758848,81.18336990700885,81.2411722842247,79.05676299724593,83.30821250122216,85.36857539696673,77.33451938481899,61.87321851098543,50.07648056305444,49.03578584238536,52.82462407369368,49.0360019307945,33.64592996096871,15.519758781730339,2.025183586892179,-9.493513087866294,-23.49686971529424,-38.70379709346059,-52.67676717740853,-65.48490360288427,-76.19290547710895,-86.16820768396661,-101.29592282558508,-114.48849244542905,-97.92733609559501,-38.46169690477816,31.280162510612275,69.74230157537258,74.00933459971961,68.03733392583916,66.84414242229397,67.0989606368788,61.370154208781294,49.906586864226064,39.24907944172721,33.37093311818542,30.510075252726864,26.681849470107394,19.42743746183009,6.628405880405674,-10.805659910792647,-26.85952744731327,-40.30579762163323,-55.0316697336788,-71.12108270071771,-83.37944201226324,-90.54542065789558,-100.98829547646224,-113.38619373875754,-100.85539888643468,-43.06006880159977,31.350475625817918,73.14310319225466,75.3830720327763,69.60068933098128,74.6550607752951,83.04965900078629,83.99280890230808,75.14545809533205,62.036868089118315,50.99408755221864,43.30312993441057,36.69785538169034,29.3902406343653,21.350784452237885,11.5581852723792,-2.929555822743704,-20.419278412293746,-35.257500362344025,-49.038023835104745,-65.83469721277751,-83.3064335455011,-96.79080313658147,-107.10710979093304,-121.89977095552764,-133.83886856853263,-111.73307306566853,-41.94961873301005,35.78805116364518,74.76044655366873,78.34877342807248,78.15682729844461,85.50349343026183,89.45077095707283,83.64344107409377,72.77653659927346,60.861280880799924,50.95640403503137,46.22419764219356,44.53320422701561,39.85573861193293,29.290956674441716,13.838939862497785,-5.466704508845172,-25.546140814652397,-40.71272352082054,-51.72784031070442,-64.55846905215844,-78.06886788997788,-87.02084259711594,-97.88791994018948,-117.48934077433678,-125.35454553511482,-89.92997951106723,-17.841794337081893,46.01489042052314,73.52115598083613,74.50975735351696,70.5619697125771,71.01377808902814,70.80922290154668,63.23308106569379,50.92414934120662,40.954032009347536,36.04079930079709,35.132643447694065,34.26205041625521,26.754653701936235,11.068374806175301,-7.186652548016802,-23.68293417584591,-38.28158495255716,-51.94759184092782,-65.84679849848636,-78.81862375992385,-90.35811917179251,-105.5771000198344,-114.17609157793957,-85.18237231243029,-15.996449707627884,47.69566791357805,70.60288492241429,68.1144741733401,69.47044140329149,76.23390009046278,75.72565357489574,67.16087494948363,56.91204544766589,47.879849155831984,41.37767780692131,37.437846510920686,34.004256912992794,27.882216078898367,15.308717343336808,-3.117559648556194,-21.565031030275826,-37.10536319399662,-52.075185277684234,-67.22865389717234,-78.81527731700297,-85.63976154624447,65.0,107.0,77.0
-62.62879320211809,-76.72106482792506,-90.0133956634499,-99.55045412240152,-112.11356165816163,-128.21741123151406,-119.97674748651278,-61.41495161756659,20.846673117831536,70.53174378525809,75.8739798949452,70.9291481522489,77.55453161095271,87.0392969222909,87.48060071808246,79.59814081548205,67.59752895974964,56.1860393697031,49.095547873301186,44.70293548163651,38.91654605795623,31.453463244326038,21.235489840872784,5.621049075882846,-11.878904411849811,-27.045083389154563,-41.019808410283076,-54.992509969903324,-68.96248836494938,-81.50426351999015,-88.62349033449553,-94.64156899335296,-110.04772350709985,-129.30833024203127,-123.44434247483956,-69.42766873083264,9.705185437200049,65.95601370656313,82.79936793830365,80.01409851591218,79.81861625816511,84.63413292225275,84.19010184545834,73.2250342620444,57.56594117530983,48.6866661485425,50.177156818168186,52.96996733403709,45.55806132007205,28.180845125017786,11.102212385167737,-1.2362667374052971,-13.22931143991556,-27.92725949792348,-42.88680702739949,-56.50164719884468,-68.85343003017924,-78.90143853822633,-89.86705242654979,-106.28127824113078,-114.0826021861267,-84.5396275165519,-17.11423342438964,46.60469170845702,73.59039381907738,72.27859353011054,67.08534919914904,67.16900745935733,66.2327339317015,58.40412548623023,46.45456622029604,37.044243448147256,32.41530168805259,29.646888406181944,25.021344731929418,16.38181818606749,1.8394222737964951,-15.81470847334094,-30.85292185801481,-44.29740124527433,-59.7119538620135,-75.30222343068696,-85.72685276355459,-92.83352262899508,-105.13775866243546,-113.85097074135558,-88.58230885806955,-20.844381075247586,48.20840485898354,76.75500521739669,73.09224719071679,69.95192473943222,77.33853567348737,84.36697253433327,82.30960324333277,71.45112426049056,58.47279143264877,48.49477718471437,41.40218514279904,34.68071366863466,27.134645387711274,18.82781989836914,7.93618833092037,-7.951878860381619,-25.100111542825317,-39.079166511464386,-53.572294552931005,-71.02843366406313,-87.76444488745055,-99.7820417215567,-110.71676527924592,-126.73047321214811,-132.42920834005412,-95.65880404718142,-17.65335601931215,51.96376740621011,78.05449699237666,77.55475646839766,79.79778289060405,87.55332886353459,88.67275615278103,80.7687488846089,69.33902270307722,57.61153778930228,49.01866124077894,45.677325121431664,43.7241053939115,37.396728567316366,25.26948581831823,8.607662635175837,-11.451235351131821,-30.59370481573813,-44.04824537105726,-55.08600253951692,-68.6981839710757,-81.1327426689549,-89.37536067259101,-102.93174153156625,-122.5815907480849,-120.33311701866097,-71.19782673525116,3.467621878216819,57.842089968930416,75.50917848433309,73.13495996365383,70.26294731540408,71.43241969130797,69.45834713234669,59.830430339375965,47.56980272433608,39.02611686109429,35.46167610066931,35.166557023736274,33.01734027019503,22.891408809236196,5.770138673071189,-12.191097461960851,-28.05690384808311,-42.27220413268075,-55.91651846772085,-69.82209677264876,-82.1128137286367,-94.27241821806597,-109.98478686594079,-110.83498050428373,-67.91739955631189,5.377364313541346,58.71586706184415,70.92033179134322,67.43001450405349,71.47524409425596,77.17369955929775,73.78094985287822,64.16995543882594,54.11769678499428,45.69403365051452,40.039856956281504,36.51134101227171,32.68909828463102,25.024524383137404,10.371396489883205,-8.700749651303168,-26.30754435909203,-41.36030633842573,-56.542630351400575,-71.13448410114681,-81.11310376820356,-87.54898667584183,-98.59566548496312,-118.0959509329598,-127.41311104716247,-92.54522303979212,-16.707782675932506,50.27252063107869,75.45081658585856,73.01773041835214,70.91164826340518,78.11307488876403,85.58479333885704,82.07521526447826,68.45049290128166,56.597487535040266,53.34065576505942,53.50661920837012,49.36059808663437,39.00338913996811,24.68130314159881,8.785161285480292,-8.387642012811318,-26.209223414010616,-41.95929224238687,-54.88726871561771,-67.2768758092232,-79.66294121576057,-90.10067375657559,-101.4637063306285,-118.53985773860796,-125.32038899314894,-89.92516749560264,-15.492963118375268,50.071016809202845,73.65079712929503,69.72589039992044,66.29695674078711,70.19557136708103,72.24308383281215,66.53860023892193,56.46198947152678,47.483001374542916,42.9677790628171,42.75351232369333,41.38833666914116,32.44081162491738,16.462374171262976,-1.045784807369942,-18.48915558909302,-35.36766427622858,-50.1814809855392,-64.00204414519128,-76.64332625501896,-88.79031272112047,-106.55400625538006,-123.24275024875342,-107.79984309933349,-45.52593917624746,26.07208562035141,63.23510762431579,65.95985915555228,60.531434195301784,63.136737661668086,65.0,107.0,77.0
3.841486654686208,58.532597560116415,74.97535223740655,70.35597974587432,66.68584424496765,67.3959686943029,64.72437882157928,55.064809928085964,43.25290925528048,35.274788689585414,31.619141106305403,28.611044708687363,23.03513014993546,12.807458053754592,-3.2433816690349113,-20.539686154173133,-34.6968283095112,-48.49645580350788,-64.4403102786084,-78.9986268234903,-87.72185091535611,-95.68474518990824,-109.1811751291961,-111.3304924088893,-72.35408063487702,1.4877392119512804,61.27398713948204,77.50203637559666,71.05352684371536,71.33093048659511,79.9532280950369,84.86701812928214,79.84252738137873,67.59549816381163,55.198723472530496,46.252930380109,39.5188146501711,32.58356036678438,24.831069777914596,16.10290416228943,3.8423013388795004,-13.091559339549171,-29.436289703134396,-42.96247457375471,-58.402032459846325,-76.16752583086775,-91.77134129680685,-102.63623278462315,-114.91747144311027,-130.86335633423604,-127.2294477102922,-75.7350357657456,5.81607388941508,64.08365495453262,79.05940773033117,77.21702525115062,82.00292503424762,88.95410337130491,87.08385942348603,77.63490165289906,65.865485157584,54.62697558609964,47.56948094394059,45.26075553678036,42.51173834498973,34.43575850151099,20.879277571032194,3.066020116690664,-17.373471471266463,-35.09479963222534,-47.165492753463234,-58.738462423420984,-72.74270434160044,-83.72422996881761,-92.2265280754883,-108.727583734768,-125.84572681625646,-111.02599044053275,-50.139827263755606,22.829500536735136,66.36526339150946,75.82321440512793,71.83288906826456,70.3876095371979,71.56357907355363,67.38969943276781,56.203839614275125,44.56973128827604,37.525051185735784,35.18092695825376,35.06140334752294,31.048311810529935,18.40393481907937,0.4346350900205647,-16.99790759957117,-32.29394147164585,-46.20956095223133,-59.93667852839739,-73.64098544980892,-85.34118688429501,-98.66503537379818,-113.27767932636795,-103.50082697998126,-47.80812533754478,24.840181963608924,65.92821715965454,69.97394065401724,67.61865430966,73.63661664226366,77.23102686803867,71.31114852043635,61.1758665983273,51.457220406279056,43.75425454808948,38.89103850956399,35.56661344220085,31.05838412905038,21.536549324278347,5.03695463801209,-14.119620090897557,-30.80573519373075,-45.656105414712556,-60.99202446301166,-74.61457364794404,-83.05886693615034,-89.86040382167353,-103.62472815898658,-123.3852408896484,-122.92515879485958,-73.09122218010116,5.900782541119966,61.980320776752876,76.19138161653629,71.51976300930293,72.2128589972362,80.8525921281719,85.96372472536493,78.74923203276343,64.30123866400456,54.819617179010116,53.442677565112604,52.96064025092514,46.947088691860614,35.137474588427075,20.19965916644879,3.970013015135489,-13.56816916381353,-31.087439634856814,-45.90635136009169,-58.426467506115166,-70.93288429392597,-82.91936119802331,-92.95088048465061,-105.93560296123803,-123.01378187326296,-120.3992722544343,-70.78468414237085,6.687251561777255,61.349874587946026,73.9103571264926,67.89064639921774,66.95433689460006,71.43093849668932,71.37457303792272,63.80572377876642,53.56447775519025,45.63259298705741,42.61360371628093,42.81150126255993,39.743905697737304,28.297001412039513,11.389301203009579,-6.06795798320845,-23.514412243498597,-39.85686508936687,-54.21548752138384,-67.85403859559952,-79.97957238734773,-93.15102474142893,-112.52750478289114,-123.60083803659802,-93.86876328470659,-23.302526161407005,41.25293737026645,66.52687096994175,64.10251599503896,60.325939108745935,65.10860481049565,70.29440951729298,66.47618194377499,55.53706951544748,46.79996024239141,43.849013011409816,42.61513372876645,38.07351419098419,29.158135962484184,18.27280260754992,5.786871364125247,-9.346256786473962,-26.649800732720422,-45.47423072015511,-64.03962461321382,-78.00342108965766,-86.69752307909846,-97.5325454032154,-116.1639031060174,-127.14330446538227,-96.95434894879006,-22.454722763721005,48.799236417861735,77.31306449161691,74.24914292552425,70.59142877278882,76.30411557574268,81.81649738500884,79.47268237845937,69.58431736772302,56.92864767141333,49.95284124746065,51.84939694261315,53.826615361973076,45.507049538229964,26.746772619769146,5.479947836160089,-12.977882214650656,-29.594855403578965,-47.77259958444974,-66.71736786258857,-81.83628714987911,-91.24556278228035,-100.96955424056837,-119.37952594551803,-138.04176891792972,-124.19441370282338,-58.85953154510844,20.948182004193516,62.499955075901816,63.6694509279241,59.26718546855319,67.47753118543515,77.60977918552702,76.77454210018597,67.08583490600557,57.38101581756671,50.12910205104949,44.38174555232323,40.5553953004959,34.482259342057915,20.049600305614934,0.9167373754552979,65.0,107.0,77.0
46.56391458835013,44.80400816412761,40.813591461964386,31.012584910975647,16.139154187173293,-2.732264289288161,-23.054730244492827,-39.051141251733945,-50.25941252065365,-62.67430012905212,-76.48805351631277,-86.00146759352695,-95.8816429532098,-114.79520573870137,-126.31574968377046,-97.48114295682988,-28.025569118574307,39.43198649127385,71.87173652034642,75.06629406214857,70.86000549751056,70.79103024905193,71.19340328684717,64.66960196047256,52.55893185323229,41.99226207565077,36.4230867906097,35.11879286088948,34.62621715600476,28.2906617660122,13.455186016196548,-4.816543410505723,-21.61384959536187,-36.41501971841183,-50.1325925021033,-63.98571755016553,-77.23846117092718,-88.70343966156425,-103.38926822142841,-114.53922830535821,-91.9142393482879,-26.124582054006613,41.312085883735186,69.76846648508243,68.64925409663354,68.71120929597991,75.5417920406326,76.39045122980598,68.51352989251515,58.2375217530098,48.96340477179392,42.070344856764166,37.87670699501532,34.53295071866207,29.00258993980339,17.41167439547964,-0.5254251796919953,-19.282597615583388,-35.13814497070454,-50.03122196983886,-65.3141757417497,-77.60425722545233,-84.82581956732159,-92.80714375313113,-109.34766314324253,-127.06015842629151,-113.91220592790417,-50.94556808344191,26.3157708935901,69.87283854888862,75.3765430105045,70.637028166001,74.27149675341883,83.27758265704404,85.20669784877911,74.76141672709173,60.644427934645776,53.79521868120928,53.6077135879124,51.90392492871405,44.03290793907593,31.016869436987168,15.628173773066532,-0.9662885226211941,-18.763155768594917,-35.71251488227325,-49.64549665255851,-61.988576665647415,-74.56189540046792,-85.95274188903693,-96.05144409166243,-110.95347051696993,-125.91241928584523,-111.17792829511143,-49.06335773910242,26.700209975570257,68.78232013012901,72.64807116093263,66.66562277963074,68.12943250948412,72.22534511054923,69.82086124728042,60.8579115550637,50.872905727173524,44.220357619901385,42.56559825694354,42.59205890048115,37.330646090998286,23.68545599647321,6.315172480825471,-11.1044097856169,-28.448365515914787,-44.153799533640765,-58.218815221893166,-71.55467322568488,-83.3552247778025,-98.17563750451373,-117.98829415547154,-120.30904166673226,-76.13146810915252,-1.7147337144208996,52.802775630336065,67.42007955817625,62.26750494024336,60.966787935194525,67.11670914695146,70.28413011732955,63.66068979196473,52.431891568244936,45.4456604344025,43.57427324881092,41.79079995510902,35.860484470302254,26.127805095757207,14.892299202242715,1.6908092236224204,-14.158755968723819,-31.963287951519295,-51.02297966629492,-68.7343197542053,-80.8515395468059,-89.17550072184912,-102.23675380718545,-121.54477948246425,-123.87036113766969,-78.55590809785181,1.0297884998477778,61.85940885392164,78.19865338161006,72.25396540296113,71.53012338541217,78.43169672323565,82.04297085843584,77.25746395267458,65.88301568517844,53.96427536677075,49.78829932647781,52.97571903097909,52.73177609617658,40.86265249237264,20.506674330345714,-0.2095280040376729,-17.799308663826793,-34.60662209245494,-53.345173029887135,-71.67596767990428,-85.04088016432988,-93.56720245901604,-105.2623221025244,-125.85489549416916,-139.02457468781427,-110.0784275932653,-34.49891768018907,38.18469075113,65.63980748660332,61.51104076354422,60.43733299270355,70.9971423959444,78.69211219270491,74.47117005298006,64.00812363826418,55.10261822146261,48.29165845216081,43.12144743752585,39.38083136368405,31.24741959600113,14.573746625508617,-4.106154837931573,-17.774705861594196,-30.448305589725358,-48.89038422861808,-68.12059247214475,-81.00133668970325,-94.0331304052588,-111.61822795596878,-109.757102743195,-62.57846788154261,7.7599571072211715,53.955530085833836,64.19961057908377,63.94996027764948,71.17800813974189,77.8994509704885,72.87097354002758,58.002478246608774,42.87666407409833,35.609408091782406,36.546257861669226,38.396706832548354,34.436307822580446,23.7924273985538,5.952198016460259,-16.674207059710668,-35.72410973834427,-48.41103164539415,-60.34881885573535,-73.55254233543225,-85.31536429217999,-98.34622662746224,-118.17060617760986,-136.6011121211346,-124.00384297932749,-60.74671773204542,20.960258777374193,69.10075497597424,76.34689530917105,72.75576860137836,78.06677547187391,86.04219600404456,86.33118831197103,79.67850182553391,71.11344793154939,62.75743521149311,56.310742246057885,53.003812032226925,48.514505530837916,39.17458439582862,26.433338118203775,11.235861496252259,-7.0648832368313865,-25.796565992464792,-41.647593828111916,-55.89210241796225,-69.55971457391328,-82.63254371128866,-96.14459793403756,-109.29775299484331,-123.66859501292326,-141.04116558996225,-140.16495816106672,65.0,107.0,77.0
-86.63390652345669,-96.56515008901944,-115.37699155141918,-128.0966630634368,-100.28311521574102,-27.52057566516628,43.56231394737651,74.35531561028407,73.80371580480801,70.61101360086543,76.8414573237201,85.0584084148451,83.30751710528207,70.44872637683699,57.6906325799325,53.38086479638905,53.61172658438556,50.29201077854959,40.67850497551682,26.712123247269353,10.967365206185837,-6.0220624259667375,-23.891471137653774,-40.05334799429413,-53.24983587787415,-65.59781331987126,-78.09078016813967,-88.81008911511313,-99.61774153756316,-116.19644810484968,-126.26847322056028,-97.57674878904513,-26.0977625730944,43.54920931996148,72.78117531289928,70.67807832168937,66.22910667717132,69.54489029951588,72.3998051962569,67.68291719757369,57.84075556163446,48.47168587571522,43.26205368499034,42.68666015331253,41.90731912798737,34.14780084928708,18.779645082930244,1.2711827728068088,-16.158964900098034,-33.228530145248854,-48.30257915147393,-62.190734811552176,-75.0750471910888,-86.97646804943442,-103.81397010159102,-122.08236540414991,-112.77243659868101,-55.585813202365124,17.944110673305534,60.72322449754447,66.65963660059744,60.91150845456732,62.32830883741311,68.84339051287002,69.36333893956973,60.431505795561115,49.75188436312787,44.55556158085966,43.299885664064185,40.58574713619554,33.31240480214421,23.00092151535369,11.346510982640224,-2.6400298003501055,-19.12861858301544,-37.3941938960508,-56.482347171218,-72.91319443627812,-83.32853235725159,-92.08228532566804,-107.65439290399533,-125.60450002828968,-116.27822627057549,-56.96487778552201,22.713679521442366,70.83089537974536,77.21161727015073,70.9007593590012,73.19425630450682,80.22364175180086,81.52461281504532,74.47015886528787,62.10579399887991,51.71387987238548,50.320987486795794,53.793866813729146,50.57727923321431,35.475951573122124,14.275878916775723,-5.595858895009713,-22.551269351480794,-39.82195269680836,-58.900908511255494,-76.18804296045835,-87.77832394933068,-96.15534013253101,-110.45606179001355,-131.88310422547664,-136.282968893436,-91.61611324774493,-10.446120365968351,51.19059324122527,66.00526681518296,59.83042737644351,62.750224182493106,74.21740362564701,78.66503029967703,71.63609731297257,61.128680004123794,52.99563094851844,46.57896970020946,42.03446903039687,37.83281017553238,27.206341234328445,8.927544717496547,-8.619952784150017,-21.120798627797704,-35.147026404735996,-54.84259133800325,-72.48679211396355,-84.20747122170651,-99.10939948900523,-114.73362681556428,-100.89574638055842,-42.41305972963433,25.113395909157337,59.842868390140914,63.900930513224466,65.23294164517462,73.8662445634362,77.81611986966205,69.22298523345313,53.20045228382311,39.77788696316564,35.25835153384738,37.38817147290942,37.973772482142905,32.02881663674856,19.41891346115131,-0.42136493281906146,-22.8792843262095,-39.87644244423048,-51.67499525919047,-64.16551145052993,-77.12934877709067,-88.65413635710213,-103.3071241781201,-124.6318705202173,-137.68022031765327,-110.61263893110187,-36.40514346112552,39.76091929175691,74.3531730498193,75.01102829987013,73.2779055207811,80.70940502615757,87.09220003125081,84.87588963727282,77.24607663929022,68.63537560189343,60.58199849494421,55.111186134482146,52.10568407746001,46.30653840021762,35.745120567914455,22.33105623558372,6.242791500055817,-12.648697890850919,-30.687908903603375,-45.82579037084086,-59.92284029803438,-73.35129414419255,-86.48310682956443,-100.0322518154422,-113.09281850030911,-128.6915526839537,-144.3653828236664,-131.07170061244207,-64.05717786712367,22.816521808055896,71.61994621114137,75.95790865519027,72.6279509690246,81.51991050595228,91.06785039140667,89.995810571601,81.93317722867697,73.15438366929638,64.96048854137216,58.74603689301187,55.811842138796614,52.02518516964532,43.890005352616654,31.31665115113325,13.336403243443971,-7.657101047118386,-23.440357182588734,-32.98758971508733,-44.48384251374508,-60.253982561921234,-74.77116595610741,-83.81619493404959,-90.96693024204308,-105.6142343903636,-127.13284949905683,-129.05344477622668,-80.87242462866051,1.313556757677258,62.85945725783762,79.05568187812186,71.92293709865277,69.85128414215805,76.00901620237265,75.92122962833297,62.95777242804524,48.26766020117654,44.37750673601625,48.24539843664046,48.180809663940245,39.641930878479506,27.091433711830167,14.30459806858252,-0.39224705153439543,-16.679883270602804,-30.900294159480815,-42.6914407646014,-55.72484982358094,-71.03193152257923,-85.1699352808205,-96.30817510901015,-107.47139366451533,-123.58158630439263,-133.1935249331224,-102.27197263653007,-23.31923908877887,55.433755390050834,90.66806616887078,91.52383771873731,87.72650145014983,91.63050878007255,65.0,107.0,77.0
64.17535408484876,70.00817653756656,67.56636188899127,57.06241328089439,47.603006762409535,44.016486431891025,42.88658576621193,38.96274261849847,30.511594924753084,19.787820288268712,7.5944009095518075,-7.1855874136404605,-24.244322540284383,-42.913124455477,-61.7296417756916,-76.52538876083234,-85.63055521915528,-95.63504689915825,-113.48134810335786,-127.37109150090896,-104.08652712964646,-33.49294016293436,41.41511786693138,76.02373706100383,75.25304233385665,70.46329866687226,75.28681653433301,81.46716674243548,80.27921955715034,71.21093183249683,58.48067930474133,50.306734878314344,51.31587491537319,54.00440132589057,47.343113990380914,29.57547469346162,8.200287077456222,-10.701801642499685,-27.344264450283642,-45.22936741312978,-64.31001662105156,-80.17996318263049,-90.18896903894357,-99.28162188948059,-116.43829578427248,-136.590013008713,-129.10571501150477,-69.73582404659524,11.72784471120087,59.86804030639605,64.6162293332115,59.15847386573858,65.87943503002707,76.75203436809839,77.58512619138166,68.5365439430645,58.50511259040776,51.01060892488115,45.03058013697811,41.03078413270741,35.704875341455754,22.44250029219965,3.3779503084593996,-12.620670260286877,-24.611459188639323,-40.427772897713275,-60.59222825270754,-76.23585149523203,-87.75401235717273,-104.49650397551154,-115.29261791342024,-87.88200832720301,-21.452915486731737,39.37008756041401,62.9807769991983,63.53566407050088,67.30006699994499,76.10902854916628,76.58943503701111,64.92516516226026,48.64214820575871,37.48208176120587,35.50943837062898,38.07310314544493,36.96221947700747,29.088414042530424,14.396677317827901,-7.049245471298212,-28.55786153191237,-43.545280063005016,-55.05935266833938,-68.03445811792528,-80.52886446095914,-92.24778234501558,-108.95837934085411,-130.55437205530552,-135.2528497012353,-92.84657806481427,-11.922463116350112,54.675267307173606,76.61110065359861,73.6507589998286,74.72959994354552,83.2261675436097,87.33644387963736,82.97006597324362,74.75972921412193,66.19175457387117,58.631282131287186,54.1715573592434,50.93726348499302,43.672383086115175,32.095919347552744,18.01304518409505,0.9770837567603415,-18.14624676782011,-35.3002327195609,-49.939467861077055,-63.89473999551247,-77.10928593863015,-90.39422811119034,-103.83912878818705,-117.10760083041403,-133.95094882085488,-145.28716517724584,-117.009471473068,-38.095909321063964,42.440154868584756,76.09754233120178,74.17000567561333,74.07163320816858,84.99962807243084,91.90941697562981,88.02624633612221,79.33642312341425,70.72145806702281,62.834170707696124,57.64544026840989,55.05676116220915,50.14341952163166,40.72810417974881,26.719496646274223,7.2545464434703435,-13.06225784782897,-26.53297332193868,-35.7858613400444,-48.77954704193279,-64.85565787374964,-77.97352390567494,-85.68475039286598,-94.07593026492123,-111.77603641536761,-131.41922825565337,-120.78577281224605,-58.37006098534653,23.368483433848336,71.8560073223607,77.84375345081364,70.10875148303124,71.30816759352884,77.26506073633229,73.28183378345933,58.14853298635832,45.832426540028806,45.21520804245473,49.0516337002964,46.49174485995528,36.157211793694195,23.422861591684537,10.354894908934536,-5.092205825539704,-21.1250692448022,-34.42778732237292,-46.17146519690387,-60.02459427870008,-75.39859839405362,-88.66188773968994,-99.26668438627824,-111.58528616384658,-128.3201996598453,-129.8460687934374,-83.08538065261517,2.212124938611844,70.62673785238029,93.05253293884873,89.89909624833341,88.09367424362718,93.59211084775002,98.04748546382964,93.43029691753279,80.7796101520888,67.93281718795201,61.713027760234546,61.20274010520864,58.0177769222036,46.962230599137904,30.48920284883454,13.342864404060323,-2.024616636995707,-16.37108769758938,-30.96265062825902,-45.147151644781026,-59.05276845341292,-73.50718643755357,-88.22363627212101,-101.99812185663438,-111.13970315675373,-115.24450849841595,-124.83856847678068,-144.63018054600815,-146.6115295419201,-92.80617083822814,0.9852518887302372,72.03358966729009,91.7016223254194,86.6352691035468,88.14077827087624,97.45722547482154,99.2284773641165,88.85187038970577,76.91307801575847,72.50050218910671,72.03275042447221,68.27480175550564,60.6284881148726,52.22401893162285,41.494943087312805,24.768023403919273,5.368336644957965,-8.790015534673495,-16.97107086604885,-28.065631778922157,-45.775629711253096,-63.333430445324375,-76.29303384714494,-86.57906920483808,-95.31557741673797,-105.64246955739796,-122.42917826268682,-129.58597119084772,-93.74083056162581,-16.99375426122683,51.573962223829916,78.39884490395288,78.33433294552307,77.75798252736821,80.7557356669868,77.24736152154051,62.94600665185327,46.38360551482486,65.0,107.0,77.0
