32.32587611101511,4334.864732373015,5522.097794145622,4649.695412943872,3933.2242365793486,3745.6204629657423,3527.0657918539055,3130.7958720706542,2736.3369362489098,2413.0660639286493,2109.4098136335847,1796.2573588959158,1484.0918281080578,1183.49581502108,911.6177025704243,702.5036466284344,564.6264407227138,459.0451741073919,342.1907930011689,204.1658216523163,57.30091899267624,-88.129634973712,-230.06990692398455,-365.31905406746245,-484.48547718828644,-578.0913659480011,-645.2171787732831,-694.1525622734215,-733.3912148034705,-766.1373950301995,-792.8743429710705,-815.7930248183928,-834.2202004017856,-844.4112268082794,-847.3780334770636,-849.5851955605789,-849.9818171879538,-823.6965528420736,-738.2930911805223,-600.2354066025599,-458.4839520452204,-351.3183878238032,-278.07782144251576,-224.06251377041139,-184.49054696818646,-159.49837715848676,-142.23628253428225,-118.7886546534262,-80.74154375814534,-33.241858141413246,12.600043010263295,50.995565085414206,81.7600705486264,102.1818452845471,109.82106858863139,109.9123337331061,108.97832344422835,101.86046153346679,80.85807682525902,62.43668396261924,87.55225020475693,171.75021649239685,275.6272122522313,348.5895812916963,378.1714451398617,380.21663060503045,366.7540531116409,339.7334870507627,300.7394238515022,258.10695772578896,224.43471307745315,203.30535858178268,188.51536684948385,172.90411442982025,149.84424781581447,117.04367013612499,78.48877786578393,38.22225819259281,-2.6095836062671474,-44.363000587773584,-91.38365959321024,-140.12977482979457,-161.26923846229855,-122.18198573442754,-36.276144786643535,43.71804349364349,83.45562829497709,89.43427599442576,81.41565970306522,65.78755172097573,36.70473682634568,-3.060679667488744,-37.18470596915661,-54.44757790044757,-59.1510046990124,-62.24879792273522,-68.87209461367253,-78.72769041332229,-92.54417700598566,-112.56258345057023,-138.3205282422081,-164.63376506648763,-190.89472496846383,-222.2407644883478,-247.51444025177227,-231.89620056898224,-154.90955988526542,-44.860502406518876,47.69417371702838,97.96254805976777,115.69734744703949,119.34296721735633,114.87269483376788,97.9811195361314,71.72163183356616,48.09617173593739,34.583358999477554,30.85917212498407,31.591097330767077,29.536927673538152,20.283817169705774,4.579930276044484,-17.54394013483888,-44.29175354532624,-70.4047360313343,-98.39319652464235,-134.88510543020547,-163.38768188225174,-146.03859318199403,-69.05752975951793,33.566610852464635,116.61291859706321,161.78245276306245,174.7287422790427,166.89924459521768,145.1248823332082,114.80329681321328,83.74579318308162,57.40777986471115,39.4085786259435,30.463734257514062,25.990646254305073,21.148868471884576,10.601630790943533,-9.78206700225134,-37.01804493612044,-64.87776904720214,-92.00657896202704,-123.48367656013089,-160.78571530322466,-185.64760612617317,-162.91911380183794,-80.09828998377178,25.174686970151082,101.43661527163046,132.30275725048966,136.32072562006672,130.25853324293467,111.49471911341917,78.69885762247696,45.58298797720833,25.708586216832163,18.89742236720603,16.628339162594383,12.119105295707257,2.488463775195513,-11.578206242826251,-29.225195464232932,-52.153676133326194,-77.61271402418201,-101.95757569165849,-131.93094231306387,-169.54038573709852,-187.56670935061865,-149.09683841492802,-55.096579539047426,47.06306029390127,113.24045405086906,138.669570255703,138.97440872515656,124.21479142454501,98.58261722782332,68.03450049791296,41.54135730262169,27.210321300242207,24.04317734937604,21.7022459330541,14.688737238698565,5.163335349265869,-7.230020798547693,-25.56744963507426,-50.15476641731929,-75.56892111719267,-99.41807481791164,-129.498588382447,-160.04603251531609,-152.73817643087668,-81.27273975946555,22.070049283754127,102.44572081807686,138.76910968826016,142.74387493103302,128.8390194073713,104.51009362376664,74.57010295461085,43.773914196334594,19.78485617717614,11.182315959150323,14.357582102818846,14.626557789500893,4.91038672105428,-10.228850572746472,-27.32988580559201,-48.2888741556713,-74.65789318883056,-106.62954187996135,-143.84648209751117,-173.5878427157207,-163.6684038318473,-94.00676543354592,6.366892166496141,87.2213182552073,128.47825829878383,140.00792748877595,134.167117385168,115.19656020545578,86.58653433694309,55.74002516999008,31.72601619004297,19.820797261743685,17.758626857211745,17.346841365722245,12.635771203079244,0.18066228035287835,-22.07495195889221,-49.129570860289554,-74.73372097289234,-103.3068111788349,-142.0753456281037,-178.32463334003526,-175.74159954636403,-111.20077476760866,-9.157967211436475,79.9320958645481,126.97583335748875,138.44325051955164,132.94447846059407,118.71954388160027,97.25946175085545,71.81829085235731,81.0,116.0,74.0
301.3125871523551,361.0955454494167,380.81543757771504,377.7127078709052,360.3519867414601,329.4862429272075,288.223288872397,247.02606055970477,217.22854612518336,198.71208128449695,184.39877304990867,167.242340219388,141.27938207599163,106.24826089957612,66.95493768138402,26.443787486036843,-14.450730441513794,-57.209347433252816,-106.05367301675193,-150.92461097064944,-156.72252419048763,-100.1291521289383,-10.228586132744326,59.68740672351527,87.7106077567695,87.91074531835555,77.86002156264897,58.986511858876504,25.722435206753122,-14.263019858750509,-43.99500335168029,-56.597834604685495,-59.82291994099882,-63.77150750751652,-71.41338483957094,-82.21072722906968,-97.61826637812862,-119.58585156618844,-146.09240593805345,-171.98240429436922,-199.38059995557438,-231.42928613658114,-248.84847523668253,-215.6558342153421,-124.21221610344898,-14.456340713500625,66.6180816403989,105.51960598707214,117.6171080942441,119.01981117955157,111.40565772040858,90.87300324064478,64.12600324128904,43.04556444010834,32.66483087374326,30.92788727815539,31.585765082288738,27.632023080507423,16.353051223433457,-1.1203288404438052,-25.03606977835067,-52.0394927911913,-77.87448212992507,-108.14783009299977,-145.50177474521388,-164.5967472712438,-129.20251661910424,-39.767962332551875,60.994597684091694,133.60389821309352,168.2901489873707,174.1950849604832,161.84533731306598,136.91850040294653,105.58278608541653,75.49383972980975,51.20529358713507,36.0319096716046,28.953314280332375,24.827502162087878,18.959823708765676,5.738983791395085,-17.239380057783713,-45.21120984369065,-72.64641895218605,-100.3819692634484,-133.97883366037132,-170.69697640946904,-185.39586070465657,-144.37833696199425,-49.42996455460153,51.80022654954255,114.59773973178369,135.1143869221207,135.43438635320277,126.47461577098997,103.08537304055513,68.37205853638412,38.20854828288812,22.730171539802026,18.153189566344917,15.750316370489474,9.89901712297176,-1.220280342745772,-16.237103172556036,-35.2935955334221,-59.52067628546554,-84.6815151157778,-109.56540588556575,-142.6081428276275,-178.62274116642496,-183.27497341064017,-126.15182130715684,-23.866371780043753,70.83623781204892,124.15799324791467,140.69131090834745,136.05093092178652,117.72798586019115,89.9096105721574,59.52820699349628,35.95075119587668,25.522705994286593,23.74082152459859,20.112183282688203,12.105208793339042,2.013648103293201,-11.8088194211015,-32.170302227233805,-57.71976684738507,-82.39598316885166,-107.13639797685117,-139.457351696133,-163.8672501023125,-138.3753281279205,-52.06571023020538,49.470286329777174,117.29017634903303,142.45780855321308,140.13496499677933,122.64981263738352,96.24202485235696,65.50898556784902,35.69024173414453,15.54356390515907,11.473331665620826,15.339607536762749,12.763429105246322,0.8210600653266473,-14.94920403737699,-32.86565411945968,-55.352711495829325,-83.2809347020233,-117.01754035612707,-154.3473942709312,-176.37943866386365,-149.3879935428183,-65.78538292007988,33.4230394593132,103.09535781388308,134.16488602721964,139.8004282286345,129.9439649793256,107.66479986748816,77.4953653468322,47.74863494115151,26.97964031797612,18.528110225328987,17.83169130029231,16.575085411053333,10.000553934897539,-5.307808221299246,-29.782170449800233,-56.72474929103739,-82.22739165579651,-113.46684889881051,-154.13609714591774,-183.2903473828488,-163.33524285942804,-83.38998355573415,19.920747593907965,98.11635362469438,133.07446833135717,137.96537970615896,129.66600971616393,113.1497013071244,90.15718848857018,64.27490075395082,40.68971291383416,26.430628336604244,20.63911433558347,13.969194026910639,2.519189111265618,-11.701852541791352,-30.345137393780718,-53.42048518047689,-76.69273590770995,-102.05502908832898,-139.35743136194995,-180.61932293320402,-181.77285242966903,-113.26456935137067,-8.363382824558377,78.08731916907388,123.8696064175541,139.48693405906562,139.61861543387332,127.33770188529328,101.7134487640919,68.81549133644978,41.37923214276421,25.82745612476477,18.844274503165952,14.797817606946566,10.671400572074758,3.3182251241841625,-12.206714346769758,-37.908736967833974,-69.21360219658636,-99.98026205122156,-129.99235453165514,-162.65915251811558,-183.26815590592636,-156.27992419405535,-70.15991284801943,35.8752802941689,111.04419487906328,141.29876028115999,142.34727681993283,129.31981404486095,108.84192195874466,82.77853394016506,55.93103989849836,37.26232340595876,27.94040244546721,21.912659944238353,17.892984188331635,14.054605195120896,1.9014325460671009,-20.954584434564154,-46.54556222864109,-69.86148712983598,-96.06371249918477,-134.46014330557685,-177.89252919365052,-190.76680412130946,-140.37937683206397,-40.17115548017568,58.840472081457875,118.82665396972531,81.0,116.0,74.0
-85.71208686487344,-118.72026694808943,-154.7020422963614,-160.9747702519463,-107.52702368043856,-9.583373461094046,85.84661982290783,147.30480274323804,172.39836676863234,172.18108854031433,155.73319848144928,128.15711724838434,96.5014148341628,67.72034688308018,45.79848638728751,33.36422389485531,27.673712956439598,23.53524858309402,16.13719349069538,0.0019119157577885384,-25.116967127584715,-53.3107553904688,-80.40023974311937,-109.29351586674038,-144.90393170029193,-178.86410161459065,-180.23268323389584,-120.9723502770705,-18.274807080545944,74.90335122311912,124.03890274834683,136.349795858901,133.90971067895546,121.40638721157467,93.62352249301463,58.47662759790396,32.1672077679649,20.689529248462158,17.562816493238593,14.56164672881479,7.212627158102362,-5.239993351814257,-21.21599080205219,-41.847503228289284,-66.95018161418828,-91.62550627565301,-117.94685731840954,-153.77555201374142,-185.07448605508887,-173.4693903847833,-99.15380889422173,6.564726492659397,90.86006340351935,131.9496955224123,141.02441696566066,132.00117716866842,110.42651852110711,81.00319390200474,51.60382176163581,31.540185156935422,24.609808755716728,23.20876311125452,18.121753397637356,9.389240529001146,-1.4426627333363782,-16.959363992828134,-39.25482182958755,-65.15753407717867,-89.14719997831418,-115.65487326972429,-149.00722026863508,-163.28570632179876,-118.48285914179252,-21.583780023207133,73.73170237650665,128.4166814863632,143.89968083738006,136.30167167018092,115.72257616983201,87.61199202682313,56.49475019441678,28.414286910365433,12.764632566138205,12.477995822781715,15.682987579051474,10.057329539167808,-3.5489346600404117,-19.81579556265787,-38.80346193821525,-62.87205138150775,-92.38720547677664,-127.82348927015255,-163.71575614539083,-174.89719126760903,-129.9892557904075,-36.24503554678771,57.7190227423969,115.60153805207557,137.7740297325494,138.35364798009272,124.66525104988241,99.44720626849802,68.43324084135519,40.54538963650636,23.316692719618104,17.913820152293724,17.81915860075,15.358534638380384,6.622962740334688,-11.625578052435865,-37.678115038207416,-64.10141546173138,-90.21557771698257,-124.59720099409628,-165.3854939737326,-183.96292762942028,-145.5533443186057,-53.550773657654865,46.66447502317887,112.46446596154232,136.65275620503073,136.4932350100518,125.71059523363249,107.02172084297206,82.81097155070727,56.89375273391165,35.40634906887451,24.24782578636827,19.180485049269684,11.064953090494464,-1.319881206048561,-16.50760437580715,-36.733169967566816,-60.25220019097394,-83.42021839152164,-111.27830955957631,-152.27756549305133,-187.3657059301713,-168.82385457124508,-84.02962065459418,20.31515801814125,95.42731100508102,130.66290120599692,140.7675042494284,137.42548287161944,121.23553755094672,92.42472246087289,59.8213387165264,35.67704091683497,23.208801679880576,17.554888340854983,13.709620467924129,9.080756856931218,-0.11900896219775053,-18.684153791163588,-46.68432234517279,-78.33811325276517,-108.51538190581867,-139.24707423375244,-171.27637470518155,-181.80251619106832,-136.5918938931184,-38.98496308556515,62.263702811255264,123.95513578507646,143.76021069561918,139.59636255035042,124.0471538886511,101.80468880339205,74.70514915682216,49.39873676486066,33.86662381066917,26.047701763525136,20.489014356907187,17.07149936117288,11.756286199227947,-3.8474134898728503,-28.464251166410786,-53.47952498767335,-76.67839746800591,-105.68696202307639,-147.6049949087086,-186.7186544847881,-183.1853117877131,-114.61064742269637,-9.087090785849515,80.82190931180084,128.25617191086843,141.90206906035766,137.90127282590356,121.41433023432782,93.10582922799385,62.016947993892416,39.508353782935544,27.44100173412627,21.34232277958935,17.956971418928,15.262195892413194,7.227858067969047,-10.35891270811894,-33.577686520289525,-56.9807190184997,-80.65567606917267,-110.7305226583065,-150.487394141068,-181.5794021410349,-166.8035990046593,-90.52337305632518,13.482872299696293,94.89962653343555,133.8554894159548,141.65729730997785,132.58743032943178,111.45826552128634,82.18331040326633,53.42328673008383,33.89600746286467,25.652860306770044,24.639061645435234,24.932926038947432,19.364497052600758,3.5831642210736367,-20.300324202408248,-47.31872462948986,-73.14238516718112,-98.4514545871829,-131.39494002047797,-171.00891324373387,-185.91804315953334,-137.2715301060081,-35.39262537323664,62.65117581320279,118.0269825747623,136.40406306239123,136.87538827898578,125.56520486599206,101.51456600305004,71.41556984094213,46.24268985140999,29.608307430383945,19.89899831767274,16.944471484912814,16.006071741181266,6.252986959107309,-14.515989955158926,-38.36868879713591,-62.65878306380117,-88.96996975748789,-117.05004879483859,-152.355590278401,81.0,116.0,74.0
15.824413325582745,6.536734379880177,-5.296228340831922,-22.712651998878638,-46.67332306178065,-72.34739730402653,-96.07909142638054,-124.9843041034143,-157.12123389619794,-157.39380108694138,-93.8768909848453,8.625895138873403,94.28741776409917,136.1908624869169,143.47789466793895,131.41084201158444,108.17138447434313,78.72432753908822,47.698634198871204,22.214822073894904,11.391611255706284,13.777412324625217,15.17473468953026,6.660219217927011,-8.092182826648378,-24.894373818509084,-45.18863451562794,-70.83636566182751,-102.01214083739825,-138.81749486780393,-171.10696858654913,-168.43920858493655,-106.17993967338307,-6.807876464078367,78.71945746727538,125.04722095190013,139.65050874240652,135.7466481238929,118.39534856789417,90.72344843141481,59.639198778298635,34.274434626287665,20.70065325860544,17.748929862155588,17.570972548063974,13.628687273458132,2.415318139563806,-18.649004936212243,-45.55182796456729,-71.36712772976723,-98.9622688335485,-136.47010266313552,-174.85220692893756,-179.58970603501442,-122.97580649528133,-23.06070525763641,70.2625647129776,123.16830402137181,138.2435295673082,134.22747606265065,121.0781447603209,100.42888247684876,75.30516017864386,49.87076759010709,31.069081826558676,22.615515567729084,17.39239593879767,7.785816152933551,-5.346727331429541,-21.775945629819645,-43.41686790337392,-66.98700625756436,-90.48278569336155,-121.7963717273502,-164.97583653646512,-189.36377946799445,-149.86587068494757,-53.184792001771186,46.25752849599439,109.26411937613639,135.40152034957433,141.01460274898866,134.1584654017766,114.01164522187533,82.78552075670915,51.611309328793524,31.005184805100985,21.154162161683086,16.39347744074869,12.569852343452293,7.120580363716771,-4.37303931708123,-25.99362603904841,-55.76262114098425,-87.2809165281547,-117.08213411888592,-148.7948862767357,-178.2225173826852,-175.39594004549977,-112.17429323355103,-7.560546912113751,85.0221791789443,133.24469554729987,144.28261881575105,135.945500708662,118.24032015327441,94.31933813746066,66.75912746161805,43.772106345354025,31.139609202702296,24.28331447759649,19.28096306701208,16.141131224005218,8.51381319298298,-10.408058591822284,-35.95097986938186,-60.19170511430381,-83.9660642869606,-116.55026776673216,-160.72144438360792,-191.86543608361345,-169.78679922524827,-85.57665902501466,20.483841212157586,98.99016203050196,134.83477315365644,142.09303537075428,134.45474457013782,114.24710637692559,83.80793861968893,54.33886433705627,35.107292841532406,25.276604393087776,20.139827139916616,17.29285958172154,13.80908769988351,3.09663466576582,-16.795645274761238,-40.439438722048116,-63.62359401495817,-88.32833564387029,-121.49142015941176,-161.87856267069606,-183.56206991292984,-150.474436104688,-60.89706603970204,41.00132980386699,110.3791362265442,138.5077669400812,140.4165720662302,127.62592052937589,103.53603834257967,73.36410306159215,46.585157012252715,30.462160603006776,24.863176075833053,24.88464304976216,24.236599101033935,15.868393742151115,-2.6913174300253324,-28.01011453163895,-55.025097332931786,-80.24411149125905,-106.80576857567534,-142.90992186079148,-179.92954740875953,-179.24142566695866,-111.17153094343139,-4.074020488294679,83.47557280233274,126.19222458852285,137.80541043716443,134.8880765760024,119.83613279477471,92.90915640873297,63.290417557182955,40.618511605339094,26.128483941901777,18.379924032701634,16.92705091244093,14.48186632878381,1.0960051903382644,-21.40374321801215,-45.23806467693306,-70.07323728698253,-96.81307399787521,-126.17522811697768,-164.11829164904807,-194.64529767208728,-169.43069125074462,-74.04033970998182,40.41390968437894,117.62462782056124,147.61721669615955,150.96772793971786,143.4331989176233,126.5968962048232,100.43658581271849,70.72867558355195,46.879987535540295,34.63483250097802,31.251814340174235,26.951443020273743,15.320719841519303,-1.5384178019259347,-23.834355785038692,-53.35208397828874,-83.79474900645768,-111.7615169233207,-145.54831572965378,-186.65513586453793,-208.12139117646274,-169.30784509820344,-68.9228442893888,40.19240101968006,110.19220116344452,138.62612301633422,144.9940760733264,138.3156733521294,119.03056463641337,93.0377826125291,68.06730943510752,47.47445413772083,33.66993679961243,28.333530509547607,26.30528290418203,19.527895760191747,5.172626413805355,-14.778219704673024,-38.26246986661007,-66.7616606944847,-99.08687313682728,-133.26042764140294,-170.87805239973656,-196.8278187284321,-173.78652409205574,-89.47704875056495,16.004230673615165,94.03768523521347,131.72967413131053,141.9271595661573,137.76786312687852,122.11053614738795,95.36763985253091,65.08630826615982,41.04715708947087,29.238148839891025,27.04300058240385,25.406659876504744,18.268045181584927,81.0,116.0,74.0
67.74316349740604,43.417562599454996,27.689183678045016,21.254139556819897,15.158691208725537,4.229508049418624,-9.621868581363904,-27.53375344958709,-50.254391232821476,-73.63372621982766,-98.19176016482618,-133.5795972272029,-176.26630997245266,-185.60825212505438,-125.76478936770847,-22.262613975241216,68.86980017726735,119.91456858785678,138.5089820407034,140.28562656284222,129.75850313616203,105.78762411450802,73.15401419802456,44.366793099284,27.270370454447555,19.505817645645735,15.295784633594856,11.313382258083264,4.659503228561499,-9.52270044282647,-34.01365866818267,-64.96966248652646,-96.0139556180326,-125.84654787402187,-158.36901048791623,-182.49003688970078,-163.58041007698978,-84.03377690246684,22.681059894103964,103.7710555180184,139.3853949672925,143.25454811545015,131.55780129144418,111.92298460789458,86.47555630112136,59.20772421031405,39.10374638065515,28.87827585661882,22.629453670369166,18.291764065709874,14.848063861954662,4.2282657565670965,-17.54364319696729,-43.25989537600722,-66.79977438426506,-92.0181723285486,-128.58775138435396,-172.89389468219744,-192.33854460766418,-150.82346511390597,-54.65896828564354,47.48067529059155,113.38852116864996,139.05281392198032,141.13466320985737,129.95728702552086,106.14349410931686,74.60815510450068,47.598180007579806,31.512133201819875,23.481344553076966,19.128014514057824,16.616772015952677,11.715265688163507,-1.8627030691301993,-23.529778171760043,-47.22119170028537,-70.34925417267799,-96.75077060335303,-133.04332181568617,-171.81218604869392,-180.7188143845758,-129.07106470003842,-30.25129095014286,65.51923045232502,122.25284042831296,141.02104999462216,138.01362163596326,121.69945816420294,95.07015855563878,64.8434561731205,40.69332411521556,27.93770535332157,24.54405959642217,25.090365301398023,22.859543046761743,11.477544580927455,-9.536265478742418,-35.85486695503602,-62.53731648927822,-87.40014223753327,-116.06646659411115,-154.75093285600676,-185.667517377279,-166.47675443876904,-81.58235162817985,25.328465349666487,100.26932217712391,131.76897941435803,138.113422090351,131.89909623036502,113.03493553776077,84.07713702387979,55.81671720887527,35.69306300116976,23.186283665933352,17.445858501222393,16.85936657105333,11.943303389776313,-4.871420302281954,-28.324477104786137,-52.192689718617494,-77.66555717124415,-104.79712413242402,-136.15740336601922,-175.57932114332323,-195.05750521894404,-147.78955404478373,-39.82539781989534,67.9461688864161,130.4596232276292,150.3149361407123,149.65207488681702,139.6104028347129,119.85842783986526,91.81827318806697,62.848429449376454,42.09530089610457,33.10022632158746,30.567831413481606,24.352975488046646,10.853816138912771,-7.247549779702204,-31.749255079658674,-62.43210988734029,-91.92132569377506,-120.47694881712806,-157.25212630560793,-196.79054049322315,-204.37561909582772,-144.9894043619707,-35.45934630972131,65.39029878018495,121.85150272687683,142.0090886116221,144.38806675931255,133.92135821006715,111.80858759270528,85.4927618583482,61.58586434847403,42.650066200766446,31.323678066081122,27.81134256439303,25.079904656699277,16.13562698201869,-0.1665222363657786,-21.180952012483708,-45.918553835987595,-75.88670372658282,-108.6884704348124,-143.87830676900097,-181.0433869683472,-196.74564170457373,-154.78161222677704,-58.61933435695692,42.72169289629373,108.7260572982057,136.767813394675,141.8771244425466,134.49867400055678,115.32204943931399,86.52259663527762,57.1260958993646,36.2944510468904,27.98055469444808,26.897322322374823,24.018881986810133,14.990833613423284,-0.03561832214262395,-19.528760163238648,-42.440311472290965,-68.78969748375904,-99.3844277164426,-135.54412728671224,-173.01968419804103,-188.4083586410035,-147.79751291910796,-52.08526917357494,51.00221496487893,116.72140851384479,140.14467765226692,140.78354247075472,131.08365573414832,109.19393010933376,76.62050762669031,46.281892616223864,29.774908940008473,25.61123670437759,23.437789169311355,18.229858894209706,10.806573612585098,-1.4012781754910453,-22.235943468469195,-49.44226696407939,-75.76297215810024,-99.71721019281887,-129.65836785026903,-163.545827612504,-168.61091350638472,-112.94054770811462,-15.352362391287059,72.38592224245711,120.20278536494928,133.82969081456073,129.82858500674539,114.06262835861708,85.94089737592662,53.159343811743845,28.979636034843825,18.55941269739539,16.82213866623107,16.537020807555038,14.133193825491231,5.859838519804233,-12.739396677842041,-38.973129645152916,-64.59161899196539,-86.78498476129856,-114.42033746928065,-154.57626050907956,-186.73114703253162,-167.36882594976885,-82.54041188117534,25.388384584575604,104.82066484437064,140.17645885137026,145.64080449639675,136.42933191871737,115.50055654582839,85.03985484992874,81.0,116.0,74.0
124.29243708113619,141.36729436363478,139.1503572027212,124.36406619176718,97.32821425183417,65.83771033249778,41.83958851264283,28.594703660004125,21.964685318224728,18.292472423911263,15.766019752027708,8.840206496170921,-7.541337357738963,-30.400012815299917,-53.91558366230648,-77.31203734595053,-106.09128442670304,-144.99946729451608,-179.26739197792054,-172.48360361061754,-103.44497466511979,0.013156409756106768,86.49464750414894,130.86360062048138,141.79648020528668,134.53753995715306,114.87698647687799,86.27864560986833,56.86259114389421,35.80788167797839,26.21351591559805,24.55850522184728,25.071392801029113,20.670494502338368,6.250014170063216,-16.82534552422867,-43.717381580550736,-69.83738209976052,-94.84610553635959,-126.33625575851632,-166.16299797043206,-187.0392603059716,-147.74855560704648,-50.09161151918124,51.71302707968578,113.2304183675751,135.3164934123663,137.4757661838533,127.8248972604584,105.31734141318366,75.33576235648205,49.08710000004029,31.39567453738276,20.80166360994422,17.015810489445954,16.42078434581198,8.299400731025974,-11.393910102837761,-35.20697394641853,-59.30970122470398,-85.38261754994707,-113.07373448955441,-147.0629826177204,-185.58073188849397,-189.47123828205372,-120.64955166586178,-5.78339616260743,91.33598274170907,139.61256093150328,151.40313628019842,147.63873424307852,134.95193613182911,112.38574742876052,83.10552222250979,55.69605795107993,38.35204553326449,32.148492105374046,29.521668809846666,21.088560384978763,6.058277251740541,-13.504790724091373,-40.25545487183418,-71.34568546351949,-99.88634573025675,-129.97866612148292,-169.41555329783498,-204.29804588601044,-194.63736143796706,-116.15067841250821,-2.9274623027292,86.548152522879,130.42934120800462,144.03323517885912,142.72994024721223,128.49264250969688,104.2483507850775,78.184492665279,55.5104006854507,38.46979027064458,29.695234465100377,27.348021699551094,23.291531207892195,12.102263264267561,-5.887079128219479,-27.86309671315197,-54.058227078751834,-85.22876556604535,-118.45579861895372,-154.84200638884164,-189.5580877371144,-191.5392617323754,-130.89426168579615,-27.415834112264307,66.18968968549132,120.14408624060422,139.9323410026164,140.86668062249174,130.22687273452254,107.67221652563698,77.63339706415108,49.91002511842813,32.65910227741394,27.352777571447213,26.561516904038086,22.087275803796583,11.20582786981543,-5.2782026020918344,-25.810303770490076,-49.685318160411356,-77.12754487361777,-109.24060762685785,-146.80053239776228,-181.35151480247856,-183.44872486822138,-124.299390502691,-20.49671984791084,74.83694594106777,127.13138394884456,141.78185401911887,138.96431706204433,126.17779530579213,100.46843326491391,66.93670975388348,39.87699899747266,27.712588491440222,25.20088023283712,22.21758220303878,16.32927220439428,7.985274288123025,-6.4723527834689865,-29.745464035882275,-57.41292933983227,-82.6804936922741,-107.35751632716834,-139.92695915423332,-169.94688144226595,-159.0827452532646,-86.86792043489892,13.095460158502378,90.58786921826773,126.85019009607117,133.9600094119288,126.53277583229118,107.09715499371616,76.33946066447274,44.824336136329116,24.640704439014282,17.525056500178955,16.819517468101107,16.16423798179097,12.593424787519067,1.6117854283036546,-19.87636646041593,-46.766499570242985,-71.16801146452586,-93.63163675430657,-124.94696048610285,-166.4973700124133,-188.1419701677979,-148.59066621606956,-51.041773898386985,52.76289224129664,119.25505051171059,143.94911067319174,144.15071565463728,131.63267543542443,107.35221897251844,75.78670184402775,47.96195685030482,31.98641776644657,26.5889658657208,25.132572128774836,22.63020596055749,14.135748057774434,-4.817665738316005,-33.51807929108227,-64.27978522943313,-88.98799372707305,-113.45544878534945,-150.6648622042131,-187.11012623856212,-176.1035028399821,-95.07228978436393,14.052826094975417,94.57414287930087,133.26443777276285,146.1187780437668,143.88207933672194,129.00085449167725,103.81898442978861,74.32414705320195,49.067351465697186,32.78604110408607,23.979271501284508,18.328930962834484,12.548382517486298,3.46037955654286,-14.373443108612792,-43.974534842812474,-77.43918337901921,-105.67104921419026,-135.16916528413998,-175.4456434945922,-205.59977128432567,-179.726834976012,-87.94932579729429,20.965388455579472,97.6666928733516,135.47336652923175,148.7475241904725,144.7724713403725,124.28799716048094,92.23808628269647,59.367892374687585,36.656550806787195,29.36289234884472,30.61262083162395,29.26901968596652,20.190568682529047,6.264451224037192,-13.010690892527219,-41.42507913504992,-71.65287921141064,-96.6880150442929,-125.88243093871912,-167.8497398868857,-201.6852358021696,-182.40449998124717,-92.91163189979102,23.72864839817609,81.0,116.0,74.0
-158.67570959836178,-192.7203543670445,-177.2904978434824,-89.38384641560467,26.49249620164048,110.33064664251766,145.68143829412662,151.31688450904534,144.9297658269067,129.43033480318957,104.31292667026489,74.5501311797977,49.434830830425206,35.59990156397971,31.515763572771178,27.915116549813742,17.250425625398165,0.9427309499505687,-20.414126200299332,-49.169752838951226,-79.94731642834756,-107.93803614328948,-140.41824564945827,-181.41234246170308,-208.00239133176171,-178.68763293355914,-84.22784676718445,27.31405392891415,103.62724236180306,136.51000404454922,144.9296374559612,139.9684582959677,122.18172821841463,96.56770313204281,71.18099670178172,49.89242755815627,35.00916262774773,28.661041862898507,26.712239580042617,20.868302879437454,7.48085181445257,-11.911906908764212,-34.88742093656079,-62.660187433802676,-94.69410169131886,-128.5032857936072,-165.88950750194314,-195.36623495994672,-180.7070331277731,-103.18015031569095,2.7622670071603967,86.08526383279838,128.6632768604932,141.58812347729315,138.95501148891356,124.91101405689368,99.3585951983516,68.95260339436734,43.607683049080784,30.093821635096138,27.101925631045482,25.874402345808484,19.599817012982584,6.948524191459141,-10.85147018079604,-32.36497629759898,-57.22196612771619,-85.85172807853048,-119.59885966919641,-157.97487611336533,-187.00641644468786,-173.02369764106476,-96.78783664420993,10.223423848671501,94.77727602261956,134.30478345720897,142.07380674647018,136.39756323070003,120.12001710281329,91.01402186294489,57.84045810834984,34.81824287767073,26.495199658891938,24.677229282287616,20.73698191275385,14.264161833714759,4.648739207207806,-12.337730315396588,-37.642935767904355,-65.1192675202298,-89.47561619634345,-115.78885648905805,-150.2264437061411,-172.81735072764027,-143.9966240787146,-58.36975183765784,39.41200524295029,105.1266285157082,131.06483164291265,132.97842092188665,122.24962384833823,99.09771650635084,66.66255804621447,37.51828289063259,21.450884929971714,17.02003280414797,16.786207213153478,15.569569228681013,10.432883036142723,-3.582282913589456,-27.48653226960907,-54.2912211605519,-77.49415875315127,-101.27009223525368,-136.57064737622852,-176.87700351594526,-184.1012926704013,-124.59017280483441,-19.1123848640978,76.7259508739751,130.05430937912425,145.73498660603497,141.69195895444523,125.8129717002581,98.54330331749192,66.86804680098557,41.99127613400287,29.619797862842827,26.030743744119,24.701446398671152,21.046120662733834,9.823853363260897,-12.31159330485554,-42.68066732314599,-72.12637865314946,-95.41201034781103,-122.68227434957264,-162.99628385355757,-190.91858541473724,-159.15205876153507,-63.4672287921821,41.81209482481987,109.50714096716682,138.90955264843421,146.84779896983568,140.8191874897167,122.60952616809143,95.3595508981786,66.26207110251713,43.39999374114123,29.661261557848583,22.194431244358753,16.79099575691072,10.451502962371773,-0.5173464780118446,-21.840748306694707,-53.82268245244893,-86.18679423331437,-113.41401117557336,-145.81176061503731,-187.16120676077404,-205.5682012035602,-158.63924491215232,-55.42616691104171,47.54752862665689,111.98871057125031,141.28987327137907,149.3075013492137,140.48803183487703,115.79445794791741,82.31357181662945,51.33696780773252,33.047222354863514,29.3743435466392,30.88863166549889,27.417249307236602,16.495893271219117,1.5072462469279713,-20.360136106318667,-50.51615347528426,-79.31261085014083,-104.00397326880683,-136.90804975129046,-180.2969780485641,-203.41326139235295,-162.87518378774934,-59.07538706537237,53.39077908042495,123.70071505552202,147.93345150455008,150.59188171969677,143.2792832129527,121.12808224684785,86.82684122735039,54.63248207419195,34.267570068435596,25.515992963732938,22.320651844502695,18.605693730693115,13.032179952769596,5.078097537009415,-11.49945145266865,-39.9083866607738,-71.53753409506628,-97.8101548978481,-123.84499295636148,-160.318265356853,-192.27496691726316,-174.6014604956983,-89.09687573220252,21.87966739189768,104.0760086314014,144.12976164102864,157.1790659541601,152.8015074622114,131.13645251790282,95.8962569823864,58.974599844638895,33.22623765105391,22.565931984175656,20.7086623255165,19.936820391966123,14.91645447724829,4.148409701273816,-11.864284245695572,-34.51889666037123,-62.80806064455489,-90.21277622004669,-117.57311726518147,-154.50660920817336,-191.38238290915763,-186.73164209958938,-113.63573883201653,-2.3474749465754763,90.80870588704471,137.25539685441862,147.0965172728222,140.3238731792504,121.5366461067342,88.69944196455462,51.83951366896941,25.88619688608476,15.063161920031511,14.321218273662176,15.900531020467842,13.137727581928937,3.4411754025345576,-12.443645609007804,-35.86001166676746,-66.04517971157453,81.0,116.0,74.0
16.566747562026876,2.259616730085514,-16.725248017597377,-39.196212621656976,-65.06444846524023,-95.00664271426105,-130.42459935562817,-168.54402610259092,-188.98914585145886,-156.99928777976584,-66.54588326520314,38.81666215069916,110.69831637424188,138.80630059145585,141.376389002576,132.9827720257988,112.8956258250608,81.17656491253469,49.66674943146482,31.083434559490048,25.822549200894098,23.899208312157043,19.05749131393582,11.969297045239884,0.6744104702321717,-18.957573122266083,-45.71770922213106,-72.48317301363252,-96.3998262846021,-125.09854865843361,-159.72288183197912,-171.1354703110454,-123.7706783677465,-28.885514765458876,62.76777018935958,116.18329253484816,133.32629785887758,131.03391432603195,116.90173628144488,90.24096859022626,57.28452514366816,31.39032298621002,19.272287638562208,16.843105141537766,16.648839039761313,14.675644272978394,7.503625678693441,-9.667275151889907,-35.33727903082497,-61.43574987390113,-83.80053903284498,-109.98745260876679,-148.86719974851917,-184.4933354065662,-174.0575923400713,-96.4908800143989,11.81265764828315,96.86393226767615,137.63165233518862,145.9644539396398,138.3077913563451,118.97551506106046,89.3370286896208,58.55553767076725,37.1389333372347,28.000267870251605,25.637896045357103,24.090283612816886,18.81789470091935,4.561188074007589,-20.546772776531846,-51.74600370979803,-79.33166968754088,-102.1492924370995,-133.26514955149494,-174.5003205267329,-189.41513684312167,-136.39401219340445,-31.145272699406764,66.05965905039318,121.14491036511289,142.8582275683612,146.44241829601336,136.72813283603662,115.43197101226225,86.73671141107155,58.76026870821525,38.535497699242384,27.06612797647533,20.570121898720647,15.177503226956405,7.99293200299645,-5.392967370679939,-30.292203826472136,-63.669751158777046,-94.36796510680912,-121.61536580505619,-157.48758473499933,-197.08006276476317,-199.67642502917562,-132.47861733458146,-23.09550385521276,70.58711582577021,123.3350943921683,145.41272823809174,148.48808076699586,134.82307262225166,106.54200697609595,72.60292692055314,44.41686311429369,30.75121973308846,29.81494747925766,30.695829547681434,24.88467348357064,12.531338815204544,-3.828414881626958,-28.51153700631385,-59.436749603789806,-86.49490413941525,-112.07231693894236,-149.05953317248233,-191.18103153082754,-199.49799525589722,-137.6405622528289,-24.562513747467474,79.17113041684563,134.47945709445958,149.92855204232848,149.60032875830692,138.60935935866436,111.91883699109944,76.68094913488424,47.37883732944868,30.74839342705786,24.346238106612798,21.46316198888075,17.13612436621982,11.15137098739572,1.515049481650957,-18.674908603541084,-49.265905689966715,-79.75197405460982,-104.77905474974442,-133.19187448755932,-171.75125034686153,-194.19491117779168,-155.98761663298816,-56.81468326425734,50.094718989751485,119.4865121060658,149.97326451918022,157.63171300064724,148.31859290941222,121.94784482353393,84.75919890859328,49.976351755205016,28.746675325161945,21.504728638707167,20.660145201130227,19.074472183529828,12.363048637865369,0.08156413196663798,-17.646841825258807,-42.3561658417361,-71.05904619493755,-97.7070107731567,-127.0162887901498,-166.57485711661857,-196.37013663882198,-172.4063826191759,-82.85632854131838,28.522900752368155,109.16005681815783,142.83154695950657,146.29570400604229,136.30706431235524,113.34122689121718,77.70902537061716,42.780708610214724,21.3233823654772,14.143158609871906,14.881269677418564,15.760845499902794,11.034931664033213,-0.5257063769098028,-18.31794371866312,-44.16873089511759,-74.86419222489218,-102.79822470256877,-132.53571137016905,-170.1704578070588,-187.2561217782189,-138.94611569454108,-31.068318850039645,78.19910352001466,142.26960480973034,158.68658633200997,151.72973722720644,139.93874657836935,120.04374420447449,86.95001878883457,51.54118484344676,27.90048943286953,18.867286763280497,16.046936335805576,11.265860330271735,2.0837527165809324,-12.08535950114984,-34.087072743137114,-62.09797723732205,-90.49367436608773,-119.48058905739931,-153.73956415578593,-185.54182800351342,-181.76545364966762,-113.25231007907553,-1.3188397141390085,96.8857876482074,146.85620676142486,156.48594480522178,149.02002542073637,132.46330272732632,101.65508745543832,62.572223840118504,33.05896263292281,19.36964209911694,12.357794114753311,4.81763651932939,-1.383026649063493,-7.519981502258589,-21.18150539944912,-42.82686132964157,-67.37966252835052,-93.84813099619805,-127.66064716517403,-169.40222179652824,-194.03592477363358,-161.14267812109563,-65.64934433788065,45.52529718824848,122.24771019144423,152.04967783224578,151.49320226067238,137.76005067099484,113.50104220407034,79.37427873569605,45.71482925516549,22.882445194323406,9.988896919477156,3.582724778261295,81.0,116.0,74.0
80.02879311258644,51.07829408884389,33.37848341102651,26.93974937466365,25.29787003857214,23.184116742060052,15.81260098404139,-1.6477437329622564,-29.34069651527133,-60.448203818635925,-86.01501913431869,-109.63940333410095,-145.00343655806483,-183.88314092725435,-181.78710442676655,-108.92253110308386,0.2650743720632567,86.4632176042159,129.9879233953833,145.38364564391938,144.93846940851913,131.6544850781312,107.60194983482457,78.1825989411384,51.94989983384868,34.43727651315753,24.880511791210964,19.029737545976463,13.423912146282047,5.035700886663509,-11.29100138363238,-39.52901484309505,-73.20842552201653,-102.14432848329574,-130.6480964288039,-169.77447693666946,-203.87926378678674,-187.47264804537085,-102.56933992969513,7.6420672563762855,89.9460706250968,132.14865989525265,148.02333851564362,146.27112843865066,127.8771431277114,96.80870570795095,63.38072296312309,38.78773576874006,29.58767060884055,30.383931557508543,29.880480164336326,21.77752961739904,8.313510062602619,-9.916765690937742,-37.265563153668445,-67.92688731392148,-93.45472624428706,-121.23285845084096,-161.89389594642927,-199.2593657491425,-189.29204550305133,-107.81331706542163,8.98959199280828,100.54469930818381,141.83031597731602,150.77902085214427,147.79633010463667,132.51507671761536,101.94228387820031,67.09742414974434,41.24445420877851,28.11144225761752,23.45808399149639,20.44318868875973,15.540741801377802,9.018195776347689,-2.983758889660233,-26.808472956022417,-58.5727661040107,-87.39786105925808,-112.01878436697739,-143.64315703294403,-182.01986626263795,-190.70627516856024,-131.86245459153824,-23.972301116195023,74.82769238044165,131.5451212979888,154.01363335560995,156.70812499057627,142.35889229095187,111.80298200743218,73.83603040509425,42.189392026215614,25.494013306332615,20.963299125574906,20.536846148223113,17.751151791827798,9.341551275721208,-4.4176392319597815,-24.047398003778085,-50.56785582633607,-79.04375080290576,-105.37619461503172,-137.5230336006367,-178.04854488932426,-196.62714383405927,-152.17133841624724,-50.20815926674196,56.5452490789354,123.35068573910074,145.90625774181026,144.5108107142352,131.2050945607856,103.96938029064032,66.7894826547665,34.94146559326974,17.994216349066082,13.892020544663513,15.44047281342797,15.1190609790332,8.344155176062833,-4.97885129160112,-24.90513928984773,-52.93525247806792,-83.34571210283602,-110.63815385154416,-142.99439209245597,-179.4798595870204,-181.15560116028416,-111.83602249265539,3.1783062855512068,102.26764400048835,151.0693708074593,157.8794009690527,148.59767922242307,135.4966332596845,111.63292615457101,76.22263007607324,43.09900234957278,24.03104597882519,17.875320729066303,15.078359996263647,9.056379142902685,-1.386995611767247,-17.562535436759152,-41.831169669594665,-70.41820095537763,-98.59429138043187,-128.7419040959041,-164.20416765639183,-189.95461365649152,-168.85013137472143,-83.01102131339385,30.833181670086585,116.61198630905962,152.7091143063455,155.29669163771723,145.35683764945097,125.14079560037531,90.46252871277846,52.39160705199079,27.722288277540123,17.158131477304167,10.273430794888945,2.743340388551452,-2.8297819870733116,-10.463885356794025,-26.837883715916064,-49.79385555826051,-74.69228645505389,-102.5510210213324,-139.40583724345254,-180.13042031947217,-191.78695229926004,-138.637991295507,-32.44099709264522,72.58740604942656,135.25345188442532,154.02581517813368,148.5045535665825,131.94699677225947,104.37332849926693,68.98599708161326,37.83390926923045,18.371354453432946,7.496213413738086,2.8593212543959363,1.6941809501953888,-4.866101192643253,-21.749945780218667,-45.45635569847993,-69.81378345057969,-92.19631418207639,-119.6792235448713,-157.5401117357876,-184.41563420342206,-160.14244976620714,-74.14897100194347,33.88874477040174,117.44931049535295,159.34721940929583,165.85253829429055,152.32708003018956,131.17316877120763,105.12397577904892,74.94512753654935,46.643523926481926,28.254580468881407,22.49629827787469,21.454386582618586,15.45108678454536,4.3258142419240295,-10.202191471579372,-31.68972094803568,-61.91841402037551,-96.12998111246624,-133.83315600803724,-173.0212563128543,-188.82280070007872,-147.98234957915489,-54.07557889222623,47.49355688551438,113.63745452189855,136.9618046275927,133.47920513420576,115.18589592239316,85.35316411791577,49.97326664075212,19.062474883460037,-1.9413840428075129,-10.792905880367993,-9.63555838615327,-8.018624532853938,-13.332979372083022,-25.204724352920497,-42.88243343916007,-64.17449966718044,-83.99054466002957,-107.22500365719142,-142.96294060245847,-170.88468993524782,-146.0540508171339,-57.52584667823146,51.405885925156774,130.24564337967186,164.54757548259548,168.64761039427907,155.5172597079688,126.72530927911076,81.0,116.0,74.0
40.15035174602923,117.39655590319182,146.48920251389688,150.81150883738795,144.97971334658789,125.01668358852747,91.60235871340835,58.33961068284117,36.223056321681476,26.200667492999397,22.68160316713582,19.229034910618363,13.84765721693361,6.459207124259866,-8.554819552258365,-35.664615591861114,-67.55816187271924,-94.58831083130192,-119.90241192649421,-154.95854399083402,-189.85300194448877,-181.13211392161298,-103.3366308241772,7.888614749522989,95.7344840671557,140.72802364273642,156.50802713947047,154.3695438375786,134.98140973154491,101.0028116675453,63.47462185859207,35.73912097924165,23.288573857308034,20.747339733189886,20.199227291060737,15.927698095269136,5.883517860581076,-9.393167424550253,-31.077286534738196,-58.948012190950976,-86.73855351250951,-113.54748700801782,-148.9926748973056,-187.8074340488115,-191.25532387806453,-126.77542545664873,-17.243515339684773,80.92916757209882,133.67113604913624,147.06666562601373,141.849515613303,124.88419356788042,93.66632782689653,56.370480246547146,28.432275399578423,15.76474358542439,14.11409127351636,15.825307869410441,13.902460773045025,5.106163977899296,-9.954491214489275,-32.23793975714858,-61.91050238266852,-91.43768642502204,-118.93966196898032,-154.12454516193858,-185.893729115936,-168.6334006013402,-80.64178280705826,35.85850048278076,121.83499615049259,156.2447375947886,155.83922755519686,145.30922272623533,130.091873154263,102.13660255295301,65.71132854183334,35.92544407866785,21.302719764929222,17.131409551772506,13.800870363937817,6.479753780731891,-5.313390903215529,-23.77421132009912,-49.94406461959049,-78.64390700557358,-106.8392562625198,-138.57211618241593,-174.05339120916545,-190.33413901152431,-150.09661990003272,-50.29382575187649,60.364711915024515,131.91668923656323,155.74338056584892,153.22075606435445,140.88804438983468,116.47592823348063,78.93546931664022,43.467459142400656,23.643785865898575,15.198483499931873,8.069664624618275,0.9003478182634855,-4.422342800583442,-14.219400323852524,-33.055971811578715,-56.88151903746852,-82.20364101643004,-112.06931782704764,-151.69411129216553,-188.4881972267277,-183.75983780976603,-111.37843281254804,0.5486002840674019,95.81401481482082,144.4573840217073,154.03118846946677,144.70966160526575,125.1773017581041,94.51619571027018,58.98804268251661,31.021723032939256,14.551551015830634,5.519346116573695,2.490222367204675,0.7483252412718516,-8.71602355653752,-28.17471594528941,-52.67264491382299,-76.37267384628949,-99.10762230221873,-129.85188059115998,-168.17862980756811,-184.14403146034925,-140.63485025893502,-42.76907268484479,61.92332845558985,133.85021887253583,164.26057401918962,163.28695316958581,146.7144750376437,124.1856608611583,96.66493116644868,66.2014977994123,40.0210510145782,25.44179612827048,22.261395638080497,20.41900369069245,12.600628058093818,0.5513875702193521,-15.480072611120217,-39.669096428246405,-71.5892746046863,-106.50773318713772,-145.57509913323364,-181.68582644603407,-183.69775452020994,-124.80275067628133,-23.123638615082125,71.31371638673811,124.22475588474384,137.9557697475673,129.48434515639786,107.63708794572213,75.24471740591527,40.225927705956664,11.856243069261193,-5.800033289333847,-11.167407231731364,-8.731275350718677,-8.757823453662883,-16.171820356371637,-29.710458064213256,-48.91558499565983,-70.1333108642925,-89.77334179070495,-116.34843330289907,-153.77329147474458,-170.76278026951212,-125.89396589611523,-25.51099883839164,78.72543577245176,144.37916677148635,168.01080577887743,166.42526567537328,148.78534647436055,116.00226693815256,77.44668199791991,47.41217341700402,29.264879463240423,18.278855753230488,12.64483862074003,10.49778326092313,4.326926150241627,-11.114330123325022,-33.32169419623947,-57.613109039414056,-82.99272415211988,-114.9979761874829,-157.61035254672964,-189.4861200964748,-167.3644223009332,-80.02523436443843,27.376531703436097,103.37822089830657,138.00850473520185,146.2122640682159,136.6729328494524,112.81032874814557,80.7317241266851,48.14471146623112,22.247412039861754,7.368560461630302,1.1545399479655818,-3.1763471587651386,-8.950742748286325,-17.333707012038225,-32.67355946066939,-56.038014217365514,-81.35665641160125,-107.61696683024061,-142.11678261126784,-176.51384149051347,-172.98856942109154,-105.01108867935068,0.27805307339307,90.09487460389875,138.41842615342222,152.69296372849436,149.84027824784368,136.06283082850274,108.6639175581842,72.75519223656292,44.3167911607251,29.50093317951218,21.909487967870493,17.587494761109877,14.415227807267492,5.162002077496635,-16.094420350893103,-46.203195169075045,-76.09071460017421,-101.88893750982777,-133.55132845236912,-175.9579147231365,-200.86139319088824,-165.22901827046255,-68.10789002704261,43.08606743753074,81.0,116.0,74.0
-70.83201308781953,-99.23785562413063,-128.02691644098203,-165.2829276995553,-188.0408959054944,-149.69601686319558,-46.960424032884816,65.68355476198496,136.837684207698,158.4613096990394,153.11073929760047,141.74314177060248,123.50613294320097,91.8519259594138,55.8079419953294,30.117977894202753,19.478525533161545,16.416218069300154,12.155208792996879,3.552715174471993,-9.799491692482047,-30.68839854966718,-58.24881622879623,-86.76798307469119,-115.39095255276325,-148.88802174449378,-182.44198514759927,-185.7476398176285,-125.9565467424607,-16.680781184702145,86.31125207808238,143.02639326372648,156.62871864759512,150.48503738533054,135.39699723621072,106.57095121650978,67.59536663538857,35.99855230852388,20.550012592455197,13.27347822644401,5.829219058823188,-0.7027439455469189,-6.408139520172328,-18.804458141527697,-39.678024479342696,-64.04840983845422,-90.05920784259915,-122.52307892281193,-163.9656137855198,-193.311345277736,-169.65728529633398,-80.61157748491351,31.92745667523789,114.87764342163638,150.3214115560304,152.55939837064915,140.14094018526612,117.41047755387827,84.19715678954456,49.69464440702184,25.23562870937602,11.30844694771402,4.073535365722471,2.2723413236263075,-0.9011587884537438,-13.451484295014012,-35.02271186988595,-59.79114758611694,-82.76469712022458,-106.74146089018055,-140.89054361727514,-177.03349401187535,-178.58201014938837,-116.25918763961164,-10.912021172054976,86.99143966278463,146.67354485096155,166.51447346521795,159.46779220108215,140.67486403855924,116.76530748850146,87.91927153253035,57.81359515865227,34.41591386526428,23.664565682798603,22.112350270042572,18.804345180915412,9.419829430384631,-3.514977143399513,-21.476319623622405,-48.34226420537165,-81.43769039038848,-117.27950839905087,-157.27375252961045,-187.4962428045844,-173.13668615998407,-97.81509932425843,7.0938888539241365,91.38611511987294,131.45311228757032,137.1749426109829,124.42185272483819,99.15364936252277,64.90624280016232,31.083533666365465,5.546181543133153,-8.589333823087367,-10.838231367845887,-8.079751020080279,-10.164849080990562,-19.497691844462675,-34.71921545178628,-55.13264959450578,-75.8508773365183,-96.13840289220714,-126.6666863447456,-162.98678063682544,-165.09758753532498,-100.75845288120453,6.7365569504064595,102.52393948240285,154.8695125030055,169.44777601405937,162.93636062707466,140.70864216410484,104.75032082778702,67.47094226175292,41.12137940261819,25.537124648076414,16.084948078596447,11.917608436361045,9.500426844130757,0.8346154268037741,-17.069526681241417,-40.27416421684228,-64.7175264203591,-91.18312219145285,-126.4788602665857,-169.76353156401078,-190.26693077532022,-147.69481686086831,-48.27326222251675,53.88332142193088,117.06966634833012,142.48667442302965,145.13791774213226,131.04417043328252,104.04918248458365,71.03074245806273,39.69481097570381,16.772058859703375,4.970086996884862,-0.031940499053600926,-4.677650109970763,-10.967970123841122,-20.84264619105595,-38.79434418656402,-63.42447319951042,-88.56810800115669,-116.52378296858596,-153.31370849671663,-181.33214496784117,-159.84893046715823,-76.02182448386411,29.739376725805094,108.45904507659363,145.23343487198423,153.06995583998756,147.05835059709167,129.61483846487667,98.52377067935763,63.14228791997799,38.82402111344735,26.868001965128222,20.359716622257324,16.773688824757883,12.760157853590428,0.296110022127118,-24.240839798809095,-55.259510174415965,-83.76201468383721,-109.81266264421794,-145.21258581856998,-187.0519221326635,-198.02921656453148,-141.9409082278505,-34.93774874299928,70.60327176456381,137.28230957934932,160.08479351690752,153.7132763489915,132.62947555548155,101.41546746734736,66.09815199170349,39.431675128914605,27.03517682073783,21.35576093135633,13.13166437888023,2.386477568357385,-7.901113834187095,-21.33072752399838,-41.75223461056676,-64.59388389435246,-85.63006667429123,-113.75235563427348,-154.97768223302594,-184.69217784002748,-161.44019398498423,-75.40595661339742,34.06732903416652,114.40724942096658,147.11743475050528,148.92471633874538,136.63665445707326,115.009998678632,86.42234639037366,56.26143786699936,33.431677269604634,23.821414453479807,23.12681637340346,21.80793077591129,14.352832903353226,-0.7057404365446515,-23.299031504544992,-51.70530966396079,-81.96560243235206,-113.80950015604368,-152.13308943252005,-187.6118477964242,-181.79668683487787,-106.89852916522068,4.845914326421212,92.04086778987045,130.89642030435397,137.898888996194,129.71847505504445,110.05033978749367,80.72591754796821,48.06177835932806,22.58705273318744,12.615075819622819,13.444406152306014,13.3145083785612,6.9136434945868706,-6.773969395662883,-28.734416521510195,-55.90519762585877,-83.04756068893953,-110.90799352206189,-144.01516878765153,81.0,116.0,74.0
3.139239378334866,1.9513003143937744,-3.4032859312751027,-18.974700771051115,-42.1331730347222,-66.70841506317066,-89.16885887772123,-115.34660375024649,-152.32669000654016,-182.97112075205737,-167.29147112251914,-88.07272727917749,20.144778154570204,108.66405471078919,156.08724813191932,166.5042551469519,154.73824946570403,134.2586511365132,108.8968552762125,79.03650788933592,49.997477595295415,29.93216725061379,22.723534907330887,21.75447488712729,16.62514313394399,5.9853553680141225,-7.976330096272516,-28.276460810475555,-57.5460249785591,-91.4458696885749,-128.51078216391244,-168.3438430134774,-189.45873444483962,-157.1143753902082,-68.22377081425583,35.379191354982446,107.51465921555886,135.79557567175647,134.93718757531565,118.33331870528531,89.85942190389234,54.62231636169885,22.671378835303216,0.19008061911417112,-10.325963251812862,-10.063201559452578,-7.90027685929515,-12.200496990219023,-23.293818276560227,-40.20895633377203,-61.35196884904142,-81.41741526141729,-103.45298961821476,-137.7734489264435,-169.30252236571187,-153.4458464627908,-71.79087811419265,37.81137163968689,122.41854405594039,162.1420840937124,169.2310137361419,158.1638762890956,131.38709243503885,93.38829930838948,58.51265733150213,35.757309307858314,22.27597946635695,14.35763271412067,11.379858608765323,7.93883314122934,-3.483468190306765,-23.461861883149027,-47.299920130579686,-71.93886293343517,-100.14034083263044,-138.86265731771005,-180.12571446558238,-185.4217469968039,-122.90399568735656,-16.408734711107105,76.79380839881392,127.53714450395871,145.15641934667306,142.67043837111538,124.31181320267429,94.78288988345292,61.474775437622355,31.97102183041413,12.278949460811727,3.156771193628731,-1.2322456182617878,-6.314893305981704,-13.251749963653179,-25.07504148987547,-45.52000159658592,-70.78052737723061,-95.96159519248131,-126.34313743834151,-163.98999436742344,-181.81407402351587,-141.08074826156695,-45.156842494103984,56.67089022593672,123.13047902069174,149.63029038765907,152.39556340938768,143.36019798680996,121.93187294524651,87.96359357356752,54.58134706235128,34.41967393174367,24.63719523106254,19.06297884871879,15.971443799562708,10.363436540351094,-5.645609586728049,-32.956584288189454,-64.04486950952004,-91.11641308049666,-118.61354145328396,-157.6910519945175,-195.58973329240766,-189.1805717132757,-114.13880800604107,-2.029329609443549,94.64504586279124,147.9322766281611,160.4308879143656,148.77764068533168,124.55713434164866,91.112834343136,56.98966325882555,34.51724037266186,25.224624659564515,19.435563657485016,10.080871441298893,-0.6052201398667741,-11.180087575855854,-26.54626483559177,-48.4622708539684,-70.72156544930084,-92.40897645364446,-124.70862958572391,-166.65158305556244,-184.83167277699118,-142.08219212900053,-43.62946472923394,61.996941852205055,128.39268223112643,149.8109810567058,146.45224099824134,131.27798117410217,107.30042119853034,77.52372633170678,48.50199210344568,29.28219846515562,23.129714237756637,23.164507158881367,20.397061091597717,10.795385819410296,-6.484408311061356,-31.066077049170058,-60.41178598271911,-90.80917989794021,-124.09981416024065,-163.90970553319343,-192.2108175359012,-167.07864385368197,-75.56372713709786,34.68554392148045,107.91600985588205,135.17840878469957,136.75978643256227,125.19694667170552,102.38679256790842,71.22614337204875,39.4496628518934,18.025321967193584,12.287812135873864,13.908379650061967,12.156785964894123,3.7744197231340917,-12.2987393990331,-36.30899653880062,-63.88477393452399,-90.7872798033025,-119.88623612903976,-153.95309163731616,-176.38632681555745,-150.83792747749928,-66.70740913593107,36.97173395467353,114.65246030813051,152.18616464126094,159.93787025082813,151.7269642173324,131.47301861459292,100.81257070906295,67.09907375413117,39.13220096932748,22.503430989603935,14.684933268665038,8.018695935895279,-0.7743269853448524,-12.00648658574896,-29.49943799441809,-56.478694926655976,-86.30488914054563,-112.42305210206261,-144.26248711588343,-183.98437597115938,-195.3882926365038,-139.13723605346112,-30.3854158228157,73.99702881393505,133.07440082846782,149.30207017925096,143.8739217827065,127.21632639296709,101.39773108744873,71.49332103597949,44.744885625973424,26.978083317399122,19.378387915622543,16.43232669322082,12.535675156441716,4.532758066117079,-11.120135216875815,-35.197517437610784,-61.92264878489257,-85.2421592413856,-109.84672187437474,-146.26595626518179,-183.5363685174249,-179.98903910992547,-108.17828042818543,0.6290321122780539,88.00647413806435,130.1739297816294,143.53654614317102,143.72947835498545,130.53827090285426,101.94789485781433,65.95830059017321,37.50606302477562,22.529888374833366,15.735156445344966,11.95058643143441,8.04267602676232,-0.20974536521165058,81.0,116.0,74.0
121.03559033201184,82.33503915636247,50.66102085641322,31.164918404902608,19.44146690524967,13.089582885329543,10.824046024287544,5.653201118558332,-8.554156956801906,-30.161350968844953,-54.35399255761624,-79.41202689170531,-110.06319140716045,-151.71646190286387,-187.46288305565582,-174.47744454614826,-94.18538902304299,14.10461017183388,95.86447419015758,135.25199098171956,146.22419549822115,138.86170218278843,116.62689998030595,85.2023093835134,52.243394423256085,25.10085890459897,8.72129433414909,1.732939438276102,-2.5319368219556684,-8.084980840463889,-15.927725248259604,-30.094844723444048,-52.66222966108431,-78.0377330457124,-103.78922440733353,-137.00203312884017,-173.1326590197165,-177.08299950646622,-117.3444517449522,-13.888830295891575,80.37323348981602,134.32775665221314,152.08982733400103,150.8377346873862,138.62735550307355,113.08383307766327,77.45272723314604,47.260526279007,30.893025164326083,22.70940172197835,18.006163073882934,14.990153636039938,7.041023021356676,-12.590693984743776,-41.99697897363659,-72.4016808695678,-98.43069931993563,-128.55518460577414,-170.33042876481045,-200.30039974153436,-174.15708733944135,-83.10797039777796,29.388625769294965,114.85482124320636,155.08454904416783,158.80756468899068,142.86805962211568,115.66094153049916,80.71389195822,48.94022024143818,30.78960113886104,23.68258770403349,17.13719898869037,6.930554330181333,-3.529182510141913,-14.882894238623498,-32.382137036216506,-55.163298093323334,-76.68640164060687,-100.1518303515584,-136.73283583878268,-176.3860344190931,-179.56305504184536,-117.75377602522376,-11.270847778944905,86.33135783783567,138.4387618222257,150.52402988836542,143.06450881561986,125.1734419910881,99.08491039518653,68.66119354948171,41.6020231696429,26.30233559130327,22.967337663337574,22.924759000365587,18.397257802990946,6.59198029278298,-12.88667213487588,-39.24768099860566,-69.16157295522827,-99.85744017699574,-135.0871496367458,-174.9483654913739,-192.14493521645707,-146.33223769212927,-42.61352634956543,61.04843877073877,119.75539527862698,137.40803427595233,134.6019137106281,119.71813526770082,93.99321053814923,61.648125032520525,31.731567753134847,14.888662500424632,12.5852647959098,14.02342301417986,10.439295670170175,-0.004075122102955164,-18.52653102593768,-44.18543777811541,-71.74590496089802,-98.69984327064952,-129.41110824184167,-163.10757491286458,-175.38115449509277,-131.58189595480295,-36.348799734990465,63.37100632563811,129.45330962744805,156.7525385538451,158.83642427518288,147.12781329806472,123.45133927204324,90.9794212901931,58.07657246208566,33.09342511295128,19.67132867663543,12.917589004483162,5.690554507840066,-3.686500016554121,-16.163092162555806,-36.40036263645801,-65.3054606412757,-94.11482735863787,-120.39416796552796,-155.78180217871815,-192.5109384689654,-186.67584714871563,-110.90688036024092,2.7932591228881773,96.37890237753935,141.22416709045214,149.19508647568966,140.1017035070582,120.56762902001583,92.85230324589514,63.142729006224044,38.50372218132482,23.882191531365645,18.36819521117127,15.553143478088295,10.795072077287388,0.9362518525653712,-17.34782263805439,-43.01644473824443,-69.06977626515709,-91.68434329459399,-118.96715244889629,-158.38970157100476,-188.77025279250827,-166.04497789971003,-77.85414838034134,30.137421555959733,104.55522595589282,135.96421054756703,144.74165579288595,141.4872247915755,123.74837272686813,91.65503062360438,56.409135266354504,31.91685013208732,20.02719830863375,14.472560139190916,10.9923986395011,6.304791103129035,-3.918229161450458,-21.34129300560515,-43.864598410316056,-67.40323618748319,-91.31364371713364,-123.41276525615135,-164.84833826753152,-187.3499447715662,-151.96817476570558,-59.32709417073851,44.64132486585868,117.43060859306182,150.84721345970058,157.98504070265207,148.66783930021984,124.74439134284847,92.45021890741597,65.4555639072276,50.18879600784223,38.5161277556283,21.218183078157075,1.2194144679753134,-15.219544270266113,-30.081099827565268,-48.48125214011784,-68.91038614552748,-89.00545958949053,-112.51325608829914,-144.38318116467613,-173.61679825900603,-163.7177617895037,-92.18416524296902,8.240016141261945,85.11067994630007,122.50722047145969,135.05366086488107,132.59136168024995,114.94653269244048,86.34334906018765,56.8243449921831,34.11017960310572,21.74257818437529,18.11178412212101,15.853608029164317,8.226229932909156,-4.395965327746228,-20.929458701431912,-43.0862685930482,-69.08000938445065,-95.08729696815453,-123.21981535247377,-156.44557810568833,-176.00908802057944,-144.5933993389265,-55.44361317987111,47.618907895285204,117.56291223462974,145.64599456357612,147.43690327703646,134.2818652856357,110.7478266073684,81.2364311427022,51.706332711947965,81.0,116.0,74.0
58.31762492118099,131.10781345118534,159.13620447705563,155.61919155789354,136.0616383609348,106.04324725682582,70.57995025479231,42.13093535706291,28.043975199787123,22.134018397772092,14.46711192347926,3.8005821380357987,-6.486522891980193,-19.14876186820064,-38.71543275338378,-61.679690943229126,-82.72746077103987,-109.14525342973364,-149.25871173675154,-183.00211448541302,-168.4999912396526,-89.45033564450124,20.214869792517796,106.53833296179818,145.0555502365201,149.71455745330724,138.84773842254515,118.36717842872571,90.48081346678272,60.06576870835765,35.74559354687822,24.390418693596967,23.064975931494835,22.27361370854071,15.775938322073811,1.7446973172524298,-19.885068901471687,-47.72819788509865,-77.91942235480546,-109.28470603820443,-146.6729789490099,-184.23995227036767,-186.47130876504727,-120.32739260996986,-9.791305252685174,83.26864398854607,128.07645585441384,138.04584058836988,131.47983140487776,113.30634113639503,85.01418836690874,52.25336203461365,25.16789815912944,13.069326417921022,13.167125768986644,13.66122047543833,8.158639733082072,-4.471739423623797,-25.387598830146146,-52.20234826839671,-79.4942038755868,-106.94997583497245,-139.36276462486663,-170.5928895732261,-169.3878389411617,-107.69916115857175,-5.712241994298463,86.71492877010462,140.895206801042,159.23880988876962,156.6681523755744,141.50854513300493,114.65322584802217,81.1144417830055,49.74185920683823,28.086406029292544,17.41403425135855,11.05848703412042,3.180242484952531,-6.821286087646488,-20.98849581571191,-44.11544907471408,-74.08075118327199,-101.56998406404944,-129.26097050341474,-167.7314887584953,-197.36596216550805,-171.65893974205707,-79.32776444953876,34.05880306383665,114.38587724543913,146.26235804994872,147.78237357447534,135.47967056264676,113.19712121076279,84.13934747270163,55.22554044170726,33.139377479577746,21.593882401466548,17.55841034820386,14.502957477146236,8.637015619506467,-3.3927529480458642,-24.242805939267697,-50.84875894821987,-75.83250075174465,-98.49810134318506,-129.31644224797054,-169.96329959485718,-189.34253995517034,-146.17495005795192,-45.83165943067346,56.49046448201723,117.29576190778243,139.97808521066764,145.03757067219274,138.0120758817985,115.67284755255034,81.07169155658863,47.8595517699205,27.43628545160494,18.024911157616142,13.377657662770607,9.948600927517834,4.081772903435974,-8.252498022362978,-27.484717521158792,-50.73582101707171,-74.06567273791967,-99.3148928171836,-135.04583514340274,-175.24527988671082,-184.15265588213185,-129.58395664759857,-28.050760075966085,69.90978609472657,130.70775739636937,154.96511123830126,156.83517860486893,143.17641748176595,115.72248850548792,83.54096733726311,59.966863821698325,47.02007524511428,34.20130466795571,15.353669814895246,-3.989038158300871,-19.39116684374693,-34.95757542566315,-54.37069908006576,-74.7004719212455,-95.15604220920133,-120.84390946964781,-154.3449367183616,-176.6009557987376,-148.99797507218705,-63.561705487415885,34.4980763738587,99.54964449678509,127.96115129502631,135.82455485914846,129.045906047458,107.39595758022385,77.4794560559526,49.33264387185847,29.427540660806297,20.03041545961794,17.723017265495802,14.31056348685849,4.968219443258549,-8.70330491164676,-26.721681654242925,-50.4091108522657,-76.65663456541385,-102.71994977488092,-132.52449906262137,-165.11301089232467,-173.51914560984395,-123.56513339347984,-24.521399231261118,72.42023105340479,129.42955467620766,148.157166467825,144.92081161609988,128.3735449399196,102.61506878304621,72.3814437888879,44.2487420948207,25.024828984839278,15.465050231376253,9.584107145630416,2.270822133640352,-9.217558453187829,-26.6830949836542,-48.35300665293448,-71.53080488763862,-94.43697875627595,-119.07299548228504,-150.4054964410237,-178.28246582078575,-167.72974396467737,-97.03469802749007,6.960084381096683,98.41587169283082,151.39352305252297,166.4567690599228,159.29970266434592,141.73049169191367,115.4737601960003,82.30405539590147,51.01508973299471,30.57988227887924,21.39537069919281,16.83983337212871,9.903269606916124,-3.313227228776391,-23.160996669977745,-47.058604236604225,-70.56746442217316,-91.94267835633345,-116.35410035577029,-152.36724596346912,-189.9966487644733,-187.9079391913509,-116.72762832858567,-5.448693670911038,89.23595934592869,140.96032107790182,157.59046899749015,151.93594670348693,130.6548560764852,99.15546629913351,65.290261812934,36.676622029960164,18.982588414115526,13.657399248242315,13.114449954765938,6.103565239318666,-6.734140449755091,-20.240393839232535,-37.487556289033336,-62.09462684339751,-88.5862625120396,-114.5532637477055,-147.29840474049007,-175.3813435325619,-161.82557099945393,-89.41655748826739,12.013265552285084,94.57810868859013,81.0,116.0,74.0
-149.4227106711106,-175.38028253606234,-157.95807399604985,-80.2292689749734,23.93518688850657,106.64960014421769,149.26238172363963,160.04167268753667,153.51153864603572,134.86710281204702,105.27297250165005,71.43787834039445,42.25959476148857,24.060693704713717,15.506528175284567,9.024617646541483,0.5094602994569024,-10.273172698962256,-26.6135404902832,-52.47563080754709,-82.54889654229261,-108.94444096607309,-139.2633867077168,-179.19194875770444,-197.32411940970485,-150.64272264711565,-45.94299096157511,62.26234702538766,128.1033450960486,148.8078295123094,145.3206474380489,130.01501332294492,105.22910751517009,75.44558651221291,47.891302696907445,28.70660225198732,19.961084952011582,16.798324151582918,13.221830765223464,5.965030142696312,-8.500893415937114,-31.656720537152044,-58.499227166500226,-82.30382778782132,-106.03751425275894,-140.74455755644675,-179.87178047313066,-184.33616273771503,-121.14012821967901,-13.752439125932513,79.00579006362321,126.74866574748438,142.66253549635138,144.38077409707773,133.21158718431033,106.48557619204334,70.61933337765052,40.4886400450721,23.89705704650643,16.39179827239946,12.388847094924792,8.711443639302813,1.2866554714452536,-13.18085811249082,-33.97828854717836,-57.57354598535044,-80.819684986013,-108.28342468295797,-147.2979216086272,-183.02628584442206,-175.27522564073232,-103.02363175923085,2.7766830751762583,91.81963796260494,140.85153336620093,157.28645035116296,154.43146350345643,136.46971498067632,106.26256554830303,75.43934660061436,55.46613754283312,43.823056110889894,29.284383540430483,9.463272467421486,-8.796307327080392,-23.57986088789159,-40.21987142210704,-60.31214088645976,-80.45544221844068,-101.74489664233151,-129.9776678840086,-163.5569158714633,-175.20006407658653,-129.01937971673547,-33.89951526355935,57.655729130588355,110.80481389421315,131.80409979123183,135.4199221995019,124.19289820100485,99.1319170139166,68.79608748370113,42.55054756703078,25.66074039645947,18.95024845710496,17.21596555802012,12.214957161645737,1.3726205511898848,-13.357997506586266,-33.03033579505368,-57.945089090850274,-84.15871939965629,-110.67635792737549,-142.27032035785115,-171.85381792405977,-165.81789489456202,-98.11060730950405,6.102349379252619,93.57982638744615,138.0171366200193,148.91333507069638,141.31837674197644,121.68864527688615,94.09558226099207,63.69401694424423,37.578868266968996,21.46081865196698,13.693530408815365,7.742642767380026,-0.49238591392486347,-13.662295236367397,-32.64679693744285,-54.99648456737684,-78.20200217824662,-101.1315427253867,-127.37656961415612,-160.0210533743632,-180.90719545206218,-153.19447666718946,-68.28124271163514,36.35545135999518,118.10314741645405,159.07138924035036,165.9328452189177,155.08089655675008,135.07149555583817,106.33105371951144,72.57755127178633,43.779798863031175,26.99733051090118,19.945602947587098,15.3296146208626,6.8005721897798,-8.421627280696347,-29.84026394818622,-54.064755362281474,-76.88804771035237,-98.25885583710165,-125.39486890354678,-164.43640154564056,-195.60637344736378,-174.33110291487847,-86.10841790719977,25.65295308166141,108.63560570538314,148.6949860701906,157.8540981155388,147.1918711561287,122.29265319788328,89.24621693368017,56.19013380066419,30.261971189607586,16.301419542308174,13.591230062893656,12.011731067746014,2.6682029664714904,-10.593643915999404,-24.553461233469463,-43.91744282868697,-69.91602230794192,-95.8574040666682,-123.16668129031883,-157.3069392912649,-177.3393095204402,-146.45916977248848,-60.88108219841052,39.53534018437244,110.7648261454168,141.49729934709603,146.0792896673199,135.6983527670527,111.56294564992783,77.36537193336822,45.73584423057423,25.551075457374914,15.687987134269754,11.906465667757457,9.376487142058386,4.804755520607679,-4.522294575783351,-21.85299687396059,-44.99417169440419,-68.96532619664848,-93.81048202843179,-123.67406477629687,-153.69678545307,-161.52182588880117,-121.64776233697378,-35.054807958189215,61.532138333518965,129.37026626273203,156.36000048986222,152.69460842822846,132.34845646118828,103.09940372462887,68.86291774376012,36.98157180025892,15.7245761518879,5.884220037922533,1.8379148245558352,-2.693941704043035,-10.769890399929153,-23.216594898662446,-40.682328465499246,-61.75276260512052,-84.14242123900982,-111.20111911456038,-148.21362521803107,-178.80245956642415,-163.7961705591543,-87.15817073161256,17.320408678788656,101.32025840695138,142.77871510699597,150.2471848704273,140.03335830678543,120.49836285823189,91.11168674098367,53.098528468736674,20.977122500133394,8.163082407063902,9.411597051767556,10.350058880367447,3.14540772443714,-12.34456891766105,-33.094273044086265,-55.818515991960695,-77.9502973743415,-99.61930086301464,-127.45453614628458,81.0,116.0,74.0
-2.1296934619565144,-18.652929629799758,-40.712165913315296,-64.32177714513777,-87.880848565781,-118.3774305071662,-159.49309537061694,-187.04774607592208,-160.60372901028472,-73.53030470480996,31.98512886971328,110.16702701185255,148.24797678575183,158.08138365071528,150.77690517127795,128.6618102384818,96.74742504085033,68.35277653513175,51.733135264183026,40.305526536187884,23.85153146943629,3.750041273707857,-13.252414546028488,-27.959024165588268,-45.81637608295041,-66.21512165882152,-86.26924606300443,-108.94570747891235,-139.75486843620382,-171.04700144703057,-168.62147897897037,-104.60664303807695,-4.696255697804133,77.28131314628504,119.34536136048604,134.3070583740801,133.78107410668304,118.11708727938282,90.42833212644949,60.48568261530013,36.57384358003271,22.78552567570808,18.315186115492526,16.387228089153762,9.593338610431408,-2.5113988110630054,-18.431008534639414,-39.81787953110334,-65.56685064299134,-91.62729213707006,-119.12653715233792,-152.0740940843223,-175.59193506882318,-152.56142319253286,-69.39642797545034,35.10213853398016,110.87631728915086,143.79560139077495,148.20146979805068,136.71690940200745,114.33375658753894,85.32356905666411,55.36906784094345,31.80026133343328,18.631891792024025,12.044429196149531,5.706973504940228,-3.676704875975664,-18.623037003438238,-38.88422839534677,-61.709203927729575,-84.81321701069992,-108.08371435496527,-136.36967195084253,-168.8322870758882,-179.2630354999565,-133.51653275809895,-37.87490896671512,63.65413073938794,134.22003051308664,163.83342684458967,164.0014426383751,150.1599267728352,127.65375159180468,96.71630920001574,63.28676790661401,37.62012154857439,24.25748360661687,18.691417504267484,13.465713713204908,3.1195952004853584,-14.067456774395156,-36.76235942801836,-60.92579303249888,-83.03384628933891,-105.03955978336644,-135.61417485707477,-176.07748316415567,-196.6170226908275,-154.70490202452945,-53.47631740322098,54.03877662797713,124.27722040328665,153.8848128634525,156.5047753903713,141.25093896226787,113.23130065182926,79.34731808995353,47.69673119470786,24.87770130687568,14.636091778067383,13.619880341237431,10.14071783291682,-1.0763153507006114,-14.440823369540428,-29.34543039439055,-50.98181503110281,-77.6578018820253,-103.17784340616821,-132.5671242791525,-166.287034869936,-174.78889883663336,-126.19723295514835,-31.08424121164305,64.36434852135083,123.38445395195133,144.7730585502931,144.4483066092911,130.15664242640506,102.26869989746812,67.3633072313632,38.63447050655199,21.824562717279978,14.169922116738901,11.25303294306847,8.34582337905787,2.7805242455931833,-8.668761807384893,-28.190055626892498,-51.97088060757604,-75.8732628141854,-101.82424659136282,-133.01654477925598,-159.536424552552,-155.61517647881178,-100.31814713130468,-6.115401718132905,85.19119230668986,141.18578015096148,157.7537985874824,148.05546118012694,124.62923195226604,93.50321638255244,58.97098024373508,29.53689134641893,11.889493500821501,4.427954708207265,0.7903491865742834,-4.617415574725738,-13.878452005491676,-27.75460326467565,-46.52575123740776,-68.10730308656579,-91.12206908690247,-120.9756702284996,-159.2701160676504,-180.78698799303515,-147.31342407302455,-57.509350028529305,45.361334743390934,117.71882362076322,147.6381625964386,148.54902989705835,135.2382192743843,113.15521464390956,80.62153587276255,42.358262662309045,15.154516877570074,7.716102565664691,10.254217225366434,9.208966300519943,-0.5809453107557667,-17.959481106443704,-39.58222797122678,-62.36225403661067,-84.08762383168413,-106.66205779077313,-137.20419912298027,-166.4163492853289,-155.00184712681056,-79.77586975082461,25.537434078659377,107.88897206078589,145.79900116873827,152.02055113434727,145.3635454203154,130.68083855800802,103.02138976221259,66.4202286143565,35.75773476929974,19.284844071914804,11.751341330998317,5.77559242285702,-0.7527711303593815,-11.462814850645884,-31.134651459718594,-57.13417616765564,-83.16445533409008,-109.88830225739781,-143.48049745294492,-179.17276984323772,-186.44262838842616,-132.97949283664823,-31.460865076766225,68.13342365260304,129.7262553197029,151.98844996561363,149.98507918971936,133.26914883143212,103.99292500492822,68.62100658189212,38.76876329095683,20.564149437131732,10.982778881510688,5.394734001481874,0.9440529788764602,-7.003593627784483,-21.337468459798902,-40.654631008949934,-61.40173283130777,-81.42720330658194,-105.6955647284575,-141.20124379779327,-175.29213285084938,-168.96594125158535,-99.38441225711108,5.061236455236035,94.48214959185572,143.70949699775645,158.49433433172547,153.54931757176232,133.39356533137422,99.67515145427005,65.20170132146038,40.394908171036505,23.24415139364138,12.911785932803939,10.231368922597133,9.270494708798878,0.7515454321172582,81.0,116.0,74.0
47.59740999272038,26.95248358270893,16.369257815212862,10.382271228281871,3.423963760450262,-7.348345299267982,-24.04688314582581,-45.328478322936476,-68.43724807768653,-91.39342252100224,-115.47228780101105,-145.91277352040342,-175.90079302681798,-172.60669731180687,-109.38720381267106,-7.061325539170663,88.17960023225083,146.76880960297348,166.11381074237664,160.98775952759468,144.552867356031,119.48113863531391,86.8578700865302,54.68736224427554,32.55767988884905,22.18156110570979,17.452552076849027,11.146419506302955,-1.1489427988522034,-20.195101824901652,-43.80481058308152,-67.57848316144882,-89.11506608135616,-112.56292176863857,-146.89973409570925,-186.1929302086299,-192.05940605146688,-129.73498692191004,-20.41860032439773,78.99518838967973,136.43079183084595,156.8735006998771,153.69222058078486,134.22408028876222,103.67216602005568,69.64698880650822,39.955641868626394,20.586265749323218,13.817783476863926,13.39131643770878,7.525059565838068,-4.944851646908761,-18.365361196181926,-34.75868373099012,-58.52039066839741,-85.18932392005945,-110.83230028901352,-142.5870934513473,-173.19561241292507,-167.14197881977617,-101.78751690605255,-1.3391593616913653,85.87558937151134,132.74938948254524,146.32036730422183,141.7086287033793,123.42736073397981,92.32559422189091,57.94443496966837,32.59026609676027,18.860391561664876,13.058901618076236,10.575417889930801,7.10444851839986,0.2648223602478289,-13.543015716027604,-34.883356065559276,-58.90959647307828,-82.93157214130706,-110.3708748727305,-142.09311253634905,-162.8160574369671,-145.17402104383163,-75.50963935981346,22.491420265733016,105.69582317146623,149.59219405435633,156.97562315352857,142.3177071005051,116.28427512916667,83.57833046975132,49.51713491085888,23.14145431752507,8.93388890748063,3.2858204589486895,-0.43483583185945773,-6.86892847350529,-17.36985306882692,-32.7230703279616,-52.605710314963964,-74.52085573366298,-98.67590260167104,-131.66461171519273,-169.05786331125904,-177.89389806498622,-125.786881445071,-26.789610490665655,70.61733638418733,130.39327177463616,150.08867250167935,145.72974251753487,129.76969249345535,104.89506016375516,69.54048498626427,32.607255335602204,11.128476102077855,8.120836441571509,10.726217985444487,7.300301024532172,-4.954894957099202,-23.92328405619908,-46.16504362401143,-68.79547773858688,-90.23425297302812,-114.47188099655926,-147.1096216669457,-169.23382827065953,-139.37022998668397,-49.875641082926734,53.459159627401526,123.29060372593032,149.87376827213293,150.88246293645145,142.1287540243687,124.15680433058937,92.78061834711802,56.313898952428765,29.569094397378777,16.609595125495805,10.025004912520332,4.015027326157828,-3.1485651101010026,-16.159913169613077,-38.31664998776725,-64.80621102000381,-90.55622879374984,-118.69562451693609,-154.43060223693143,-186.044448352493,-177.7758836379239,-106.65596155099009,-0.24150682801026835,90.48149037333746,139.602598479929,153.26480063929392,146.5259746164265,125.9816223515279,93.89990174609503,58.971052625723885,32.307240903408555,17.169240215908435,9.078507222239555,4.160368110714128,-0.777393717487078,-10.4868410438227,-26.540184900935767,-46.67610692326368,-67.20783508622063,-87.59308623615483,-114.76528319360692,-152.6059976782397,-179.45188500768754,-155.06174714444398,-70.4936508847257,34.2527956787917,113.02262541738851,150.80778337400724,158.6397247406873,149.35462933420692,124.685938949955,89.07315388971071,56.9822397400845,34.81619336155499,19.456095408255102,11.457061203833515,10.216003395711022,7.892750876329133,-3.768899490236764,-25.34320714406605,-51.54755178808774,-75.74319917767212,-95.50799461233375,-120.97202102300935,-159.16047214768133,-183.3281816348143,-151.91255201801044,-61.350551131512546,45.92939783717562,121.8196924663353,150.78512165925923,150.44177424530872,138.90452161330057,115.06458897042303,78.95514501012502,45.633875255531,24.29185018956959,10.544227382371869,1.8091395404466966,-2.073454300143625,-7.788493622713726,-21.55672138691253,-39.054992264977656,-54.85854454773321,-71.5012743441742,-93.7755484610209,-125.21182171827374,-158.67173943665668,-162.12733582493303,-105.19161944253979,-3.716549147794176,90.41461588932633,141.82045057940513,153.47577242443424,143.43936785945397,122.72676608413333,94.3440774837772,61.73168846269559,32.770980135193426,15.917387083365185,11.06692213363637,8.684638532457916,2.3959583040159864,-7.9375375403819595,-23.540709925183414,-47.212476459211,-73.23811065232314,-95.38141557774577,-122.21458378236338,-158.14125411880886,-174.7819544019619,-134.68008020743432,-40.43608963106132,60.752928762561574,123.38574255786116,143.9794614280654,144.1695861939811,132.24209104296727,104.19550195298734,65.9086062878398,33.348278648112505,81.0,116.0,74.0
103.75733844882804,139.29623558898786,146.44380560543752,137.8577979398095,115.5496814859425,82.08328538397299,49.36294843978798,27.555963515835877,16.55551563082745,12.23025510253509,9.790100121121743,5.603848739869299,-2.854846738291125,-19.0937894004135,-41.78163802690548,-65.7970118673711,-90.28335312066315,-119.39772120283753,-150.34822685855633,-162.8114387875383,-130.10399805965946,-48.18797773441689,49.70539340814084,122.72573218912427,154.8757699635271,154.39765371462835,135.67458130373902,107.37713285296627,73.50046829943,40.74185949527826,17.822975412815076,6.709108227464367,2.290349947892172,-1.9134907206872445,-9.45874896197963,-21.272312118859908,-38.08905486253328,-58.84348253578371,-81.05409424099051,-107.03086534441535,-142.95549170147456,-176.48585743834036,-169.54429048109515,-100.09393394963145,3.686469503377069,92.48224585625287,139.59842681458835,150.574294470352,142.00914586090386,123.59977223126234,95.67531206642282,58.247619745074495,24.2646654839278,8.76401205876539,8.973880575490412,10.62587766988311,4.627293375709654,-9.898081191169288,-30.15313206069601,-52.777571036029215,-75.09174060939826,-96.57018119987501,-123.16422058024351,-156.35401337679275,-167.4535043459028,-118.33310598267718,-18.836946776310576,78.29487677304938,134.89000464567218,151.84483117639644,149.04770205177132,138.16662023966597,116.40296448753286,82.06381536617153,47.10652647359933,24.619595853098044,14.44308230729761,8.307540467545216,2.1932893872223223,-6.03648122455842,-21.6929122556138,-45.861103341822776,-72.3495882031106,-98.12051740023688,-128.25040808691278,-165.24032285928706,-189.51478589218647,-163.46093904871296,-77.21716567342045,29.45742812978563,109.125920396845,146.47034160778858,152.91440372893106,141.94965917658024,117.67137240919797,83.54764883641151,50.07201149724844,26.868931169685208,14.345442133646893,7.43244332681834,2.946109646359711,-2.9260450868965573,-14.52469174148911,-32.09455688594493,-52.714140646456585,-72.93858111951135,-94.32863214778475,-124.9132981893144,-163.269783154354,-179.09625559335373,-135.75362531691633,-39.89206190655281,61.03124947473925,127.96251922785974,155.40189121915807,157.46028751121997,143.85125662961582,114.96455668406195,78.8417323493049,49.67161536257095,29.753401611116793,16.29268574778238,10.62729278807356,10.114496292440107,5.67307888213778,-9.154118823818456,-32.73466072930567,-59.01371365103058,-81.72466784725725,-101.58541073361008,-131.12298971150557,-169.61932280967164,-181.18373243614997,-130.56487629838654,-29.632245223007672,72.57545264926023,134.63906643446686,152.58384214073712,147.98845363888793,133.58270086153414,105.4092010828242,68.30676405573679,38.29170454116416,19.795828325524894,7.454142259245789,0.3395930146022477,-3.109388930310453,-10.936745714118063,-26.595000542431194,-43.816151111002384,-59.35020044108527,-77.17140039876551,-101.85190982018723,-135.61898223990903,-164.5982707754551,-152.261017812587,-78.41456402212563,26.531667046003076,110.15112815229392,148.48108587887052,152.10530954166603,138.33543088200605,115.23910188135976,85.08402979358956,52.563331746926465,26.414672148783,13.62127802272035,10.561354032071376,7.344297989442808,-0.20929947048405123,-11.72769732517436,-29.589015603630873,-54.95685758109723,-79.9434048069489,-102.03126579037361,-132.23775002347242,-166.89305142537245,-169.96326962872251,-111.50011656106412,-9.362695968484628,83.86258554854726,132.7635106811525,145.33082705122007,142.12354089510453,125.85360274608261,93.52146528183555,55.28202284657574,26.506339649899846,11.40797813727683,5.634077536811464,3.27755130910664,-1.4578222752180985,-12.095041194997666,-28.286415243266617,-48.76757658771459,-70.77613927480776,-93.2597106091029,-122.33779731796123,-159.89988110193826,-183.86175130413673,-154.71474793923446,-62.63633926768663,49.79876099984246,128.2732583471961,156.7030525815113,155.05821896834698,141.74273461560745,117.93826956549034,83.68152391012927,51.20744151945791,31.58813452620869,21.242461451798917,13.079034751395902,5.230363076065541,-1.7676482797316433,-10.102791594649801,-25.347637571804704,-49.803546948554796,-77.61490556171529,-104.0496878672421,-134.84413632236752,-167.76078180034258,-172.75928507317042,-118.93727068675246,-17.285150657465934,82.92328861029881,140.19709566959614,154.44379629523414,150.0877553859739,139.9113131732022,119.49443248501157,86.07991502480587,51.7537944846751,30.863990388943638,19.510118139737084,8.734634884463867,1.1178394110611427,-4.554645358777721,-19.20138016244426,-44.14826745416014,-69.11808181163262,-88.72250395278775,-112.8873103785786,-152.92325272225682,-193.75208503975867,-194.52898260979663,-125.4849596270214,-10.228973161941878,90.41319554061957,142.13141862588466,81.0,116.0,74.0
-132.65171777104786,-163.8674608979159,-160.26247137867065,-92.76023317506016,11.866439749321536,99.45527516657002,143.05485988843722,152.24141217343902,146.65123300771697,133.28946572387818,107.4793725228528,71.28902201707947,39.046985811613254,20.757816213956456,12.56633884949477,6.57819325083112,0.23133530239420247,-9.57543456896978,-28.00071900221687,-53.57114047014264,-79.76776140849144,-106.05266275458125,-138.53699855913308,-175.15767085659326,-188.582066128441,-143.72920244610566,-46.03346782652357,56.647405132358934,124.05120644533235,150.76000418582618,151.1927761233926,136.2636239522082,108.47533649908915,73.25719376671252,42.100981514650826,22.36383564078933,11.961545463989463,5.999100192126396,1.626323234947237,-5.588819097803792,-19.078974303547547,-37.91146800924275,-58.68570065431662,-78.70698979246346,-101.8809378212637,-135.93902856975686,-172.13233878087846,-173.46221362994223,-111.75002576391006,-8.956048840420257,84.72010631348637,139.47363371049448,157.92275946809713,155.06204465360307,136.99881555539878,104.57499776432489,69.30590165559128,43.16357956936083,25.180265428775996,13.815223028165025,10.281706313437498,9.663650629519168,2.523717013204044,-15.295780601328268,-40.35427277121623,-66.14499688378585,-87.35455666595068,-108.55009573548409,-142.3170142863934,-177.83896951970019,-173.47992918847572,-104.75089839073485,2.12900620451733,95.58810024442087,143.59012377247316,152.58350998609194,144.8660194337232,127.02374858240664,94.90494782035182,58.35922651035801,31.98727955076229,15.757298286357685,4.805327079432511,-0.7601292572980468,-4.547302381620161,-14.824871634342166,-31.731330387008224,-48.37669585678409,-64.04106538820463,-83.41402347704945,-110.78600708289856,-145.83016466542765,-166.96867677055332,-136.86482487755276,-48.87855674350713,54.76515993477511,125.8526582262983,152.2207789548131,149.3593578805606,132.4933134905521,107.13941018523506,75.59506401117582,43.9312816004427,21.25700099751768,12.188023038977263,9.987896551816288,5.606936259494504,-3.1157497211724134,-16.043607885364597,-36.3550869372364,-62.629595102943505,-86.27569782424828,-109.45783303732402,-142.9090054167936,-172.96957773799818,-159.64429056255614,-84.41336466143453,20.832736868961433,102.92841955481076,139.03300767075072,145.52969368389813,139.02692054303293,118.00930057972577,82.31049484956891,45.5439568553172,20.860230405682845,9.036148160921664,4.868626605452368,2.382750171659376,-3.8824252774461416,-16.26269897227194,-33.83477473302927,-55.13533749272558,-77.06516273868554,-100.64135180205801,-132.70786870154615,-169.94574494602094,-182.3426782919356,-133.54456987878618,-29.510244451650777,77.62262019682723,141.12854226649102,158.17357176197567,152.09566276878988,136.12184204223934,108.79183219259224,73.39385260742448,44.122985061652756,28.03863889910526,18.8365714756118,10.756159114880715,3.1280438171211804,-3.8212241698980893,-13.556046648743878,-31.586606673353867,-57.872334358705125,-85.30702594196629,-112.16087658322323,-144.95462010552438,-173.87830812215824,-163.76484466775966,-92.71715725573263,14.249418882338574,104.7293120809871,147.75327920004378,154.10745259089094,147.7409471120074,135.40473339732173,110.929815357073,75.4263490152256,44.11454851238425,27.173647672576998,16.400065324147032,5.9978365242477105,-0.28795114451727716,-7.472265555761899,-25.716536690446105,-51.8336794210788,-75.19264075136466,-94.49414770593458,-122.83173166329328,-166.15327934578386,-200.06585018587285,-181.91104906692863,-94.42153878499488,22.853519635257115,110.51523089744711,149.072644788744,158.16757981868233,154.50109785684202,136.08549622771903,100.67146730904796,59.74817399825247,29.829245482848407,15.812904873003049,9.928680060344895,3.9239607639333234,-2.9882849319756537,-10.259522489794572,-23.645734913334543,-46.35940024978917,-72.19939304995815,-96.32428347063455,-126.22806113697013,-166.78758025158834,-194.65552447993036,-171.4444454072409,-85.23216304020926,27.040578525905268,109.17760729279613,141.22628962297986,144.48619097169583,138.25848864514836,119.71440953255828,84.76418125146849,49.1070462446159,27.515488530703514,15.264292916971606,5.382609909896935,-1.4828479581350689,-6.033335805735949,-12.96718841952832,-26.412317274794937,-47.79177696798082,-72.55527551804056,-94.92852250869778,-119.30276460090214,-151.11451897465173,-167.25688288667627,-129.50523384459856,-36.54404340227161,68.55432275990974,141.19291632288093,169.41373963686198,169.59150102976236,158.85355635746959,138.07329143067744,104.1157324338202,69.07671545813612,49.273465735139695,44.64324331539803,45.49089490326294,45.63960006742022,39.14772876790276,18.491426795435256,-16.044943122012626,-55.66123760785069,-90.9205681640373,-122.14794225400433,-158.84859894537644,81.0,116.0,74.0
-1.5721360123361832,-22.058215844714415,-48.033574592620354,-72.8281367335087,-92.88929103218675,-116.73701100614367,-153.92140041360048,-182.60229201952828,-160.01299750291113,-75.57738989777877,32.622508227211924,114.51547413151394,149.17440880756502,151.32939875562283,140.99340938216187,119.13616042711683,83.99073469685729,49.394823841261285,26.5556207459483,12.103215043066651,2.6409251310959494,-1.6619818404219362,-6.597580689755021,-19.32688645577804,-36.78570836247542,-52.81801347471543,-69.05270521988798,-90.33110917097996,-120.5153707661122,-155.0357901621251,-164.83352244376417,-116.25635126700105,-18.000387596770736,79.99253065237572,137.62945904818991,153.5454246076,145.5202274774543,125.9620463608285,98.49047395432979,66.07265322247463,36.07277944426889,17.330377895775428,11.34085758109173,9.173121012975765,3.489818506577339,-6.334408429690976,-21.007346427499016,-43.696472996795,-69.99118436195239,-92.47408586676534,-117.93032968173556,-153.52494829920664,-175.2639901406029,-143.77574917972717,-54.661339788766085,48.858223000443616,117.8472938074753,142.8602912083471,144.80040643209102,134.69840761994712,108.82079258045765,71.0175611600407,36.91773867331758,16.317880674417143,7.306076592152013,4.2426804120666795,1.1510281995825293,-6.845474119573322,-20.85628810996847,-39.717286994602595,-61.52611836954791,-83.43534582883409,-108.79137177687612,-143.7157917591289,-177.99848351970678,-175.39290990160524,-107.41024774350731,3.824358428364209,101.46410248902797,149.9197471969428,157.81737074112297,148.423356580253,129.50836085129686,98.87183420667589,63.67897198880848,38.25112656136806,25.04137993383901,16.48760671431368,8.463676073063441,1.1128911468721003,-6.08805702888767,-17.741835153085752,-38.577565897712674,-65.99553056200212,-92.8617634162567,-120.88609848444479,-154.96187148803003,-176.64480256098054,-149.32877106926568,-63.29290741949614,44.24111471567916,122.25310567878093,152.1665762175014,152.8581984479127,144.99071070522783,129.82643818925132,101.3257590041601,65.15506438483386,37.84205897643432,23.960201290768204,13.227287529979447,3.6905044970352914,-1.7151335734635897,-11.434408960930014,-32.94048232124012,-59.223044334599436,-80.80577262330968,-101.0609799096939,-134.25994843585818,-178.742333233765,-201.8701093102673,-163.06356682687428,-60.71816129112726,53.13674921047868,126.22740740984067,153.6070916615043,158.24539191589054,150.99553355848917,127.36085099382026,88.61405279187649,49.44201118508169,24.339199034904524,13.743239946151965,8.390900081979133,1.9046840239365983,-4.9020711170435645,-13.183650406212895,-29.37759098093543,-53.89465590523115,-79.25246302194515,-103.82408501407956,-137.25879883132237,-177.89141273309443,-194.57313605095823,-152.27218506124353,-52.84023887104306,55.79527366649253,123.09247143881998,143.87712028298856,143.41889841421778,134.6291822499901,110.96708948432614,73.54277233922105,41.32640869318784,23.48172522632514,12.228696023810134,3.011655808506914,-2.8577874258816913,-7.577484491704718,-16.043164837031988,-31.846702725927805,-54.938379356840926,-79.32732220923559,-101.28230836832762,-128.03879989015766,-159.2435004149551,-162.99859051284818,-106.97647833650097,-5.05540512258299,94.13653248273782,153.5128308000787,171.35616594782834,167.25653914665347,154.1684756447044,129.42533305427088,93.21212060493949,61.42843495000415,46.78879248891658,44.69666683613963,45.791671142669244,44.822559702170466,34.82981627856143,9.6635628412422,-27.46967761667639,-66.53452784632131,-100.00798724255402,-131.81155593159923,-170.91824719335386,-207.6080441159001,-206.46740351715746,-140.65992426747187,-28.94563025604462,76.23232744672531,134.2494319443725,143.78086611598897,126.12233491687998,98.21675955759537,66.09750077793365,32.64083776221085,4.213767788102437,-12.582118012025196,-16.86945284424428,-15.361445764910844,-16.04412130197361,-22.034252172469117,-33.39303789932131,-49.22945981535585,-68.40374179728036,-92.55219488322192,-125.90181005936694,-162.70629510448882,-174.031008421581,-125.3580239659343,-21.176276691327534,89.77634352152612,161.30494276717516,184.79961460441675,177.2492575046818,153.68436511684519,120.11114298776391,81.59947506014008,47.12946984530215,24.70469577324383,14.417118815102587,8.569022584825785,2.4648182429374126,-5.907847885194737,-20.549391477679812,-40.13134209660439,-60.83486231646551,-84.98214611512755,-118.12233375720814,-157.81975272684105,-179.7129705012584,-143.93950296899067,-42.66975932452043,74.10408559420125,147.278570971851,166.817210183079,159.28520750204947,141.24508110344973,110.34604149767145,70.01637597793153,33.334741937512376,7.31859804360241,-7.641878952771282,-14.596372744588386,-19.118633050480767,-25.10518286563063,-36.021153174857574,81.0,116.0,74.0
29.508410083288492,12.75656316950474,6.074306583035263,3.6106345565251403,-0.5194488218850993,-10.326281221792295,-25.852420481554912,-45.86732024299004,-67.87091525830655,-90.06099993196716,-117.84664581039196,-154.88599541967696,-182.93813336828865,-162.59527265475018,-77.40130060214007,35.849608876751965,120.8621467951083,155.23474709193027,156.15681414438225,144.0330234219876,121.83215896863062,88.50293818601853,54.884375476005324,33.47505321430985,22.391764660988628,14.15370418508719,6.231524224314023,-0.8553966361829132,-8.721111838835355,-22.750893067940588,-46.163079593735425,-73.99624358494339,-100.4626008432301,-130.2997407941142,-164.10021719195444,-175.11776272817778,-129.63809075762325,-31.97210604623541,71.51918427043553,135.47575687968964,154.15118258661948,151.05246441489584,141.6822249651273,123.04166420557539,90.98460104717542,55.72066515839236,32.82448928937723,20.915902863778012,10.10803809627811,1.840448918154845,-3.5087551335916842,-16.50638764127836,-40.57568957789503,-66.12698827659312,-86.20614937845414,-108.8236889666701,-146.86440399576153,-189.6263197965371,-198.22974339061028,-138.4886284716197,-26.060569341229684,79.63782536703361,137.9283339274082,156.36501999919355,157.45143477915857,146.06801077949675,117.2678935604447,76.52202983321983,40.42117024771573,20.128347451023796,12.085970789970034,6.695464909730739,-0.12214715891537015,-6.88470623791963,-16.819841141735147,-35.872457202874905,-61.455604378553154,-86.13583602809285,-112.13493831757975,-149.13148466779285,-187.0316795471117,-189.30473516852223,-127.98079966482446,-19.651601462906466,80.73327470567729,132.9051968830034,144.87556367884423,141.81601992567906,129.69264381371352,100.90533884285931,62.85042024132152,34.88612377847852,19.949773745289306,9.31469209793014,0.9575065037377197,-4.119061835980517,-9.44626068555372,-19.749707069581984,-37.941230065832066,-62.182691004342225,-85.7972196729552,-108.0669209545978,-137.41668759384933,-165.103631298704,-153.3848662686644,-80.36257115118272,26.104844037614424,116.13250766681475,162.21750142851812,171.5272927650983,164.3010699999028,148.48897397781872,119.6776477767708,82.70719931474925,55.354901992168216,45.37381358297917,44.970925134878264,45.943288869853966,43.25607052181356,29.169512437785873,-0.20983562999461108,-39.042506819997335,-76.85418878952716,-108.9011314512053,-142.21949992441145,-182.99553085540873,-212.94922350966647,-194.25540797754385,-111.06584683976725,4.535090592054779,98.6518429020334,141.1774446418021,140.50228513617355,118.67445573427277,89.27799622640727,56.3571043866581,23.565948809305183,-2.0213930969725906,-14.933646428960913,-16.614712482145222,-15.09511685696088,-17.20608255160762,-24.782990851072473,-37.57403668078484,-54.43829257609437,-74.67808840716638,-101.14341104503782,-136.9955391184792,-170.3854217137812,-166.99813699976485,-99.34549373624886,12.74772395822047,115.65022409719802,172.4847701177394,184.9449557955171,171.69732876997486,144.85632665359353,109.15162923777082,70.79027272497613,39.20613667256404,20.756712545816676,12.61483783592963,6.882324453026403,0.45781362777184265,-9.397578957020405,-25.92546208072596,-46.03726381585321,-67.19432531693879,-93.47279960869776,-129.471398941736,-167.728405053111,-176.7436126459083,-120.14223820099961,-7.404169857844248,101.30632635490255,157.50832382304395,166.2073091588697,155.07655693856518,133.7945227136225,99.11601097583043,58.538348851563704,24.639928748026158,1.9220095420860048,-10.241464660239185,-15.922477373734415,-20.587769823903443,-27.52315465510705,-40.850786549595654,-63.901613532166536,-90.81591821564838,-114.59590035003731,-141.37475000809832,-177.06963850058946,-195.34233545726244,-148.31108488213306,-35.2319053514177,82.66142342618392,152.82846221484442,173.82598709886017,168.43161363612273,151.56122274987536,125.85011030201838,92.47418839086491,59.51814847568802,34.09445538168437,17.2998755388468,8.41603496090956,3.40847839541706,-6.040842358132879,-24.32418503760009,-49.57756377532846,-77.1502646887784,-101.55547606505174,-123.7304381519707,-156.0079762499851,-194.64337199386193,-196.49154860076072,-123.0874349430415,1.8300443666746156,110.92175475752582,164.01006978862742,174.55160360926092,167.7799351770061,148.3354944856934,114.14701996588978,74.36921694543608,42.59996257150101,23.641271987347675,14.416405329228407,10.436070915389655,6.942969825374688,-2.9104200477309363,-21.487295105281177,-45.5972040063858,-72.97990074384192,-101.45650115490736,-132.38957857583426,-172.86773405712717,-211.24641286378346,-202.52030522722697,-115.65122139068451,14.914504115226606,120.90955442964476,170.86446632891017,179.24705956107928,167.54254883095854,142.67285041491817,107.01100865246039,69.43801803577631,40.660062197236996,81.0,116.0,74.0
146.21315895233298,157.8337260998006,155.68813153986503,139.59775920668713,106.08856794467258,64.86110944889394,32.83423794161431,16.978644306700346,10.605350158873932,4.8299003033126855,-2.098153572427617,-9.10245938398848,-21.28993118870353,-42.95627620254541,-68.86419622507647,-93.04841670779048,-121.51256956346899,-161.2945309138101,-193.141678588587,-178.40485627933498,-99.46844049880406,12.764249787623323,101.25888107277673,139.25647126730766,144.78427943917774,139.57188108529633,123.2314674650498,89.95774270845898,53.15460997970125,29.619355113983648,16.703673839290932,6.5708762368978935,-0.7779210015519814,-5.399522613378428,-11.740752194116034,-24.14516289320837,-44.5861850735554,-69.33313229826219,-92.05849103888883,-115.56059033299293,-146.91337247111517,-167.5587386625628,-138.26588387337947,-50.80444276349973,55.715596022588215,134.2057794090907,167.7668196883034,170.42184376556136,160.73261864932854,141.6464886681085,109.13045567560232,73.09481140833198,50.85381652342349,44.74395240591449,45.32741481842604,45.82708148113491,40.709097622299076,22.159819639785294,-10.90679737701905,-50.49078982304472,-86.60073301467986,-117.88778201560798,-153.4361569577165,-194.33496741326948,-214.07522625758247,-176.29531071737577,-78.61048495454946,36.03949171065576,116.47465109846358,144.42227254548305,135.53198798030903,110.66529881380931,80.04076987965743,46.59645274239693,15.103613242535372,-7.150400222619381,-16.29418954317465,-16.107607571986378,-15.171220531243543,-18.832545642354575,-27.9745733634229,-42.09405854941604,-59.902617804344004,-81.45532570048861,-110.61761246188243,-148.0647129387687,-174.97327271250248,-154.2335868107557,-69.37069398321411,45.76519759712471,137.38583590944722,179.85413840563785,183.01234377719632,165.064876367058,135.2705400463459,97.94190865853976,60.56647274331854,32.44680747367451,17.713603608236745,10.959870467895705,5.1416635684859875,-1.817019812223542,-13.50814936030436,-31.592635850199315,-51.975124249722086,-73.9747059617997,-102.84648820991973,-141.18987562184475,-175.27283488909694,-167.95458290284907,-91.25869760112124,27.427617796943764,123.69908547108425,163.62506560777192,164.10770320414542,150.12512550663428,125.11435744900903,87.35703296989433,47.694196488936385,16.901052174358828,-2.5689446194699794,-12.287074618636973,-17.187855280289583,-22.236808716958528,-30.4666276341302,-46.57191084392856,-71.74039792396688,-98.01644005577099,-121.47695114494088,-151.1096506689798,-186.34076406228803,-189.97143746352577,-120.44679523366078,1.5091567472970504,108.82538628127405,163.00204566056507,174.05252196617715,164.43371905744561,145.10029025128807,116.74665816968131,82.4740933634051,51.268257334445615,28.375508822151374,13.991061161110055,6.902962198627164,1.4824443866328638,-10.423871287351718,-31.06719162520062,-57.562791024152055,-84.71191803877875,-107.78559556640299,-131.4886289066261,-167.77284962480655,-201.41011914537438,-183.34906885647536,-89.56103760283509,37.82825812329722,132.2362918740037,170.05514416940315,173.7637333194566,163.66646010433985,139.81599759084207,102.5596324531785,63.93903193447824,35.85708281688973,20.188919297800282,12.90242773986688,9.659468502011212,5.017839724571774,-7.492153612940146,-28.017889158699685,-53.25307480633118,-81.18507166092643,-109.84524743258723,-142.94479242348524,-185.69230939519727,-215.84297501252337,-185.2845854540615,-79.3428748407171,50.55670884716339,141.0414230443581,176.39866465666145,177.35612117107516,161.66951685035707,133.22773921020675,95.81076745820967,59.896990014743636,34.688120481964944,21.566071745261194,16.25701616978,11.273768761598943,2.9675064088352587,-7.5590794025964305,-23.672645497615715,-49.67577425005157,-80.12363086292847,-107.08650227931496,-135.99017810977858,-174.24099631955946,-202.21449536320907,-175.52172593916973,-74.57760479807162,56.27760621158435,147.0766293039091,174.79734225320553,168.18430914229594,153.39052440970664,127.3104289061616,85.45393351515912,44.30671742001496,19.66550818342703,9.741371075672008,6.543754901616556,5.4935763016275105,2.0651250034871316,-9.679990188346277,-31.70477328917093,-58.341627602972366,-82.67515954146053,-107.99492125251686,-143.3553359223542,-183.95536085046822,-193.40453035899628,-129.83212877008597,-7.738995157408768,104.1242361101848,159.17910236498446,168.41930468153447,159.09200543316052,136.22580331071467,95.38041835005967,47.65971543558001,14.416330118804055,4.177963949571991,7.200692397859084,9.812012148801976,5.656383103396109,-5.92109975434078,-25.296390713645998,-50.25801831965997,-75.09363779472493,-99.35254883785082,-129.66526250369213,-170.3208544770102,-201.1520278992951,-175.14039914689334,-72.62107046027187,58.05608188742321,149.8206846159947,181.30391582957586,81.0,116.0,74.0
-165.31615883629559,-204.00159710409486,-210.14715022148886,-152.99528096746332,-44.68229731487127,64.4345096053376,129.66736708946618,144.57992316589468,129.31159666739381,102.2284445699778,70.5450748391392,36.97720185408116,7.436397204123074,-11.131146097563056,-16.83607154324449,-15.568308559663251,-15.664674412381602,-20.918892235461886,-31.590661048818248,-46.91465196744705,-65.6461601743836,-88.87606689077728,-120.92196020594909,-158.41426827217802,-175.44787921850974,-135.72382941380954,-36.72685793944612,76.59458680062873,154.7571173722802,183.9039852922555,179.39609140745034,157.47835536775648,125.02299719531634,86.71389958722575,51.147878860937944,26.881092246649317,15.34717612476893,9.330156281921958,3.333049298846709,-4.498343831735131,-18.20858081744162,-37.41922931987365,-57.9995908364708,-81.34358730487693,-113.11190522934497,-152.74623149264704,-179.32684934008032,-152.94835780932596,-58.57710348528173,60.138912944347815,140.9933999618257,166.41966297171075,160.9884874703895,144.2866200439958,115.24778259078869,75.45162013558486,37.65951418573598,10.1224208077463,-6.217892466497087,-13.93122756055129,-18.487864432439363,-24.127979613520253,-34.08655371458269,-53.132994952766374,-79.64335557802148,-104.86442133709212,-128.9218006317778,-161.60709104621333,-193.05680186144522,-177.99520830195,-87.84339746528985,36.77466747112904,130.18527259572312,169.52180126405315,172.6470670751969,159.704190573403,137.85815866216802,107.09573039084236,72.7670462106916,43.75032765678587,23.364468119376664,11.325550595997138,5.556802876511971,-1.0394733556051587,-15.565372343694014,-38.31427882139349,-65.60558285296885,-91.8722196974791,-113.97395997907851,-140.49707017887536,-179.61227937975812,-203.68224790933493,-163.37220214327465,-53.04523500583648,70.72651336669873,148.47583587673438,173.30818295825287,171.99386846562487,158.38749340638716,130.0764050530392,90.86394425029822,54.46957758873487,30.18695335294372,17.431926849660734,11.731301722850857,8.787451613983647,2.3782546938696623,-12.764770543872096,-34.92366430974153,-61.14606635730976,-89.40897621704275,-118.55788990289588,-154.51026781199516,-197.70102436134587,-215.13342136084074,-161.23223182690182,-40.95667158978246,82.52127947276514,156.31701427472044,179.11413988732406,174.18869819917748,154.72167302434892,122.97505521264756,84.74564124493985,51.3123864649993,29.755101033204554,19.537471418662346,15.091288309047904,9.177282612892611,0.16699491155459414,-11.350644794693629,-30.187234366957806,-58.497764591602326,-88.33312374378033,-114.6856847224366,-146.24643976710425,-185.15782664729767,-202.00062623017453,-153.25182699138603,-36.52610533548762,88.95615040582447,160.87531173522683,174.73101041217512,164.4225162960789,147.55341072681946,116.454117025817,72.49230203459045,35.27647193298602,15.662273482599609,8.399788591307408,6.167060274852617,5.019039069035929,-0.26072989411357583,-15.092649308865376,-39.33023429382271,-65.70436191571892,-89.46537396611993,-116.92036981516303,-155.51687706052084,-192.17823404581662,-183.37613062974046,-98.01130057088828,28.787197890709116,126.30632764022234,165.1464252267658,166.91128393985346,154.18683459951038,126.16717210707424,81.34884243459622,35.78718229358275,9.265795348020358,4.3679137411492235,8.44557785412783,9.383930386845764,3.07682243573085,-10.713123985625069,-32.179524447953085,-57.63593294084403,-81.96346635957242,-107.10944828442928,-140.56199706889183,-182.06522669292474,-201.5135495931217,-152.4342941034416,-34.41692836338755,90.65814084414993,164.59065833281366,182.08423342498125,171.4102563652288,151.11513155043335,120.92098614007097,83.40924209123452,49.76063142005257,26.817112830625895,12.877728698109777,4.113559311931438,-1.7527905389909102,-7.464561617202097,-18.901337138632787,-40.82549097296312,-68.16533405211696,-92.20812324512674,-115.92544558470003,-151.70816896322575,-193.62830301900854,-200.37908893776208,-131.90104649346415,-7.021845862349389,108.60146050657019,171.55762812671148,186.11969141137936,175.36172297163813,151.603203442503,115.65625460131254,73.00174046860437,37.43029094829336,18.199032348292036,10.052405870546103,3.1096625774371747,-4.993984492849456,-14.382575368824693,-30.537988476291734,-54.797836381407606,-79.97196048098013,-103.9271098038863,-134.28448498543807,-174.43317196210222,-207.11147337873496,-190.4528986265925,-97.86338996851269,34.42098226703161,137.8772323275673,182.58041617846078,187.38551337253898,175.09536440104344,148.79367525739178,108.72094905344797,66.75743551561001,36.72033281230404,22.007562999781044,14.070719447210427,3.9170044098286825,-7.495410829402212,-19.196189964635646,-37.243010133377624,-62.906690727847945,-89.06120787448769,-114.86886588765447,-148.48312638536018,-185.75091029864663,81.0,116.0,74.0
-38.513863948504294,-60.38579339311005,-87.36550371430091,-111.52019476023095,-137.21660748747902,-172.30741645215318,-195.79469407307897,-159.19010060028114,-52.18352803274346,69.07966976279361,146.7368068341374,173.0404517412052,169.99372113183512,154.2912398077366,129.8166131576651,97.11605626595686,63.5561214889711,36.97288478452916,19.053714737889823,9.226161544365475,4.146571558367783,-4.2838745152286055,-21.411079547169596,-45.956080869752036,-73.55618045602935,-98.59228166680589,-120.49459549621724,-150.84102939613246,-190.39761825960505,-200.24677422998113,-137.07100680973167,-15.392046097804,99.36273087631042,160.0568027538504,174.5151630361864,169.32569300760505,151.81732874919064,119.34351766899512,79.44493321279253,46.08560992032097,25.500761556280448,15.254362093624676,10.808615180643733,7.628694494719463,-1.055908788137117,-18.620233075429923,-42.15957082931394,-69.21783264328036,-97.6425134351336,-127.84387435351375,-166.9488570209647,-207.69261178813824,-208.08805020513995,-131.17645080725762,-2.4081365392664864,109.9349310545617,167.17809794187488,179.6190326582992,169.88917016127866,146.71082005364204,112.13363564333011,74.11711948565423,43.77365894556741,25.797464184116887,18.010912794902424,13.753744051300773,6.800515220678842,-2.786258085365729,-15.770859497014852,-37.58203184239438,-67.42861017061614,-96.12796336824019,-122.75317323991703,-157.3617291165016,-194.36576727141295,-196.01697419553537,-124.82560618264704,2.280464011232211,116.70089322164823,169.5496558448768,172.80365145009304,160.3228763590025,140.4392441941981,104.36148255804483,60.18174867214358,27.83847164240964,12.691988448816604,7.4435846509326815,5.899081695163765,4.204565402332566,-3.4222875648159676,-21.34911904105489,-47.11894690006139,-72.7562419042557,-96.54897570752495,-126.90687099968808,-167.7712416939376,-196.54991747664482,-166.43673880095952,-62.45015550107508,62.52330489940897,143.20270353899522,168.04572399636245,164.39657697609564,147.99752043605767,114.56093626921002,67.2230782828399,25.64176327380933,6.030512908880174,5.292511142341823,9.366122738553974,8.325703703500194,-0.11496725129530329,-16.17868372509584,-39.41598768152088,-64.8586017020081,-88.8620655045331,-115.590214875016,-152.35378884883568,-192.1379959442829,-195.81205942523263,-123.47751233158769,4.324674113321996,118.58042421624721,174.4141335635044,180.61424287329976,166.34551324716023,143.5269239701612,110.4051965102995,72.80417175310963,41.98438795948679,22.057053571192085,9.937990497033958,2.2038771953547367,-3.227652325971698,-9.856202543694657,-24.16666609096427,-48.62990109202191,-75.63436929065675,-98.55890338996271,-124.64400896277284,-164.4164380483949,-201.57239022569297,-188.89603149259327,-99.03791068917494,30.21186758825743,132.76165542726872,179.74544250875348,184.72066630014237,169.72456643089626,142.4248611196154,103.50579784640233,61.35040299805452,30.162585048571334,15.213301344079921,8.193092615600085,0.8196906049717673,-7.413977037198537,-18.092285066089854,-36.94874194791721,-62.30159520367643,-86.78915021101064,-111.65717076764764,-145.12205302909962,-186.14811386878532,-209.409344866159,-171.20304839007505,-60.63037151558947,69.76550388352108,156.59856068508546,186.7342301336696,185.12347763839654,169.09924086333302,138.31240175604205,96.07480705637421,56.44570499447662,31.09689089933223,19.556229727485515,11.501226539456313,0.5607777466194193,-10.659303781516936,-23.48015957461229,-44.128159638675655,-70.70390302112723,-96.2390771106741,-123.50765308939943,-159.74483882455195,-193.33283714181567,-187.319031117525,-112.18642737233424,8.729588480614282,114.15895766734872,166.58527119992817,175.46316030992074,162.61995058760274,135.15795531324193,93.87954204579246,49.91370376426277,18.90054106478201,3.243397397947378,-4.811806942802983,-10.273525026787244,-14.673897228884243,-23.318612952595757,-42.008995652485076,-66.70304589833208,-88.26521566889048,-109.75753080909621,-143.6336943892521,-182.328233206513,-184.5345277536188,-115.5613337336953,3.4975419456230092,111.19666582523575,167.17576308607656,179.32146296158345,171.239476894988,148.9959580263176,109.77323479615524,63.45058987828088,27.338194052144317,8.191445956246081,-0.18048008957158274,-4.781534393337158,-9.23599345600935,-18.867954691267162,-36.05876909906696,-56.68452851012739,-77.2225840828225,-102.88376775188962,-141.69610024898986,-179.82757492141232,-175.32054735558148,-100.1874984362616,18.559040964447227,120.92098433037522,172.22876260949246,182.09240724759218,170.20676547983626,140.86516033693707,96.74572026584782,52.873272918220195,22.56361289570087,4.242206046567305,-7.992955589152993,-15.162883333737687,-19.69067694409051,-28.68693778344274,-47.12115153810286,-71.57521065934671,81.0,116.0,74.0
37.30958230993376,22.721390176382517,16.781792522752944,12.13183390663622,4.213519092249387,-5.973649209568655,-20.976855885637896,-45.726875961966954,-76.19523450207309,-103.64585170093406,-131.59489275575703,-168.9334204106157,-200.64995333438114,-183.54705552285594,-91.32174069621662,39.86664885270978,138.82671624238387,173.94126137366473,169.7883337223952,155.74311537343527,131.8160488780706,91.49202523643686,48.99349552463998,21.92306872711624,10.526162551893508,6.775322846378192,5.6421365155251895,2.8861130051804063,-7.491040423180878,-28.31063929304524,-54.847829562083206,-79.57016217180094,-104.2024339895238,-137.95278857748661,-179.2394666672193,-195.78713431602904,-142.7895644675594,-25.048248795591928,92.12381810004504,155.15795376630086,168.68982834258514,160.9844975746584,140.3121541877527,101.65846143881882,53.60587493157567,17.480399279161595,4.4463651467489465,6.578477046285275,9.80245422542883,6.640700845496848,-3.938192728956026,-22.28547978016864,-46.82885805483409,-71.89927154224002,-95.95883099520091,-124.98825010481237,-164.65437953140687,-199.2486317716818,-183.29211740155026,-89.51504531468802,41.727676045023735,141.21916792652155,179.96260451254477,177.59233394976712,160.67331868453104,134.99772580254185,99.4721752178786,62.82726812803934,35.1696083135044,17.94322041482937,7.353115622119625,0.4949422773979843,-4.773461781991219,-12.912671877009377,-30.365352948952822,-56.642418921498034,-82.6515746325585,-105.12795853136966,-134.70000218862785,-177.1639033541691,-205.2333374137111,-170.4578586344472,-62.67484320746718,64.90122637856192,151.9842228710378,184.3822242118335,181.78157354771994,163.1082838499883,132.21030648411815,91.03345681595073,50.682605984250785,24.359074000887297,12.8809418467118,6.235682634654735,-1.530401417367626,-9.98849589158883,-22.55047235689252,-43.95497117545213,-69.65731980822021,-93.57934277972551,-120.16762601412968,-156.75438677760417,-196.55674115322336,-206.35085905290634,-145.4095860061137,-21.66510399824477,101.06726109791074,170.3134651234652,188.32942225596733,181.80478432515935,161.82637088389762,126.78443002101628,83.67030161446934,47.41217845473082,26.702597681545846,17.364439179594683,8.6068817241543,-2.7761859963001694,-13.906758796354815,-28.49144869659713,-51.55378855973833,-78.33013831122226,-103.51121203739301,-133.03342220815688,-170.98341563574917,-197.58759880703852,-172.88307367497984,-79.46080366599779,43.380048717510526,135.05578792745823,172.50122254776,173.36069039818517,156.20823465649838,124.43086970362482,80.65904776823734,39.18673984220655,13.086176573499447,0.47456436504339994,-6.586779718645071,-11.531829918155935,-16.38334344751609,-27.629234411181255,-48.98648277842964,-73.4608351979395,-93.9184426106805,-117.93666181731648,-155.63473208154545,-188.9386501886508,-172.22379152373557,-83.86511074109195,38.470085377813284,133.13221166113578,174.01978303890303,178.37226575452272,166.47094032926063,139.28921912533713,96.32017001371038,51.36223527352686,20.172815560596433,5.072291750423199,-1.7299241136824506,-5.885451158866045,-11.25085079812039,-23.1471156889417,-41.92203949018843,-62.59874475617244,-83.6433796538393,-112.7091895727052,-154.30042547177783,-184.92350165065076,-160.810304901845,-67.8294171971009,52.2651707573947,141.22574208849156,178.27839514754177,180.4044492427417,163.60405554524692,129.17225521203562,83.22639087998648,42.52176828466021,16.37283604111462,0.1985348597649533,-10.576650868113104,-16.49267161987644,-21.477533454363407,-33.0433319102396,-53.871211320764104,-78.86300229181808,-104.69081937139043,-137.20366296198785,-175.51752506334162,-188.54300629169506,-137.0474750851751,-25.233098383928084,92.74930362992215,162.774136626864,178.4807177502072,167.44781235759146,145.6141391434383,109.7049475119579,63.552060839026986,22.46409772553778,-4.747400057292449,-17.516450446073428,-21.515284675714877,-27.85733639048769,-41.4734547809436,-58.979376206379,-77.53299413875946,-99.5205082387484,-130.98855137617514,-172.23056862069512,-200.37766059464045,-172.7450192967547,-73.70719524492635,53.87886820192171,149.49682831207662,190.5603675722596,193.24321921728878,177.565834421769,147.8960186927688,104.3589050742138,59.62332581027192,28.672826518385804,12.700299217600701,4.582093580495711,-2.086818414221355,-12.695102682336122,-31.308718258630563,-58.940266218208286,-88.9087534334278,-114.82684004853047,-147.06961849347158,-190.8214025412088,-209.39987433890656,-152.64956600066407,-29.009282263892533,95.06582549451726,166.89035171749703,185.8510017557663,178.09100813008212,158.27516141164338,126.1214393647815,84.67639349256176,46.23835722432402,21.998653641318143,12.021312348834805,6.909281526192706,-1.6330264354139101,-16.274720973912864,81.0,116.0,74.0
