14.2560108261464,739.8689981590694,970.6712999482489,841.0428661767054,706.5709260824568,653.3008843572792,603.9561498510177,530.3034799477459,455.4033788365601,390.91783603288116,328.0978169810201,256.543178182707,183.075619084385,135.31106111199335,133.3605148496594,158.42093341093096,170.5597818257694,153.50533737510318,120.42270492383491,82.6200412481024,41.277804830979804,0.8043790904583051,-32.68014735935451,-60.01237615599985,-83.89524707342919,-104.01403812915666,-122.45680319240734,-143.16499045890689,-166.58997557735276,-189.60269234835042,-212.53282726332137,-232.88523637564657,-230.8024625477313,-188.70004900014158,-123.16312916237183,-69.86971132336411,-45.401521150573956,-41.36749987376134,-45.06753744839497,-50.68543495172462,-56.470891455404725,-60.071303229262575,-58.40649168628714,-51.8631728836544,-45.705318050961644,-45.37831705882924,-50.78614933978934,-57.656689157450884,-66.11803153668468,-79.79933984400348,-91.27985640297506,-77.25843384624524,-25.551905525278613,40.97654493053325,89.39026977305477,110.51216767237366,114.27548449335656,107.39630152904623,93.51951942050928,79.05318133161549,67.56790592172591,60.07824782088905,55.77476095715443,49.0905284116551,35.80183000305447,17.144132254155654,-3.33508282720309,-27.22134328145669,-56.95831115258872,-77.58900246934739,-60.68771519583371,-2.6891664747567803,60.26240974161294,93.40294638438847,98.04697380357818,92.99314224826315,83.67688447808364,65.16723205795937,41.668613284279715,23.78246342590156,14.581216761381453,7.558193981392963,-3.791157576893519,-19.856315463750228,-36.80678052346092,-51.87749334825898,-70.6529070561458,-99.51446400427177,-121.75879809995266,-102.41989320827786,-38.01814729043767,30.04701252943089,67.22177476836484,75.7398260772312,70.36537606569762,57.166506408807706,39.652430791236426,23.71402135053272,12.491626548647217,4.716748867408716,-1.880447367342395,-10.20183394831115,-23.506049105246923,-40.5525195091145,-59.54730750288746,-83.1832454635353,-107.74806099327002,-115.0060177796837,-85.18866460104385,-23.635733169483316,36.96648011067283,70.10929941259178,79.04516126287318,76.82244040679146,65.25319664544575,46.807220088166815,30.366638317386354,20.3911816066735,16.277512901265585,13.798402931968965,6.303924619588345,-7.382489896864631,-23.80330338010686,-40.21216424626106,-59.60295155875202,-85.24807775323875,-101.51095119785161,-80.13254823320716,-21.120504633592677,40.95816185934733,77.12354798406595,85.31619384214169,78.00458918390939,65.97409702136024,53.40824585020537,40.197418775251585,27.96334285352242,19.129627601637026,13.256895921230363,5.75073410117544,-9.070150758783386,-29.561062135250985,-49.55365841309258,-70.38608069292711,-96.13168417045702,-111.08587172995199,-86.69698945421504,-23.38510160549596,40.887217727187945,74.78598212615532,81.81512263007855,76.2425083857018,62.65169884241588,44.484824617316995,29.8351121414215,22.035807207717674,17.031066543986782,11.341421557424349,1.57057458466933,-14.641572002509328,-33.22162372239245,-51.116026041457665,-74.2088169710372,-102.98920104379727,-116.33543761012425,-88.30394789543794,-24.097977927718873,40.70020555521804,78.25778516313994,87.55256155063051,81.09834001498128,67.56824626163528,52.81581720036989,41.53329702005391,30.6490669842803,18.98608997249162,10.29676158556695,1.0180358211937621,-16.00291732032004,-38.45768212728573,-59.34382811945674,-81.09428425649088,-107.54396719746994,-121.63961240689639,-95.52691548634495,-30.726579159845315,35.92560895267973,72.70423953635549,81.90027626735029,81.64505276330983,77.5856506835585,66.78495425369384,52.57084766668636,40.02209751732256,29.318365823933085,19.4195243905752,8.53350782917414,-6.095124298213651,-23.89369212452497,-41.663725399977054,-60.84157398853223,-87.29152846312417,-114.16149576852817,-115.12533962421966,-72.46101511543128,-4.9319939024437085,50.88651844080064,76.27642126356302,78.45262432335919,73.4503543519867,66.53943608452919,55.37165362240269,42.753070964611965,33.679542355058885,28.41419738491245,22.34044001940448,10.4069451723325,-6.296236757683431,-21.638166761853725,-32.956417100238205,-46.22569299535932,-69.39800313677672,-98.7534687868015,-114.49596520060481,-92.98592549503469,-33.03736842481539,32.59757763188674,67.67140846984795,70.99187029849234,65.45172515508087,59.850260626104905,48.849868140244546,35.008214733348225,27.3382001216693,25.601417867206717,20.56988591093088,9.082137001647602,-5.215465244513861,-20.69429450344603,-35.99835602678669,-48.80987754877824,-60.76129935487487,-78.89324003232176,-97.14006218617283,-87.37334094085395,-37.59151712470918,23.37933728722713,61.0571591273311,72.27672838378429,72.34170980488895,93.0,116.0,86.0
54.37350827527304,45.971641054658406,30.792127043868344,11.334664562400668,-9.648109411387136,-35.406198886895396,-65.111744757332,-77.55141136865258,-47.11833665291793,17.039969534997883,73.55802513641305,96.82128631755768,96.96303108586605,90.95246747586668,79.36074206671852,58.39384716542147,35.57319216984394,20.391405397608473,12.713490225445854,4.857579368971399,-8.071310284508485,-24.872242535344927,-41.3015310454102,-56.46437040011618,-78.07418129760885,-108.157842708578,-121.64187936789364,-87.1510018719578,-16.55543511885335,44.48449424086351,71.89808319410828,75.16777636855676,67.2537279325215,52.305608465471344,34.64552057409503,19.986939915350117,9.996772514466587,2.785948204592679,-3.932012776960971,-13.478024472454969,-28.21165848083272,-45.7661809607417,-65.80819056254076,-90.7326867259268,-112.69556755366361,-110.62910794425447,-69.54152873025073,-4.382775239500025,49.76705256388265,74.47125783671098,79.26744923143447,74.50661100791184,60.27097885782304,41.50303390344916,26.80077565619759,18.688598216592915,15.711863594892861,12.345032631597698,2.867818955658679,-12.022332043338823,-28.556339822936184,-45.215877072552935,-66.56056269531257,-92.228347935191,-100.06386656304142,-65.79444530047739,-1.7564083515756082,54.6456243719242,81.90493625797215,84.21043134282532,74.69602371865221,62.37874900852364,49.65173974172829,36.4208683484778,25.019012869040345,17.238406609051555,11.567926331045124,2.3287503009813957,-14.698641480150075,-35.55190265196481,-55.16418124834211,-77.49400972468531,-102.89505727178678,-108.95175205803724,-71.17583337161508,-2.9408582906597487,54.24734475963306,78.82961430301839,81.12115674685587,73.0882804398488,57.55695377324105,39.556818596678234,26.98583550974282,20.510149868932118,15.568942569491414,9.127117386496021,-2.5074300609837663,-20.050687638699447,-38.343341954999154,-56.91415245591399,-82.44511432909232,-109.81856218342034,-113.07327568876794,-72.18479673212494,-3.7390361961946557,54.874633801046755,83.35106607651356,86.78176139316196,77.68272956596846,63.12852665459225,49.191577202281316,38.575749195437524,27.174794757133693,16.124416709082904,8.061678062727797,-2.969748295688854,-22.30412752791237,-44.781012376882515,-65.18221339853669,-88.49246175942088,-114.24478704584462,-119.01013419263626,-79.5723705687993,-9.74129070925885,50.17515193882426,77.36993096094315,82.20094088207266,81.0100219818993,75.16937748120776,62.72714121509368,48.68872869098299,36.795790347662276,26.417544789217718,16.50832978546415,4.763967095679015,-11.059471271951764,-29.116082687039174,-46.79217360329895,-67.61327510953437,-95.92449073711035,-118.40679413159877,-107.18797259730948,-53.85371137122927,13.760724656380924,61.441572418588784,78.52935644273599,77.22749901378437,71.75125871218216,63.768850096033376,51.606261712660825,39.645976075080156,31.896065693281024,27.02389012152936,19.594719054319306,5.837294711821338,-11.134387578952179,-25.2138689595733,-36.161081806632716,-51.74362633399621,-77.85491442900647,-105.86126073606775,-112.82949501247694,-78.70558936903475,-12.697349486652532,46.748099136345914,70.96019488612724,69.43756639350336,64.03133474733063,57.37319805775303,44.72172574592779,31.89510996870934,26.587095625625313,24.846695539904832,17.77769151777163,5.108858722824644,-9.592351403729735,-25.241797480981294,-40.01954368588343,-52.07519460733935,-65.14027033133375,-85.15086747824839,-98.47951426681898,-76.48893410225702,-19.232959999508303,37.476577728019365,66.37795336010178,72.89370349845305,71.40723556845586,63.64158546893238,49.65262088248341,36.490463951433725,27.788509101042987,22.161615270248916,17.647218332619683,9.997353848848448,-3.841322848171845,-19.63532851101616,-32.045941168601104,-44.44090117589345,-65.77537075608741,-93.23270247013338,-102.86815944322626,-70.94747683563598,-7.959655366894065,47.858766760654504,73.90622342703254,77.38960937672567,70.67564531304369,58.02070827494703,42.748904085013116,30.198205030991343,22.421250317110555,16.71449234935444,9.19294378706791,-2.5622891389117175,-17.5722382246382,-32.95288049747095,-47.14387987475967,-62.22970593225465,-83.10235456055409,-103.44311473356802,-97.11076327263271,-48.94439520782909,15.141722402636043,58.79892754732111,75.5801232982947,79.07573414354022,75.67620433923206,63.825104413358744,46.68247152776215,31.87887183118284,22.81821006819758,15.640741564846063,6.635703534943254,-4.149950602245156,-16.745744750580428,-31.786908735582184,-48.46987665570216,-69.01218124661621,-95.60776205975469,-112.23003317566489,-88.59070147951249,-23.973868386726465,41.72250476782049,75.46848851285806,80.71017091794518,75.91506930390102,68.66604287292266,57.48756645566233,43.136124594352445,93.0,116.0,86.0
-74.0583891298843,-97.76347995758387,-94.80527984979753,-48.78041308939013,16.827597386363113,65.71256073587413,84.55404222659185,82.15397331055316,71.20091961092253,58.767518160084414,45.82597844413288,32.80481818105337,22.39659207081346,15.557988496575456,9.574353046924266,-1.8110222661254531,-20.659604347143954,-41.35556665036117,-61.011828284399165,-85.04790764724804,-108.08566541064573,-102.85772644408006,-52.890307672147706,16.41221087314249,64.63091377503257,81.0345300322769,79.64578843309678,69.27947818523344,52.22308655724552,35.14533903299523,24.68547505057126,19.085637028748152,13.99809363149175,6.461056626901255,-7.1358414532222865,-25.483490812022804,-43.41494153036979,-63.37946819200565,-91.00716105275812,-114.60513646209938,-105.83852585334883,-53.6095160782278,15.653916224728501,66.34709596484238,86.31142719182283,85.0237164973738,73.80530667892457,58.75504900889576,45.918304876593226,35.491163813689276,23.714066073827528,13.592229298978125,5.574926280660128,-7.742645421847553,-28.868624996650286,-50.83549318959763,-71.29133781946794,-96.28892707070284,-119.21153715324974,-112.39813751814152,-60.876832342190205,10.273124262148972,61.43378165482659,80.13976841175854,82.13504928144391,80.0015375751125,72.13326083569542,58.55513865407441,45.02193972590772,33.689387720910986,23.56752500520636,13.44828406002087,0.6182972369965942,-16.218938143968547,-34.25782889234264,-52.157325355263694,-75.14628022661361,-104.19937870099855,-119.69983556576494,-95.4454231636083,-34.02247827817359,30.608993120892197,69.27873565624277,79.23834733374275,75.76293420053284,69.86343647691551,60.58836876801255,47.8670679921987,36.92938306527347,30.3826120703618,25.41058546610517,16.266836534867785,0.9744302429870983,-15.686488325169003,-28.465138818994582,-39.75952323481555,-58.24885433858806,-86.57340408093478,-111.21013057180883,-107.5194851514454,-61.53409125106576,7.0259086153649175,57.647522209646496,72.01800497063319,67.73699105596032,62.55447000276305,54.296600601209235,40.5633114189801,29.507317949310604,26.175213232223598,23.565911366306704,14.495127857037092,0.9950582734223584,-14.060062702480932,-29.721818414385677,-43.77309209032541,-55.38241756607089,-70.25011043291077,-91.0007205005866,-96.6422487033932,-62.374027017166384,-1.0004863451189252,48.99002922790644,69.77853138007684,72.96362769776883,69.95452175395916,59.99300105016024,45.45979283587437,33.536830208934546,25.931908621499897,20.862606477379643,16.00513123437823,6.580143883946079,-8.51950414557743,-23.636505617861495,-35.21679255976164,-49.42128135047139,-73.78459526390387,-99.23607071892823,-98.28455254429937,-54.433698390512816,10.545225170038613,58.538470264856784,76.54343923003978,76.18852435944257,67.53956573883212,53.64660634755096,38.64115156623348,27.521393017799184,20.732858581058014,14.886784698347723,6.254920502739086,-6.686318803181784,-22.092825085020092,-37.17415189201485,-51.190356268092884,-67.54993014379372,-89.910341012048,-105.66212749541668,-87.10801754659005,-30.15551086503472,30.818768963449003,65.90045488628027,77.40021838133157,78.84989713728903,73.13327888681492,59.092744460355064,41.861072396650655,28.743548773448918,20.794119472538764,13.272203743068555,3.667205986652334,-7.5543211324414,-20.86368948672448,-36.44516761520032,-53.78724584883739,-76.27606561765329,-102.79972704255722,-110.52162001510078,-72.85180728342912,-3.0323852584611,55.253517608014064,79.0643328977006,79.72617340156387,74.08474719663259,65.90809488546816,53.50370979735996,39.0224591529915,26.88045219990478,17.290985030868697,7.319063330296826,-3.191158017196226,-15.19403792338531,-30.9155904023521,-47.05198876420554,-61.77575479492985,-82.12915805576226,-103.58821841818683,-96.44683398453513,-44.20513771895138,22.493815972085944,62.384489430891364,70.95066707145563,68.40378301221172,63.45461169578975,51.530237457943514,35.05990491550365,24.30984432378509,20.09723061072448,15.394246255030412,7.465696501553285,-3.2944645320717787,-17.356225951349323,-33.18947209607884,-48.60999496860735,-66.86388941810988,-86.73565862357437,-88.78852557505728,-54.83552543119887,1.6731002332943008,50.16527407522163,74.2932354980321,77.70691394701173,70.64723920793747,58.6870206434001,44.23909679183817,29.89098170457706,18.512623437989124,12.604747833342755,7.969290904084194,-4.187742201755124,-23.005399291079783,-39.150904310996665,-52.35604620332063,-72.32283220118407,-95.87696046083298,-98.55839148325079,-62.34878306705784,-4.468404148431992,42.68168327171869,65.36004392469698,69.28557973066071,63.26515578614376,51.7702544061142,37.65146414928364,25.24389839861188,16.955022070672495,10.86507743228213,4.022080460346529,-6.7218954921832825,93.0,116.0,86.0
69.76834949426676,81.5602395564879,81.84727996762425,78.48523594009917,68.5671190960943,54.42689143906079,41.55892798278086,30.678842519349182,20.73423039333526,10.153531000466073,-3.8990022436542433,-21.469262356064668,-39.329937492144666,-57.96252966012691,-83.35154094694482,-111.41093795747793,-117.4559474306484,-80.35270200340366,-13.978860697368534,45.09472942200218,74.58986536750105,78.86853572017588,74.19676397902523,67.67554108935457,57.07171709798577,44.30311563023606,34.61628134266818,29.025621004215683,23.42026629683209,12.373531974628943,-4.008588396613538,-19.85594095300737,-31.54140429325436,-43.997522423973365,-65.69392722549065,-95.06902034435304,-114.13480095613407,-98.42484898170433,-42.311139803069295,25.081910320392556,65.23002302812664,71.54080650586366,66.1368552394302,60.80487488319182,50.668486291146706,36.65475724669121,27.86586070432452,25.82243955215444,21.661262184023343,10.850851765384146,-3.231488769850134,-18.593362696706272,-34.06287522768613,-47.268353687517184,-58.956767408427694,-76.05108258982271,-95.64503829836991,-91.16763802366374,-45.795403022484116,16.10375190629893,57.83636373765161,71.73533989209045,72.6266826139752,67.88034103323936,55.91766016815355,41.539094899675064,30.965105460676583,24.279293845017538,19.61248167991053,13.953001633523805,2.6327546457191118,-13.185231955724229,-27.26250405401,-38.58834717830058,-55.368660314465515,-82.03617748130704,-102.9696156086404,-89.81825451052222,-36.028781034749656,27.41968617394234,66.53168271345068,77.68790620087988,74.35128253237133,63.94719166052622,49.16832877190742,34.89544731331767,25.231915735975885,19.12442950170026,12.81192463178991,2.931877339864984,-11.022873902565323,-26.572187519432024,-41.277767924671686,-55.412314092212235,-73.48911244715535,-96.31139336372249,-104.84471044650519,-73.58042825279439,-11.083480854156385,44.073448866714074,70.9653466865933,78.48442730957308,78.0513156477007,69.83772121403301,54.07822755484179,37.4313266322714,26.086614988501374,18.780670821763422,10.706499187861308,0.5766573268341939,-11.134249884773867,-25.186828282950547,-41.21067221699387,-59.54600431031763,-84.05310525664089,-108.48566484445581,-104.70456862622724,-54.18785801015502,16.765986871917214,65.64385242256012,80.70822534249251,78.3293394131294,72.07531850541945,62.76007645799029,49.32728519133936,35.139642656119236,23.988109732644514,14.519687880519346,4.301611012039469,-6.3615093155410865,-19.377462755655213,-35.783865387974465,-51.247374534180935,-66.77864233774673,-89.17849190589769,-105.96156105395357,-85.47460818244458,-24.231502981840077,37.82762004858428,67.27322425452388,70.5695399211874,67.34278012056006,60.893065262825026,46.78091910438047,31.048136461588697,22.720990094610972,19.032944196106783,13.420099167423377,4.652175653318472,-7.007629925610757,-21.908712077950923,-37.64688833270445,-53.38354805522221,-72.94735513842738,-90.34349283619615,-82.76456974059569,-39.465652695486824,17.6609155145296,59.78102698169811,76.9302381420222,76.38378958429176,67.57502975787253,54.66242346280914,39.965061198975604,26.150699980866616,16.23896749456045,11.556218849380468,5.4697935554056585,-9.328578052041168,-28.26602496870392,-42.87213298387055,-57.11973935801918,-79.54256083271318,-100.0880191205734,-92.03652884023978,-46.32603948874913,11.363971812134723,51.72172797092815,67.96851837224139,68.29070326590346,60.392425376217,47.79759708524852,33.691655437741815,22.455502824868976,15.099031206965881,9.1061293033831,1.4236907679125737,-10.660606478484182,-24.804143010498628,-37.38750800491623,-55.29591917472412,-84.61061847685828,-106.82410157837882,-91.6518048162836,-35.66087567255003,29.440184222843826,69.65725559773954,80.1362500935271,77.07140257336391,70.46148156487605,60.17598980926777,47.97355164820796,37.86602744742983,28.188078716048903,16.245543266064,4.134603674721367,-9.284330003901626,-26.65416474409703,-45.78586016075689,-66.49002144433747,-91.54506652229303,-108.62586566731281,-91.90968333285369,-39.89962438864637,16.362582865456968,53.109771039625805,70.55297302240217,75.03404817804501,68.49763753718199,52.94789703197642,35.562701907679084,23.66161418457066,18.289162428689778,14.91243687655503,8.42432337675567,-3.006711634172534,-18.44909709083939,-35.61812819226824,-54.694464387658016,-78.51584276036667,-99.6265345130645,-94.24944331879779,-48.655295344754876,14.314238484932622,58.62935497780853,73.33421042319068,72.21553098343558,66.91093373848695,56.01950591511242,38.552619529663104,23.58488543361628,17.84699445112797,16.128601941762874,9.606857501105216,-5.48487713393293,-24.95715883326882,-41.37518605458358,-55.79451249005001,-77.68363309831615,-102.85184014826656,93.0,116.0,86.0
71.89573265317065,65.13096352692084,51.63447417249868,37.989564571924,28.72529844137096,22.796697915320905,18.306010793591504,11.378154161965686,-1.7317570513501541,-17.668033133167853,-30.5799151510596,-42.43525996656928,-62.292016381715875,-89.9213535172022,-103.70343271862444,-77.66073217036721,-16.79979774689227,42.011736366628725,72.0764350976908,77.6931172130544,71.95567124587717,59.96367416111693,44.73592362001381,31.57749999805646,23.253420867776164,17.497722468938903,10.418228898092064,-0.7534481014065261,-15.49044981443574,-30.965154643543052,-45.29880437183856,-59.970400265275046,-79.98218912060719,-101.60007799233172,-100.43571102684199,-57.20082041093517,7.2154065131965215,54.73752861155245,74.41608494986885,79.00569288828424,76.59267063474384,65.85699114877872,48.99287034861863,33.50504764192054,23.792867996745375,16.668397151045564,7.957551333879531,-2.629713748669297,-14.922990185033962,-29.67459190312987,-46.127729395890974,-65.87712666006709,-92.01690770843567,-111.7669795910138,-94.62084669799522,-33.69678343363785,34.46496748459648,73.00604368671168,80.94061672131164,76.71114566102385,69.81447648500665,59.23049651887606,45.08093264120831,31.557292358909987,21.242507665781233,11.653423233392568,1.2747190904637347,-9.729701542503298,-23.90085772616155,-40.53016414484223,-55.37543911849644,-72.5031029300578,-95.942382559624,-105.00819491050416,-70.74481923578539,-4.254241676670917,50.11306299891142,69.90027109622926,69.79062731257106,66.07189353924453,57.59308995478937,41.86760180866036,27.761891857214195,21.54074375109142,17.757630453852162,11.176271570322756,1.6107865863601136,-11.020967755995947,-26.522035225521556,-42.052271395899616,-58.54205917699866,-79.0019970158264,-91.78380883639302,-73.49109697640563,-22.905583304929554,32.247579057374736,67.18962701184068,78.08614496450454,74.41607956813215,64.16826907116088,50.48379093663023,35.76486155930306,22.735111792871475,14.471040007597649,10.403130744028012,2.1420763178711315,-14.851147522204986,-33.05758464027636,-46.51527470951859,-62.71156955137678,-86.74849255599858,-101.78492543814801,-82.08793670511297,-29.293529912280263,25.568705226408905,58.649596013873484,69.2645079352005,66.642163760005,57.128243103629295,43.681794656824984,30.00050788659715,20.016645505972388,13.354139448762794,7.213146801162784,-1.5830666736724166,-14.794965151250302,-28.533968970221782,-41.477925373936465,-62.85264118801314,-93.21276905710175,-107.21421905779647,-78.75349346458901,-15.95496928071423,44.49182366130779,75.15978362057355,79.91990592663815,75.44762708858998,67.90131225713797,56.63319809328129,44.77207864927609,35.2384985358529,24.922621495300223,12.689653157863342,0.5746182518121442,-13.91311893577964,-32.14307501071809,-51.425102448786674,-73.37635608106808,-98.43569444021507,-108.13656296061241,-79.48308516420371,-22.538255110998115,29.32272006137692,59.796293357137166,73.01371555621776,74.26175138894631,64.7099303995892,47.711303647463396,31.37762498472864,21.56587176688746,17.375327086181553,13.506670149478879,5.62903724211564,-7.150420262084715,-23.315066229572697,-40.79663316863425,-61.072886138680346,-85.72878526067294,-101.95062762471166,-84.90392307692245,-30.488786585167922,30.176489303167802,65.5651026338868,73.86594269823652,70.98104699430921,64.56001707155671,51.39580189714393,33.47440655382621,21.000213921915435,17.372269776910287,15.033435418292926,6.099637351268644,-11.026014199795366,-30.218047213745827,-45.36480676137116,-61.033477889128584,-85.55751694723006,-106.80171455550837,-93.2454643710694,-36.47578246988635,31.313999304706915,74.08801980091638,85.46479581151885,79.53837029354901,68.12034181079326,54.578109772032114,40.94248893205472,29.168958583362187,19.323668180162713,10.37024310393701,-0.9091157406606248,-17.59414873097886,-36.2273964079776,-50.811524403633534,-65.72065653212384,-90.55643976699383,-112.72863117095129,-98.34779438911633,-38.754689345974704,28.76245913177228,67.46128072799804,77.20194297619149,75.84102816886767,71.6825775437402,61.78118848413791,44.79280263220219,27.843691067176653,19.72703819187653,17.800512423314274,10.626912920382614,-6.3190401069323565,-27.45981727535883,-48.274520367014965,-72.14203378625017,-102.02221335563054,-125.50812121297291,-113.9291067672636,-56.5473998941427,15.679529194682106,64.37740439030424,83.48719492263703,87.36104808948137,82.04656087735057,67.61858702030781,51.89959846447547,41.91956499470762,34.46242097651944,24.498606329471563,12.294853144065378,-0.9547575459404395,-16.35612391726084,-34.25293295802365,-54.06517724136249,-79.64876811831942,-109.57622693336396,-121.41884941330729,-89.4548721490635,-23.108480887032318,37.96576969875638,69.73524901494515,93.0,116.0,86.0
40.89629391145049,28.29010582835281,18.54364547832686,8.700609299670914,-1.7694171314975902,-13.389375593498722,-28.67140865288594,-45.05143328464315,-59.66749102751322,-78.95869923336595,-101.60526429917442,-100.11409241876736,-53.058106909567165,14.524095312692577,59.21503057247988,70.88381319913638,68.85850627604269,64.40758025447641,53.581812106365575,37.113781350896296,25.23686546171883,20.548387206568748,16.207535243783422,8.688761465799665,-1.6826626373937656,-15.306314095074338,-31.104166978787024,-46.5040563360121,-64.14434897540323,-84.53319434825437,-90.45490932465985,-61.291651498656925,-6.007113812281256,44.99113919196688,72.49796107167175,78.05096709562542,71.93647907534812,60.473854458073305,46.21707272222018,31.700623368455933,19.73453917872118,13.125894545364948,8.871893989172193,-2.017438905834529,-20.465335615843525,-37.333256646201086,-50.39818118574768,-69.13104476025889,-93.2906168344478,-100.36923877243659,-69.14213050220135,-12.164954038231922,37.7781007518022,63.643620581081045,69.48711711155747,64.4429035740381,53.526920658736024,39.53713946073359,26.65717947338517,17.867881532447726,11.652949028081482,5.097570164944812,-5.010735540234306,-18.96133725555444,-32.09614215114721,-46.32447329921571,-71.37611263621902,-100.46457410764773,-103.7963771213647,-62.77436681493509,3.4813312363894804,56.81003025943973,78.41555344815178,79.03363301313749,73.61467059823086,64.98845265401542,53.0390486222197,41.823944759651575,32.52314213445612,21.462325242916386,9.195198539254882,-3.196203534382832,-18.896942637798162,-37.676612797416006,-57.274199674787816,-80.67770464827446,-104.10978686697095,-104.17402743947264,-64.51045870518935,-5.761384047920426,40.347497721608775,65.05492485043702,74.51084020975931,72.57109878855566,60.25740332842924,42.54976439268139,27.786148218482094,19.97091972420442,16.47873853380712,11.74018533442854,2.4107180453536947,-11.585502136977436,-28.26204591315507,-46.19087681116122,-67.92495162656598,-92.35209324308484,-101.34944066906252,-72.15271114872357,-11.80864611182067,43.69299123632166,70.11350513845824,73.54502880365361,69.53976806406051,61.59810887034905,46.299955344042424,28.908225051916318,19.24295918180322,16.99562911894283,13.348633360361477,1.8476292092098674,-16.744090395422482,-35.05636929689339,-49.351594400487365,-67.16396816094627,-93.33578393161105,-107.6693019982626,-80.45700587149987,-16.065516195502788,47.161630056504364,80.13401399562964,84.8280357671612,76.54169643496546,64.36705428389538,50.52843810196078,37.31692222051955,26.15238927027739,16.73157644626568,7.551447297621444,-5.17319824810573,-23.106406856195978,-40.94568362139768,-54.55053835162428,-71.79665836684451,-98.62409412803548,-113.65137032823976,-84.7871266024894,-17.883961548059244,43.60445377346394,72.49319969976241,77.2725296047883,74.95270256505863,69.60208423571461,57.45033667427873,39.405175603138815,24.4195323775687,19.00916609735287,16.705370296658753,6.612997366718529,-12.334192021705709,-33.485283932536845,-54.59500231380299,-80.29143468687559,-110.58484539906111,-126.98638220892819,-101.38955597321076,-35.15540390680611,33.15143189071966,72.38019693135317,85.61357669133383,86.83332339467066,78.62730134153045,62.73607528737,48.38943604905834,39.81194847492205,31.917420369556435,21.11228327792609,8.58653745282483,-5.112055483784945,-21.33334679741376,-39.703181406058626,-60.64128652428517,-88.4084574772452,-116.29673631569048,-117.1543639155622,-72.28177414510122,-3.193040594657911,50.27311407599439,74.14112263237122,81.15945766799811,81.3777085504995,74.53127256614279,62.44794577801664,50.598140163262556,40.75673161996627,30.849141935370685,20.418439838542245,9.719288218485332,-4.500258078323372,-24.56712486280211,-46.1771642837763,-62.73433683492226,-76.99980015555444,-97.6769848524892,-114.70251989814552,-99.8323704342622,-44.9709419943847,20.737028129277828,61.72753158615844,70.49985674114716,64.74408543010232,58.21487373502364,49.82776181241577,39.808593021480455,33.6513083654424,30.01751958381754,23.659902326270394,14.888579758799429,4.005938506886157,-11.764071788082221,-31.024184191649788,-48.27518656058685,-62.45906945187339,-79.51674857729684,-95.75682633285541,-87.72723579892703,-41.38299566781349,20.04547411956327,62.6133838226596,76.34536662489802,73.7249509264853,67.73613609435606,58.370530602806994,43.05186682360282,28.99387617823517,24.497409282231683,24.748002703489288,18.562357851871234,3.579692010637746,-15.019577382342739,-31.842937051139177,-44.67007002195613,-59.32265231649959,-82.67144400453257,-104.04447195511362,-94.16825222429526,-42.44358545935115,20.09848923810693,56.65721282934768,64.28866737234037,63.64044392497966,93.0,116.0,86.0
-8.811220688542946,-23.00790526321867,-35.665994170940266,-52.19824699547349,-80.43148957883467,-105.48522103251638,-96.38587370561154,-44.54938607535202,21.687494209937974,66.25056034715271,79.90598455926785,77.7508173785367,71.5265969230899,61.75415051089423,49.53042856286143,39.0850760967871,29.612195403741378,17.897401491952337,5.737323766822689,-7.27876650851561,-24.160972423039496,-43.220003573431505,-63.47799723052697,-88.15353577282937,-107.80007956396342,-96.58621769121511,-47.86863807000042,9.75993403047105,49.48862183125774,69.07452915170612,75.08058197143359,69.98086847130658,55.32429218446827,37.670002295316685,24.820994789848015,18.75831507261959,15.45832374553474,9.568457079683084,-1.2104779740018186,-16.244773410128015,-33.2768981649477,-51.91452530037879,-75.13704931819927,-97.74802938651048,-97.32997472440383,-56.569569902151514,6.363353722535862,54.546098265945574,72.68450091553468,72.7095971492349,67.82683629286193,57.94101801850616,40.98977284461564,25.07092779638756,18.169612605039823,16.47577366427035,10.962561201747059,-3.0510712850008317,-22.41503439939902,-39.46419477411269,-53.6352631980662,-74.19236253740408,-100.22520623852283,-104.79824730576055,-64.30182795459528,4.162414550683742,60.240593552811916,83.7392930524359,83.16629258347925,73.27359596433345,60.46016527770115,46.540651768152955,33.874878783536204,23.284378958966105,14.18206412519947,4.425534236466147,-9.93172135258069,-28.60983187809398,-45.20653720657498,-58.58627146489532,-78.89411412739553,-105.81612485144225,-110.61390631987278,-67.74485464020158,2.3823985989883307,55.4494138922063,75.46971904352938,76.86287693975102,73.86410356299878,66.91630884776305,52.56074184056343,34.28729836954274,21.899494395479177,18.585407296591086,14.87801710477843,1.800698610411344,-18.494218840255368,-39.45059363050135,-61.32324466946779,-88.96052351270228,-118.09243896064562,-124.73484459719076,-85.15955841915294,-13.659421960904305,47.91832840361809,78.14918545754108,86.85196132178513,85.51683020064863,74.4915715613066,58.026229436890084,45.44000634137849,37.73907418406534,29.090013554167342,17.592370382149646,4.7986586067276,-9.498584631246437,-26.49047110024059,-45.318913543808726,-67.85841492673984,-97.35424930082597,-120.71514411705515,-108.75343797653278,-52.94358300877382,15.199248222169238,59.90825660181252,77.18737544449276,81.84234510879693,80.16782614094818,71.3399901335316,58.80755552336624,47.61381071944227,37.986633426477916,27.836787571216906,17.431445273231244,6.166192224517584,-9.748774678459695,-30.99986473465068,-51.61824527080038,-66.63795241627639,-82.20648818035794,-104.13535142629765,-114.77575214239728,-87.38534287559584,-25.254396850476407,36.129207892838714,67.04305663781247,69.40264749931825,62.79876220187101,56.149430051785366,46.85106479313163,37.495894692767514,32.621103872845595,28.562586901751114,21.2665724730359,12.08281394577097,0.017379036397444588,-17.190457842647437,-36.434216172053894,-52.482600899473,-66.87182207767557,-85.04156931633193,-97.13785735829038,-77.93015679703255,-23.46968821840896,35.30379999846465,69.25196573543396,76.50148537281348,72.1018771034702,65.60787973794422,54.440063453388106,38.34319539894979,26.639004513323037,24.61560453934288,23.963270970974072,14.961121660232394,-1.683665061424978,-20.264371959237625,-35.87478305837031,-48.2771339463833,-65.17072488870153,-90.17440422546154,-105.65351075603168,-82.81421473267098,-23.495496639571773,34.241434076952366,61.02953987478592,64.12310608492875,63.714995886781956,61.877319338577955,50.006877350888,32.47498090706801,22.265720792696104,21.809670885233352,21.1974735386988,12.21048913657072,-3.54772501854347,-21.06665467720833,-35.964206740857186,-48.67255430203788,-68.11606112742557,-95.1782886130688,-107.2808695867783,-79.18238663035716,-19.124624135308338,38.03499174554855,68.55578092676082,76.31856100146197,73.70803862328592,64.88124536942317,50.16989419618702,34.73436850346607,25.280337448795333,20.75018647173577,16.294918694396124,8.174723986427939,-4.734676192357531,-19.819410018825558,-35.744297188365884,-55.50565521665688,-80.5279727845506,-101.35670313913718,-97.55014348307537,-56.26674850417802,4.890468519069657,51.24755271912942,68.76592918405699,70.01393753856556,66.30913037607198,57.26309569695777,44.09741874269056,32.501013559728186,25.368516205641434,18.87895177910218,8.667926658902076,-4.005772936556598,-16.93198270379437,-29.695126415848392,-42.9862749128299,-61.53287690284248,-85.51721959454865,-96.92884024373629,-71.53206821026397,-14.860657534727078,38.04093660889731,64.5438470904925,69.14433662078865,63.46893954059275,53.796088902214734,42.367272677221074,30.55761557072366,93.0,116.0,86.0
-105.31500609360185,-97.83924920086919,-45.63842228986153,23.18637383943322,70.38568687322119,85.30808641323408,80.79892594913211,69.79096617433197,56.44675435914083,42.673226896493674,30.614071486443745,20.547479743893213,11.599423470262519,0.884985107569817,-15.105938693291701,-33.904113186562086,-49.09301181005798,-63.2654202260178,-86.78255012787268,-111.16028869054875,-103.22653704817127,-48.240092754070844,20.9792751963091,64.31311066122015,76.91344475022831,76.20034154080881,72.46673457299998,63.55938392200822,47.28807818449275,29.70966308675998,20.24159707611408,18.12020832791375,12.179018457363542,-3.6476579289832607,-24.649048393065982,-45.455033934140346,-68.58893603338382,-97.90977612572173,-123.75245259809516,-118.32393418814242,-66.04574132357843,6.83131074018942,59.82591864948943,82.13134592988088,87.36018968391807,83.3432764704997,69.85294063762416,53.71251550041451,42.95324183139795,35.54570903679993,25.999518553964027,13.982432918149627,0.8961853160366697,-14.135495000651602,-31.77882439733621,-51.212741238530285,-75.77642563209437,-105.9365203516368,-122.0360793042065,-96.37252572327984,-32.54959978268929,31.375313572569667,67.12000567325106,79.27304953246136,82.04802178489271,78.3159632412915,67.82582347464826,55.320717259866676,44.77853431620737,35.14642441727854,24.809392187265995,14.405087577510134,2.200820817613526,-15.496119581327232,-37.378360486656845,-56.50021822216849,-70.56789943865915,-88.13813390866996,-109.74022461461489,-111.43921265893852,-71.78963949767065,-5.653251245221781,48.734770299830444,69.84625495743552,67.65833567407763,60.94349773535381,53.80159603794411,43.849337095483904,35.635123850380566,31.65787941230608,26.78242849826486,18.746194758612088,9.050434673459947,-4.447641881297051,-22.806239171109556,-41.523926881077735,-56.50491118365778,-71.71401927449361,-90.20604999452716,-95.74523546127655,-64.90413898079397,-5.230351629165311,48.27975932021284,73.54473670831861,75.73449144461796,70.40697162061743,63.06524251207066,50.01217348844044,34.032130284365195,25.204556866806012,24.856858902145664,22.390761836062207,10.69634502708546,-7.101348349263475,-25.237000351990403,-39.568826688149876,-52.27873665050112,-71.853417400093,-97.00040431123482,-103.82418305670507,-68.127880470024,-4.75489428362903,45.508014123384186,63.337469472028346,63.82404603913986,63.75751569524071,59.63740103854653,44.921431364652975,28.35951280762365,21.424713002319702,22.18596639330234,19.551079946524187,8.125431900275007,-8.634324102332227,-25.793716123114137,-39.5715325879462,-53.18502061329495,-75.7107522485717,-101.65280073250217,-103.7299603372326,-63.76629179229502,-0.7516396901148399,49.878027155181066,72.50272046433852,76.27856200271508,71.79299167835212,61.14968632451649,45.39960378762141,31.275021369890187,23.681047973171758,19.646440125868743,14.452759251967525,4.867793434519256,-9.00732535045754,-24.27192011128227,-40.87470301341621,-62.34936454768014,-87.74787611568496,-103.7543767941832,-89.34955934083987,-39.09408792399972,21.073278235021107,59.023236392715845,70.03249384719226,69.34055204349217,64.32382460732501,53.658250537530826,40.34257530000327,30.033581028001677,23.703128466319036,16.35538536837101,5.115352058247671,-7.743484570523663,-20.6532339531755,-33.350178554269505,-47.55632667941482,-68.30625991472036,-91.35507889026859,-93.9500409555945,-57.06241867383091,2.3862947833557073,48.600039790129514,67.5545787543882,68.16656517937233,60.94432836156811,50.61635464761559,38.91810781531262,27.386225090680487,18.709084147012895,13.755363811081075,8.7347233856009,-0.46610880962512635,-13.811533977015,-28.4620990003243,-42.85860963799158,-60.511491614653266,-82.24734946900824,-90.50170305760797,-62.592163977265564,-5.963954463849493,45.30488336748607,69.67758401736137,72.9594061678481,66.69027625404479,54.3109736210773,38.17215241627218,24.557818787028303,17.07433927262251,12.648335021888421,5.998106584961544,-6.5739558341556075,-23.084925651742566,-37.80719601088586,-51.666960175239865,-72.34286269450487,-97.20709722498168,-104.6143346271821,-73.86668264440077,-13.8996675670467,41.97778712790161,71.74773465493537,78.84589107641577,75.27534071122439,65.02415965062268,50.49588115880571,36.7177332031732,26.161371373412983,18.249382827211356,10.053030865277707,-1.5537888106999664,-17.215956756281265,-34.7485789929003,-52.86815028102226,-75.8122619172083,-103.56033220451954,-115.23888150373598,-83.80828686652994,-16.457257076537974,47.191178875763846,79.28196318741996,84.79367769027425,80.0250755393816,69.86271401114007,55.13318959020078,40.663468888668135,30.273862464393606,24.15562187270364,17.529672194405478,6.412879773037756,-8.376483659596493,93.0,116.0,86.0
72.30588126746727,80.68608715141683,81.72402625694068,75.85181607415697,64.15212652302758,52.039058614801824,42.02186161376802,32.222111911142505,21.79822953648638,11.24917738409123,-2.261935969323543,-21.641411382435056,-43.495134822184056,-60.86118342460505,-74.83908391575093,-94.61472139286441,-113.6765630330273,-104.36584616577456,-53.80600575906769,12.832050820233679,58.322342709526815,70.64699864266558,65.66912335242037,59.09810351758265,51.14368907543228,41.012740779608045,34.198584211553595,30.58711114783838,24.70214063349291,16.13040625284829,5.690802201163548,-9.364553360997302,-28.454297171863097,-46.231520446282225,-60.537801340582206,-76.98410893652536,-94.37371598081586,-91.06667486148122,-49.253584436153126,12.375635991904401,58.69552956273932,75.84196559728503,74.42707088865032,68.61910862731851,59.98764122201184,45.2717009124617,30.390840841276713,24.575372648132852,24.88820006497855,19.963823538214022,5.915521053230783,-12.540119872061844,-29.85059923038898,-43.06675081553096,-56.91777254250194,-79.17850035273648,-102.33085528697801,-98.12898700613805,-50.93246659851908,12.718059099955529,53.79397337790403,64.20325966059622,63.65238368707117,63.481396141944046,56.37677917017295,39.66435835239295,25.155506274414698,21.29641555237229,22.22758329408519,17.102219840876256,3.5968555592782065,-13.755310277357106,-30.189726212433083,-43.10116732917335,-58.547480071797246,-83.77216628622675,-106.07874176101303,-96.37370418742495,-46.30855388399286,16.428061362903136,59.191418849183506,74.89016146521469,75.61686157477709,69.37209986022205,56.93534682501367,40.78064951925417,28.426696956126033,22.382473190481782,18.437094031257086,12.2214051713383,1.1773150174337963,-13.37230533178543,-28.803013706261094,-46.44148032431521,-69.60935489115674,-94.25306296274344,-103.51297826162416,-77.90746855131275,-21.043701319900297,35.1783613259759,64.40004068259428,70.4079392162603,68.37614049053461,61.817386612363755,49.81324322786974,36.87214261568344,27.949720686958912,21.932604948584483,13.461709657075598,1.4425014246350425,-11.478625509392854,-24.349974511696008,-37.08934640085631,-52.734658567410996,-75.42081926488011,-95.48290012831403,-87.3853580482411,-40.5616890030844,18.33747537992151,56.71735043596178,69.0452525812587,66.57895238774864,58.177429504000656,47.323895657035585,35.47028333334448,24.46336715031541,16.9881456746264,12.544985889127894,6.5932243062910585,-4.001357918278078,-18.044810571951864,-32.59749317123257,-47.37800056851481,-66.7343657422344,-87.24815223213527,-86.60540601965974,-47.86962468758428,10.90532784628757,55.26005063539091,72.16200737738238,71.8370465952316,63.71412632187269,49.803547350632556,33.690660219237564,21.799843416398225,15.715694746888085,11.176363895341392,3.0296895217404085,-11.205524356886334,-27.686438239144127,-41.587650437153755,-56.68327483742159,-79.7601288120628,-102.35635963960978,-99.97607035356174,-58.24268809480829,4.1275047701739895,53.52863420771816,75.53494770072996,78.56401871047667,72.97146194771877,61.04788830867888,46.25093506580753,33.31966013149235,23.69321664917887,16.07263217156167,7.143007023564191,-5.7204132691313045,-22.22043079581621,-39.83965152143144,-58.74395081505913,-83.79938717665217,-110.02120084372925,-111.17607156646511,-66.56522776333878,4.141034280019003,60.04393366241752,82.79905908147325,84.00165026663605,77.67529507650401,65.9133328162845,50.693072165912106,37.154800416932765,28.18991973760917,22.572406526282496,14.797098775437966,2.456525516902397,-13.247562976057925,-32.35022874472293,-53.58874397060785,-76.35092335988605,-101.21186005060451,-113.21369419586114,-84.85117084117016,-19.640717678678786,41.85831024289369,73.11857310501001,81.7527575625414,80.86497857635898,71.64023844267058,54.67823959132188,36.829088753457164,25.497474146952325,20.951406459097445,15.619041666426089,3.1779003983065457,-15.312194304538336,-35.172846734584475,-52.304952421793864,-68.9314151064696,-91.63395558255999,-111.31503705975774,-100.58813634807622,-48.484141002530436,17.939530269727058,63.90862377702546,82.21792621328555,83.08284684701972,71.63636970397675,51.87108753267548,34.97264877067567,27.86484172177236,25.475694906479102,20.13070007168359,9.696765966221886,-4.352236336881728,-20.731259401782694,-39.15228372857128,-59.72744404631802,-82.51339078727702,-102.24047756530483,-100.93554943146222,-61.28802516733184,4.067252400426254,59.27631118553143,83.33047106580503,82.55377517547792,70.96419032629268,56.68384645659572,44.21136808526619,35.69572485206372,29.553198705444714,22.96611990852209,13.104150490826415,-2.97408403521078,-22.287093966777494,-40.237607901092254,-58.8526025413354,-83.87582830405971,-112.81243354586464,93.0,116.0,86.0
63.67015437938364,62.57824859653512,52.188893961572724,34.62538488925434,22.95101663393757,21.606478714730162,21.68887413728365,13.906685783947216,-1.2439806621299085,-18.799128694366363,-34.21985430041762,-46.815709918958795,-64.87834767014843,-91.73679113230784,-107.67447161371922,-85.36660441034715,-27.76550007762235,31.738619822970705,66.10281022710973,76.08451173658827,74.42495209315794,66.42293817823548,52.35561819719861,36.526540853695515,26.15605432432821,21.250400163170333,17.032218201027444,9.554767146508821,-2.8166293276110563,-17.77914798101177,-33.49610306554107,-52.521598153925964,-77.0871621717126,-99.51141166477665,-100.19469933878955,-63.62960222006165,-3.092275565626145,46.78638192884699,67.76418409771294,70.22540294066003,67.05950296186683,58.804247161549114,45.88862993304049,33.78239537828605,26.145657575566666,19.91793290879996,10.241576247631215,-2.282708396298095,-15.212077899700242,-28.014005580453542,-41.04461162012165,-58.60065808585431,-82.4559056480933,-97.16136691307203,-77.2835585915756,-23.016291832199492,32.349725486673805,62.55020910252197,69.33591112169819,64.53400351733352,55.21618678803767,43.945767152870715,32.08101485767004,21.859648826665545,15.553513643194698,11.196298144802151,4.0299828037763925,-7.834881874602773,-22.30580435064361,-36.70506725705739,-52.32324633379711,-73.21744908439433,-90.46009174737281,-79.24665004962569,-31.350783870919376,26.39283488001257,62.74544848236507,73.2399002370449,70.12631857790622,60.23354462116956,45.0843156015715,29.60120166835948,19.570110572840232,14.487161958271978,9.390687859713083,-0.4987947107426042,-16.03658002339452,-32.00202911648308,-45.43197264956618,-62.48223090806325,-87.2662976916541,-105.35920934782528,-91.79281651869456,-40.78414752389181,20.91317499722652,62.62310573429131,77.73749249445926,77.6407765125329,70.11262205906363,56.82118829734001,42.19170960557121,30.20928067574178,21.411502938189596,13.78051208270926,3.88250378459263,-10.206959912006132,-27.30323625173792,-44.98706997294229,-65.19446022177225,-92.06228595787401,-114.37169373830632,-102.9682157266739,-46.984938835047004,23.317439409286163,69.90244419924026,84.51731979319038,82.69151580029143,74.85438720065353,61.64670628179622,46.4176717760927,34.04765767992258,26.427712837272317,20.777854043549553,11.653492454097629,-1.7588206863655016,-18.41997778494683,-38.36943760463475,-59.91713747566305,-83.51457125516822,-107.27050664629643,-109.98175638490868,-68.34299248061586,0.390074840581378,54.15077783738402,77.16146008991106,82.23711444299902,79.14708941695109,67.33015652023713,49.218189038330955,32.691415211682525,23.72099037101025,19.89677378703084,12.835119651319978,-1.7258422646093492,-21.13480707057714,-40.48523924846951,-56.824422776435846,-74.78427081222262,-98.6893850114404,-112.50986687562144,-89.23056869586871,-28.9377821579229,34.25960784223899,71.64968179112257,83.86273395708484,80.98041096617052,66.39073771646743,46.16000503768846,31.94793249468487,27.094230391177938,24.44512108534838,17.600664978255317,5.928708815850086,-8.870218848922185,-25.845605748912487,-44.85831776893295,-66.13177477452653,-89.06570052108128,-105.07476059520158,-93.59532900864819,-43.58304682082691,22.555958881349266,69.55701342956515,84.97572275869186,79.83844243844548,66.88382283602175,52.736657013107816,41.348098956219715,33.81450658299175,27.796420400467724,20.62447677232833,9.11150380420805,-8.501452715487542,-27.666752011654502,-45.29381719533,-65.2325672060505,-92.44708939478936,-119.00608017066105,-116.76008134835905,-66.74963071222356,6.810975044706927,59.660930088677745,77.5137867086537,79.12443703769563,77.53236650393518,67.28367853643883,48.41064847803301,33.95975770544681,29.94978757210198,27.071177190317954,14.368666156276335,-5.703700513487933,-23.192106849623606,-37.3974900019313,-54.508439821570605,-79.3845427780159,-109.19442576987858,-121.7879063152699,-89.25444930620053,-17.90159449884887,48.91958744629501,80.14004660849739,85.04502989468854,84.93649277216485,80.92276245294939,66.17531001129436,46.888507225690375,34.043974224714255,28.149289196256042,21.622155586997398,8.641923645501008,-9.887809062713268,-28.882390021187753,-46.876098128781145,-68.79312884070396,-96.55393587659287,-117.62802495018117,-106.10259467082804,-52.83636563612735,14.630721928468336,60.9639267956628,77.72852137541327,76.67548166701931,66.45590478732173,51.62815864653763,38.28288564550038,29.48298647452198,22.974217920486446,15.759849454219212,7.184037288143074,-3.307440048904994,-16.561388277192055,-32.02725162908413,-50.11879929831354,-73.332378870465,-97.94986483723774,-106.30158556129132,-76.85168701064062,-15.864393189804566,42.31463232961318,93.0,116.0,86.0
28.82233673597815,19.618170071832015,14.303738575506248,9.589431292360878,1.0444063340334562,-11.88981368471209,-26.533970587022182,-40.87679496710691,-57.800523902951284,-79.54219856966438,-91.17730511519665,-68.54308943873919,-13.984485854559134,39.876371745983406,67.95529347931465,73.24428043254792,67.8914877205319,56.277089342857465,40.326904419842016,26.02001585212073,17.781840518241104,13.254372494246951,7.1829652220066675,-4.552727242508716,-20.887767916899914,-36.028136719249694,-49.582507428176065,-69.0737361216386,-94.30181347857429,-105.58583954625371,-80.22460785639291,-22.41385926302187,35.84078940906525,69.36571807212174,78.7179681633853,76.14945313540166,66.73501192260937,52.489633774048734,38.38123482943786,27.3780075318213,19.239039691758702,11.289356525613679,0.2478069434450059,-14.956648965875996,-32.40162018769882,-50.31051615581063,-72.31020282819863,-100.10722649316654,-115.77982508302635,-90.7085352859546,-26.159828736445824,40.27582248911961,76.91615099632192,84.92697729376226,80.96099666267104,71.54570623615697,57.201385078812855,42.40488665929441,31.366725664686797,24.85849353165898,18.646951866237686,8.14128940123895,-6.22705813479991,-23.89184734002017,-44.50098533195015,-66.4073428759991,-90.85195737783981,-111.62914557526298,-102.7135933963469,-49.37473437574082,18.940749385564217,63.659861428291705,79.75971709009205,82.12798348482688,76.66327614849529,62.45223706280214,43.90407408230847,29.246110449507245,22.42237998698884,18.535122335772044,9.373717994937575,-7.044550076581417,-26.946696710509084,-45.48463494282951,-61.46028328740885,-81.29669666136348,-105.00906185720235,-110.40003024549159,-74.51266790299766,-9.20199103808515,48.18468226712615,77.2396285069885,84.32159976172007,77.87392493934782,60.614556882918365,41.022521344283014,29.785648257655716,26.493700993543378,23.01909151284038,14.654101378706333,1.9078543119328204,-13.564497363028877,-31.128907362983085,-50.7511623138459,-72.72357837716167,-95.14567772664051,-105.5640510577891,-82.76923184784677,-24.43533832049101,39.25994301583866,77.02863709685677,84.91533984907346,76.51890697836397,62.71486959481465,49.0374799630033,38.83424335661255,32.05691288118752,25.947448158367,17.92138059867532,4.547880701757182,-14.14234667155538,-32.86298575796941,-50.530052102845445,-72.29902633868278,-101.13735801162736,-122.74789983329961,-107.03879516441415,-45.8467324030318,25.698256263613306,67.9235945105142,78.64070649477281,79.03096897612213,75.79059075899315,62.251589122509806,43.20426312422379,31.907993320573187,29.62982969261356,24.61067292121681,8.855406088284704,-11.30187983643214,-27.382499285087604,-41.77745086710057,-60.77334296227057,-88.04450471695547,-116.05779983213328,-117.68790190333486,-71.09527295045434,3.9564171365303356,61.88060105687316,83.13664969315701,85.02825015698402,84.60000370182705,77.78061508443508,60.49271800371273,42.24513162316299,31.897582237692443,26.69334292407218,18.624801538747608,3.66042758338167,-15.537544721189265,-34.03945658693362,-52.55739303301651,-76.40778128931679,-104.37309468611475,-118.71456033881519,-94.40063346434411,-32.97802049448091,31.193370743335958,68.46037517161969,78.70337836780024,74.47588074808712,62.39130068910577,47.37478000305727,35.29275954896406,27.54078607730184,21.024167291027396,13.427540359924029,4.396564426734864,-6.842934776554224,-20.852627516617506,-36.86503599498182,-56.259671348006876,-80.78358560507974,-103.16161673938714,-102.16209941180887,-61.20656902207601,2.832560700048618,54.3696886297624,77.34997169921247,79.64437842667783,70.42467370445992,55.49245663321051,42.55758516590062,34.79365358039967,26.933974515714528,16.652694498034784,6.827835407103133,-4.105463274106583,-18.942580173012942,-34.62980047013616,-47.99626425763097,-65.76302879808324,-93.13500893489952,-109.21041663407537,-80.23661655097438,-13.117740385428895,46.88289451304049,75.78248465716445,83.49866389076254,80.63385664291431,67.80442812341364,49.27632826731923,34.502922042804194,26.727695974286625,20.865899341311383,12.568660599714866,1.108944256097057,-13.85633124685247,-32.84334077629231,-55.536712996702015,-82.00545561001033,-109.80620776559279,-120.47200710564486,-89.15912443997182,-23.13541499971338,39.08420424965555,70.85990134568289,77.10163731358122,75.28292271285729,73.11937603909786,65.11537947609663,49.134983666111495,33.43664662255466,23.154360054674658,13.879363855878115,1.9816743447461338,-13.411184996092729,-32.43046480364753,-52.5571850956699,-75.05763324379126,-103.29167918292349,-123.02695895369614,-104.1449696084867,-42.40917749862804,26.613836347918728,69.437929611396,82.94913484292158,82.26400001537164,77.5701127514137,67.11796128497981,93.0,116.0,86.0
-10.965254465825016,-29.63037974835992,-50.705087256079665,-73.144674248529,-98.06274872765715,-113.44990905601118,-91.36635107332424,-29.09482361961131,35.239063956441676,70.64132586233161,81.30920728077992,81.41475896536066,73.39853919685852,57.182570274799964,38.945399254827166,26.521228879198237,21.397115283280364,16.678621136617327,5.2680813612955975,-12.658572121622004,-32.62760415216088,-50.19955028733075,-66.45117269163168,-88.31786870995214,-109.82445144471596,-104.57035498690797,-57.137998810111554,9.724065405528552,59.53450627559246,81.00706287213589,83.71050417649703,73.807125777313,54.61666237772551,36.67570394995901,28.34298862404517,25.84357912930239,21.147405102633197,11.336889607502147,-2.331271655766098,-18.43048477823178,-36.58107678547556,-56.846016266424364,-79.42589933825435,-100.31316011136755,-103.14913822865773,-68.71291180672061,-4.840257181058006,53.581828343928024,81.88504621136528,83.53737982179182,72.78376737258453,58.5637824470632,45.65345687271633,36.62739847215905,30.34527480334655,23.953275462627857,14.749255974417006,-0.5110323977563261,-19.74662127272819,-37.923729288507154,-56.11464829921344,-80.07535761802632,-109.37129559003667,-123.22161080624615,-93.17178916990976,-24.049597980393383,41.83649258822841,73.37907214071289,79.04769372545803,78.74584959780628,73.07880868936208,56.68766270900058,38.745841679204986,30.708680176676765,29.05174375934626,21.13688291565923,2.9581950951755576,-16.461399727600703,-31.41758256019368,-46.55460325522358,-67.79125534190307,-96.93102878477941,-120.7037543757528,-109.23827589365018,-50.35258172248166,24.16829656606497,71.49548889882534,84.53645234137241,85.0050037591216,83.7154938583933,73.64493940132925,54.74110707015147,38.35584902493314,30.213824969350302,24.96608718582262,15.003919360017155,-1.6950857330315372,-21.08344726991478,-39.15735350409547,-58.72674034039597,-84.48485691396998,-111.13810176515112,-116.37331379702842,-79.34099322423033,-12.93630372406286,45.27259393485702,73.62325439501413,78.53786300064938,71.62367650518142,58.065914160326436,43.40278691947998,32.69875918356243,25.690696669186266,18.96782076142467,10.982981932652029,1.4245779535937346,-10.626197981528415,-25.290355733590598,-41.97472671872387,-62.888388268895554,-88.16710929297177,-106.41465008549655,-94.41786355356726,-43.491292018427586,20.321689088885105,63.855939833581076,79.60635511504995,77.91466175535956,66.39050344086225,51.22162547891609,39.91863683912612,32.80400647223571,24.08894470754661,13.713017290209445,3.9738157783026637,-8.00183732090257,-23.64506608688163,-38.6411449524928,-52.182179303260924,-72.98027348871501,-100.6168600300226,-106.31931602179097,-62.987651224256936,6.834612673706081,58.37858416357619,79.47045833802346,83.64194335802169,77.9366328147688,62.625355049887965,44.275373043090994,31.669714441837495,25.117197855795276,18.79152416970345,9.583722272006048,-2.8241170121833785,-18.924347255093235,-39.04611037255571,-62.76175921785775,-90.30717407735528,-115.9488133101774,-116.28596732806852,-72.21421138355846,-2.999790744035259,51.698756753266586,74.51314747406641,76.75097465750211,74.78369938513664,71.72931187109533,61.080020943969124,44.13670650057629,29.988945652522073,20.632516578470604,10.74897390513658,-2.054293399487825,-18.618962794009963,-38.218981724068925,-58.57493181819032,-82.74478711964878,-111.16672857992896,-122.61026193060101,-89.65550325131295,-21.261575083449664,42.39539869297369,75.81587636741301,83.50444748268052,81.23642884490137,75.3366052085276,62.68341181050105,45.52405569276415,32.974627573209894,27.533541850799217,22.556892523334607,11.238803916465034,-8.281670416381198,-29.927332770302886,-47.70291238500485,-68.26518720506924,-98.48796312802077,-120.56460903682094,-100.58735056938575,-35.953867900266204,31.210896845373664,66.84785810795786,75.1195375078349,72.34394640058781,65.68590697434114,55.82457208670359,43.769279900051494,32.008307294065084,23.786085138460273,18.006245779667147,8.946144478718939,-6.87303380660164,-26.866243854159695,-44.1457593660204,-59.35272641296947,-81.84056866881048,-107.16986009162547,-107.32496111603247,-64.06104938934192,1.1678417043046552,51.894097040533495,73.1630229494615,74.59953328360473,69.91884080464013,60.28343451354094,44.32632100325565,31.072491475035967,25.904024622985048,22.244846778233995,14.456052586554488,3.128656921969512,-10.877918816420767,-27.31310029958223,-45.412971115149446,-67.53945266063536,-92.96685924455724,-103.94262423263916,-76.75859446185372,-16.378182713265744,41.904228498273326,71.50119105488399,76.29046179567875,70.67077348703681,59.357977901841494,44.534789225512974,32.94250276923904,25.73654833119522,18.271577950072924,9.130946877065696,93.0,116.0,86.0
-116.40263347076956,-119.77970889409315,-75.74088701314139,-2.6199768033668684,54.792902439601754,76.60024246236173,79.13255083408637,78.0578807229879,69.33575268524736,50.97888197206679,35.23599093417003,30.111321161235082,27.88317304270991,16.6972480342572,-3.008225574248656,-21.161225813099165,-35.473827505895954,-51.85582138488971,-75.5672270696763,-105.52137094948883,-122.29104436069659,-96.48060677988163,-28.218383634214057,41.81912177047037,78.0301918449473,84.99654188364542,84.98484742877625,82.0253616444495,68.67559190981994,49.25241654257865,35.23897310284632,28.78421456531924,22.801572487751088,10.777749295923089,-7.27877765436829,-26.461393057122702,-44.38388636759704,-65.47626296953399,-92.77005946285136,-116.13012453981347,-110.23880666196732,-61.637327649955665,6.286364165795332,56.63939605065455,76.81578891240785,77.44789548232612,68.19969890735806,53.648530423856656,39.80316600697176,30.437745682052068,23.84355650009714,16.798032333689903,8.41499863720032,-1.7604380588777004,-14.641176165066366,-29.865366002320037,-47.44896730882738,-69.95738293659015,-95.07185270096818,-107.05057583890697,-83.14200084859361,-24.651796430128677,35.906338682801,70.8965060854462,80.45605369067512,75.37054492092054,62.02684088788752,47.33242176952708,37.68360986066538,30.622402031808804,21.08532640773624,10.879672680671026,0.9192601098249469,-12.256916826713022,-28.270133998442763,-42.44178056832134,-57.025104831653685,-81.00144391596983,-106.29437719923135,-98.91929601477469,-43.357559981307325,24.975209831573547,67.1450931543527,81.83055812178816,83.01536480794127,74.37439747363449,57.17254305138808,39.82311001577031,29.389044241143733,23.494911037020287,16.45748480370788,6.337514989339903,-7.066658945213591,-24.337230733035163,-45.53715400106025,-70.32960778406212,-98.60323737079229,-119.9734802724806,-108.08257525477838,-53.0150191525911,15.737433959299343,61.440684819244055,76.42537713523332,76.15298329684303,74.27426487896714,69.63199923557293,56.452883026892984,39.4362922502763,27.0010474813221,18.02766449295389,7.372351541767117,-6.4127075631079125,-24.103695435192435,-44.019878383029024,-64.90805318566763,-90.96288560062995,-117.70345580710469,-118.19725462032896,-71.96122461401802,-0.6465500140217694,55.432180722922645,79.97179826250223,83.31120313751404,79.98256945743243,72.48903141705568,57.81117216840231,41.084640895743185,30.867337787518753,26.407931496048583,20.149031558521244,6.32134788778776,-14.730541317311694,-35.433444513364165,-52.80537107522787,-76.1932441082679,-107.23015009709496,-120.24778736974719,-85.18837717752434,-14.605266607722319,45.183003348061355,71.25073952333481,74.9283880075345,70.74292433680347,63.15700161669391,52.48090917862925,40.19272608375709,29.176353183724824,22.094956330299667,15.964982252535115,5.092739134403091,-12.515485214339229,-32.36688754530509,-48.37410134423391,-64.8010331895998,-89.78824133540557,-111.22213675092387,-99.08695397092778,-45.72958649028309,18.54535794938449,60.97919279476313,74.86457397882455,73.56308427080155,67.85120372821021,56.098080475557246,39.71703070655357,28.897404813654603,25.07032736514627,20.478623466978227,11.457447661770503,-0.6234408865340703,-15.437213080377179,-32.33598347684492,-51.23449841374951,-74.93831733153348,-98.85334173025844,-100.5729002394522,-61.47553743235772,2.3857681134865025,53.756839931296376,74.72036489280839,75.3134096871563,67.98622825443917,55.16970524906688,40.60777831295035,30.599172260915058,23.76539404119817,15.779620805675775,6.131476676907289,-7.170817823126752,-25.975160617002317,-45.29779862966216,-61.69273236499421,-81.89085739968003,-104.40150139055943,-105.6117574344324,-67.37601223343331,-5.894046858980277,46.580272765669655,74.90963479090976,83.56044940925216,80.31107119586969,69.79664971195282,54.772576398886514,41.637558883063086,35.243911109207055,30.237787623757086,18.51215893372849,0.5843947732349358,-18.630927419009517,-36.526333936608715,-52.98611118816978,-72.45263429664416,-100.33262122802984,-122.0295513722157,-106.34443902020053,-47.588322065372886,19.492863315118626,60.777866181246864,76.19868160427433,81.41262924570619,81.52183853251721,72.81737009557561,55.978333261430194,39.70213944178424,29.861986967853774,23.833138924572722,17.356570175914197,7.384510988183009,-8.577668257350522,-29.527425984771405,-50.41977020275593,-70.10831352011843,-92.87617110001173,-113.06103017446063,-105.35557847200978,-53.790174264483774,14.83734249357875,60.425897327673106,75.36517798944337,75.35032731686687,69.74557735192376,59.252705318029555,44.88868748656216,31.939455450080803,24.888819615194823,21.232485323350737,13.03414362499074,-2.948379681057915,-21.442002272679147,-35.891740474883676,93.0,116.0,86.0
49.131286976408184,75.75518862532059,80.13593747663164,72.1237779848134,57.54069726178245,43.94178578959276,35.68694647772815,28.16407906698199,18.04102126249674,8.108724743806397,-2.4371157617905572,-16.79192980214574,-32.68632872777862,-46.2048971928703,-62.77119510487459,-89.36005272385118,-109.12551870176821,-87.0661802064756,-22.65603652130084,40.6166930198003,73.52431696853763,83.16995483367127,81.58156170528018,70.0293706133279,51.71831362544517,36.02526739230146,27.50842670245815,21.74142580131228,13.85681492642479,2.823225143644914,-11.635893810342687,-30.08538080758902,-52.313050326577276,-78.24817456149917,-106.47719976863513,-121.1085133344211,-95.95690843415298,-32.62629532260579,32.315299900875246,68.45769370357128,77.08742663512143,75.53920868019569,73.57111168440302,66.72771936169121,51.47329696899884,35.20556635556331,24.328293268497408,15.24067808782031,3.744065167182735,-11.121217243279483,-29.777320086962067,-49.84449693147636,-71.72042456215948,-99.43274104702903,-122.02281594855997,-109.54060030465665,-52.03685049052644,18.49264331991024,65.64814543328224,82.33634894631217,82.66276888746256,78.42497997825016,68.96598233295816,52.7374513803405,37.26830853754677,29.28899578914518,25.11234041230548,17.073315618172064,0.7380072184458181,-21.121511796458062,-40.54715413659211,-58.45911077788307,-84.97677825089966,-114.53149255943475,-115.58298074128595,-66.5471013124081,5.629459085342342,56.07822979617258,73.79381800270004,74.1609739761826,68.88250164707429,60.3554827771284,48.99663751276929,36.71344896449149,26.723182185426268,20.500875690934986,13.501609682152278,0.6302472503888704,-18.368874832732807,-37.45964655851235,-52.58912109138327,-71.12000226538947,-97.60158744472575,-112.30199985753205,-87.10348407863137,-26.488457107045846,33.89925591446496,67.53821503187201,75.32637548072783,72.26939455929397,65.24892420240919,51.4355855347007,35.656309039315786,27.377809822135628,24.1305318891825,18.30110740646837,8.224573116002603,-4.612327362374642,-20.169844940657043,-37.493597846183796,-57.49693587189846,-82.50666619275322,-102.87849324392624,-93.52279839403707,-43.959529585553064,19.945711820260446,62.85439472246366,76.2427331958406,73.76796885290443,64.81967597777965,50.80183829243864,37.13355102058404,28.541457475904274,21.653743859186275,13.171002456763075,2.8341954217097363,-12.128358056476262,-31.833709409869048,-50.18142660857624,-66.79514604689852,-88.85744663541891,-108.23571642089091,-98.58079663831994,-50.53439485833771,11.36324993972622,57.26648745186784,79.05017421824644,83.56298371846792,77.91559148735448,65.72518852494733,50.427023989805214,39.132981802861,34.099085672285426,27.707703259873348,13.743629226097656,-5.007833948371657,-23.985999054014,-41.357520901802424,-57.943257933422714,-79.72778040558863,-108.59798946594941,-122.44745280161301,-92.82758028502936,-27.06246140638796,34.738087018596026,67.17276114201005,78.24272728329028,82.08136964930799,80.0652414717031,68.49738291120666,50.788474445947536,36.19262211740998,27.947461004363277,22.152688437681075,14.963696587028414,3.4484174385163886,-14.308496128698565,-35.77696946568831,-56.06461734209287,-76.25525850030347,-99.7845441302321,-115.02529723714309,-94.61203948403312,-33.66326804703166,31.491306759793343,67.3112402531148,76.2322773116271,74.19620621039577,67.24147125666816,55.33723824996418,40.71697028842315,29.24606939366412,23.801126020892497,19.654308296983803,9.103244453847799,-8.377308747535746,-26.207194900435578,-39.10090153312499,-50.49869020420725,-70.18762094521031,-96.85499024395718,-108.04013002786682,-78.89867358226157,-16.88888852754963,39.740362737079344,65.73782253270112,68.50753912606275,64.75374322995022,60.15202607494326,51.791169975737006,38.422534355915296,25.855906801933315,20.19666216444613,18.0308318346705,11.84264527264761,-1.9208509743803273,-19.340714064723983,-34.339769080875804,-49.93009536193533,-74.34899132793223,-100.61069306643948,-99.77162977833304,-55.29319310159834,8.611582735339924,56.77769669453476,76.46167160341358,74.58197929374097,63.65253869583209,52.333810344964505,42.569562221322215,34.25753316845605,28.604085252923724,24.20652241045934,15.33247137924929,-1.180401021526263,-20.609831965116932,-37.362914501920145,-51.51780887536935,-70.44681789762069,-95.09683310272027,-104.56199686673125,-75.44232813163163,-16.78415111028916,37.2988244684251,65.49917548153428,72.25131610170786,71.6678303934178,65.70351453705673,49.605477335672724,31.706266221706557,22.740746598207654,19.25036090834708,11.827975038457193,-2.1874163473041497,-20.00753492309649,-36.41059315896804,-50.238956815186164,-68.35516787677466,-94.17230153586492,-113.31794985340014,93.0,116.0,86.0
64.7942966718038,47.733346473855406,34.16476794921826,28.049486998971023,23.47182177671726,13.256211386022994,-5.356809526960145,-27.24001026887825,-45.44355739342125,-64.94543304412886,-94.22996977587526,-119.40224808253295,-106.34370151086947,-45.834698432159115,23.757491152256208,64.05645450281595,74.94442577098835,72.99025183139186,66.75781564709487,57.30483842809083,45.42680193471048,33.42940052721434,24.64004895430021,18.83954134720199,10.51716010476459,-4.394071711957786,-24.224027389170455,-42.120858705858865,-57.09365467557758,-78.29771828632708,-104.5198338974316,-109.79280278421567,-71.91983374769029,-7.357236468165793,46.81774557059997,71.83878078088776,74.95661427805302,70.73158865622894,62.004933572499354,46.558472467708775,32.3341815758469,26.309841025921113,22.92258059597723,15.7453901029454,4.7843129848088255,-8.846431315801256,-25.033867912047466,-42.85065565865014,-64.2581723754488,-89.8288344612333,-104.32196213139282,-82.82824743144536,-25.17623001457851,35.53450558818964,69.32318332775333,76.49696256288642,71.75198297077083,61.17941237487602,46.46482276777161,34.156209490673824,26.618160566877727,19.375199650154613,10.441250043735744,-0.8674624113485558,-17.541876350969662,-37.535319129361355,-54.836554069335136,-72.4720929492169,-95.76386371753539,-109.51612020723411,-88.07565536192746,-32.50797475218404,27.10683109464747,65.84086060366126,81.76085522149928,82.74275332370911,74.97966629019321,61.353195741406445,46.45055478588618,37.23410919975083,32.82851647782492,24.46733367986747,8.572157567664268,-10.596515027666648,-29.196580940040295,-46.08099047260292,-63.33637224014498,-87.79337696040693,-115.68119086640348,-118.95795441861621,-76.03167118863546,-6.9974074900649965,47.26580486438753,71.7626639845496,79.79228442717452,82.29559352101188,77.75210821053251,63.61440173244636,45.910921859437785,33.26851199999181,26.225949371539546,20.35043633256957,12.208957770591963,-1.0430227554739293,-20.3739723877917,-41.876323196379275,-61.670197390186964,-82.78826497225275,-106.1516305723409,-113.85362676066258,-80.14240285057417,-13.2196844639057,45.39870626290549,71.87369856983284,76.28046294730488,72.66761359611803,64.30561529019192,51.16063880319071,36.83149408231091,27.11198631203326,22.849226398483104,17.482587184963446,4.541617069696847,-13.825766241579974,-30.498258586350346,-42.12496477455096,-55.00988191300828,-77.80003392757678,-103.04309062158733,-104.2739134570609,-62.938422329263716,1.7718331142143877,50.58999620186697,68.08418457806518,67.58897824473786,63.565394688359085,58.29019541808165,48.31845949373533,34.323354666649706,23.46769775922702,19.561669833463185,16.930925447089194,8.619520668966965,-6.9160214707524545,-24.019714824148934,-38.37516587988897,-55.90846119079537,-82.74326343215465,-104.56470130308337,-91.0476743142984,-37.049042136045465,25.22373527563133,65.32274130464955,77.58490497750066,71.8435178304116,60.22475914198433,49.380116301889245,39.974638079127914,32.31914367175589,27.39993987865533,22.386052596293638,11.258322600873129,-6.804388179851734,-25.865158555435958,-41.50105296670573,-56.1218240276794,-77.48913120884215,-100.73269065450462,-100.50191437930316,-60.16288984973114,0.7610770958904426,48.33228484758315,68.99322195569569,72.40647467211095,70.80726059777993,62.0246163848477,43.9634934428729,28.061997946007022,21.633321611735802,17.783600993579736,8.398634421257851,-7.154295890441407,-25.107874598040052,-40.47368326067562,-54.66803026113343,-75.24271975411408,-101.55293838569126,-113.58936797926056,-86.44707806594778,-24.24568420072748,38.70044417646695,73.17005604614583,79.59647528773482,75.40909869470904,68.58787213558976,57.879936956953074,45.55919288298803,36.302681169149295,30.511223571495222,24.869476975720335,15.230647400599214,-0.15170332839509348,-19.72657662944046,-39.78637993107271,-57.943366518156346,-80.39831289414813,-107.10490615097459,-111.3019604028063,-68.61080602767684,0.5614015524616258,52.102576259781635,70.21468724113305,71.61577435892738,69.32814999879112,60.17851743715028,44.00895124637049,31.04534429597923,26.74969371818766,24.208583585754983,14.984871689869212,0.6932876214782743,-11.722420615741992,-23.663088694623656,-40.46187393063231,-61.57975550324228,-83.3181101071222,-98.01162438795565,-88.15456278115641,-40.96058161215064,23.13465452965886,66.54586077058977,77.4420956043755,71.19001120569087,62.384267737503706,52.61267773343381,40.76608355218586,29.88759941576588,22.658208070996725,17.839066232772325,10.969431613351349,-1.257499195717432,-17.90329464358775,-35.24118891563376,-53.409409327804774,-76.0860820878174,-98.60463843050735,-101.26995322092226,-66.39396026044626,-7.744808613249633,39.48001116001947,93.0,116.0,86.0
7.544959362281298,-5.059936312063305,-23.274877253248306,-42.93207500203294,-59.48140761825478,-78.78936837687947,-101.97690058998104,-107.64486578447057,-74.49765476479402,-14.196442152064623,40.92318426437593,72.45981787277513,83.2415027324164,81.22231416345566,71.5392393812501,56.84350797532736,43.011789157007364,35.80305178395252,31.18140017368219,20.53514818368057,3.1405171537990277,-16.119177697981648,-34.24998357330268,-50.7852544401303,-69.38999586939042,-96.3566293846499,-120.67562320753552,-111.28186682907672,-56.89391597366602,11.615975726431579,57.09228111661312,75.02357774599193,80.97873614069951,81.92631741500897,74.56557462528707,58.41100779265148,41.526658998331584,30.844174707481844,24.58704066205518,18.35790315345852,9.019756747192904,-6.082641436861852,-26.625725414309027,-47.76983992465694,-67.38983453339567,-89.65262895648122,-111.30728935663932,-108.95892727444166,-62.626244843372724,6.373002999382727,56.35251765688306,74.59643111395727,75.74929344074687,70.75928324655975,60.94036440679926,46.864314076765694,33.3670458404859,25.491428786656083,21.807180232049706,14.607519459567682,-0.5063660222094711,-19.107982658937253,-34.29441301459139,-45.22346507413719,-60.46736937847154,-85.76807572971026,-107.1862490231158,-96.659796193469,-44.86682938166542,18.90542087934328,58.60659754664702,68.9447136232021,66.47076804773761,62.31107486684494,56.004029671510445,44.45420065794267,30.509490340095763,21.74138068743928,19.03293711300017,15.322241546349423,4.735118149996843,-12.036857822693701,-28.383180878923575,-42.66049440725343,-62.815511496712766,-90.87082161476378,-105.37508914370065,-78.64288189881533,-18.153883850571063,39.79371853953508,71.4482175231137,77.19410787835177,68.65519963129013,56.90812166692865,46.5426351678949,37.514516241206195,30.63962034743455,26.21777699362122,20.014265163766392,6.5496824412467225,-12.494108804589466,-30.791879053763942,-45.49632003678311,-61.37837879097432,-84.86084147371804,-104.35649918052476,-92.80260579637226,-43.06269315715422,17.023091563129658,56.95358876282964,71.02781581840738,72.27627807287762,69.3462636469443,57.44091721600035,38.54335505837475,25.324867942376198,20.7418181499614,15.791936335671384,4.432764519578306,-12.33902937016914,-29.94290615549846,-44.38410820459484,-59.68419767268838,-82.755707320916,-107.8026306283724,-110.36586197684534,-70.88562433666037,-4.415930758259768,52.17217453559259,77.18227994673902,78.81726683633094,73.72660416694752,65.91604899492211,54.246893729830035,42.45029094913908,34.37646246178934,29.056829993713585,22.6483084057484,11.348627883803731,-5.4928851954062345,-25.687159505081365,-45.120603267336975,-63.599398381833794,-88.35779761027258,-112.26091899099693,-103.84725726947926,-49.34015777310462,18.803824101090825,60.37234834216808,71.39219118691352,71.28911552596874,67.63055458800707,55.89344399521364,39.44384362679104,29.03399103947074,26.312957170399795,22.392761811852292,11.03038652277648,-3.24077744487743,-14.926931530266707,-27.92014481560898,-46.26594851791794,-67.99472391958061,-88.86538302159187,-98.62931263003908,-78.20366866128818,-22.412780888083816,39.04290314443715,72.64275190028117,76.5148658033909,68.63077292519239,59.782248335515256,49.32448162174602,37.3548499631734,27.384852730361057,21.1949783473752,16.262861978821398,8.043291855247162,-5.772792729757786,-22.968288768101907,-40.22621631796761,-59.434218880789345,-83.22047154381792,-102.52155378398899,-95.19197166990207,-50.37362689126116,8.398598689739677,47.97704986325216,62.46125315974033,65.89245387117307,64.99098186800516,54.34081238189812,33.86301937289812,16.458649439543755,11.89783291139467,13.968843490322962,10.00587784704237,-3.7595612913461744,-21.767341358362586,-39.40845195586361,-58.957460891817135,-83.69797518927922,-104.68301216192542,-98.1898406502416,-51.663454676396846,12.260347131282286,58.04565773362604,75.58088438488382,78.68679926684332,75.18500553266057,62.26131991284349,44.745873165394414,32.768381522951,26.97985463888659,20.642841597799848,9.773834126897105,-5.209831754181583,-21.07910032594394,-35.65662187674566,-52.56127094693333,-77.25292088340177,-102.47666949117743,-103.13514295636458,-61.50531094905996,3.940587398722213,54.882579625920286,76.23573891549856,79.42828278054152,76.24016500800111,67.75348077328123,52.72806076169307,35.813378864351286,24.179460510378217,17.35322553342035,8.574601743634714,-5.523748598780457,-23.295634101783776,-40.39538734925201,-54.667413268009945,-70.3449342524852,-89.61080193470414,-95.93732330211131,-66.05263145420257,-7.274575073969742,44.5233593135305,68.2234985583144,72.62475012295812,68.0162324815896,54.13004368974022,35.35235310662311,93.0,116.0,86.0
-37.657707091824925,-48.69311687462945,-66.91186707435783,-93.5326197879835,-108.5352575500208,-85.29280211501283,-25.74691503426917,33.779101545799925,64.01591992641002,68.79863613327487,65.2969353178232,60.892780238334545,53.23492493011931,40.345505775364494,27.183434639773907,20.583021362047262,18.40570641363343,13.096032957576469,0.28275517808932876,-17.08418039296085,-32.49180160895083,-47.468480273139434,-70.564987706036,-97.94604965212665,-102.45759831263368,-63.19788115703359,0.4067558937467275,51.99406490540792,75.34528977376702,75.61830610120585,65.24697917841382,53.7419445193101,43.801784040546046,35.23481703641912,29.200936560976288,24.904324704274124,16.974416643922176,1.3417855322043422,-18.093950985534963,-35.3660464464667,-49.55588477883164,-67.40892421812757,-92.03795437961406,-105.24095722959731,-81.63462027266424,-25.094359131093988,31.409486239074926,63.28315327073304,72.02864373909533,71.92391175633371,67.07006696991495,52.17365882204453,33.6858225586152,23.40360938962532,19.783332777626278,13.215604153680614,-0.005199269312535171,-17.599125227099314,-34.446167543983066,-48.33830116793209,-65.43631845249865,-90.58382961785522,-112.15791535581914,-103.36004515386838,-52.909712049601396,14.46986573105802,62.777001633494415,79.19059805023618,77.59303761111386,71.84811312256316,62.8731402130246,50.60438881515608,39.69119974996151,32.697445432067234,27.512969805306927,19.99383078194479,6.988200637281836,-11.13237037962547,-31.563232266025707,-50.29367569312459,-69.87749104183607,-96.46849098974594,-114.59113140705523,-92.17193558233781,-28.876948709244587,34.530345193433284,65.9195961418634,71.7616076397755,70.76252557410429,65.18354672675893,51.147348451961186,35.462860953037655,27.744394431674273,25.755482188669255,19.866948094595845,6.823178161620555,-6.871002170729508,-18.247730846180456,-32.675532457687495,-52.35470688436787,-74.37356793233027,-93.57175258933451,-96.64629959996088,-65.01036115531896,-3.3659418587113983,52.3673288288219,76.12080618504964,74.6783618654929,66.08150201594458,57.026639177902034,45.881181483435064,34.125911741813134,25.229616033187728,19.84949577092709,14.399167572066007,4.613501098689939,-10.581505773598883,-27.992323286430484,-45.362263690762575,-65.92268238192557,-90.09219762547785,-104.15064819559552,-85.70626435921045,-33.11298036856028,22.71057509898164,54.2358204443054,63.98053069873094,66.19971699112627,63.18758396192021,49.04028069793148,27.83352826396529,13.7980877988151,12.411459334505704,13.859806533229508,6.884325192183615,-8.835021675111276,-26.933885018132155,-44.6237492844603,-65.63003781930271,-91.01660071628146,-106.73834377699323,-88.5241367082338,-33.26242939559827,28.4808391107403,65.6005794116375,77.29056467685643,78.43643499723008,72.45865905673638,57.16877221558734,40.44209151688372,30.72451028758248,25.48127254855232,18.0193819320387,5.759125683504799,-9.870550413645338,-25.39365100782849,-39.992591141141084,-58.83779463138949,-85.35032773453942,-106.45377495226849,-95.41083242739465,-43.31890244841586,21.51189969762439,63.86703177789937,78.31188798307853,78.94134466895788,74.44959826749835,64.01299693892386,47.67519920677019,31.72239390123697,21.988848998619066,15.280605283205261,5.052357094219082,-10.449375317198367,-28.500204194651907,-44.74163116994953,-58.75766747404193,-75.83263704790004,-94.00088384853112,-91.51678637444775,-50.671495670780715,9.987698627517466,54.27050753509962,70.7701707358681,72.14162726844285,64.96286353569677,48.76851017858451,30.487301047976175,18.699442037765824,13.208022729994951,9.677013464504872,3.9443841706749305,-8.230961899897117,-23.83092468704678,-35.83602563900669,-47.80132635505091,-69.0978523217319,-93.94139254462951,-96.31841800355842,-57.81937639337903,4.898547883407829,55.00799071304989,74.969666293023,74.56603607253471,66.92015504379413,55.680077669596734,42.690984229848794,31.89855694985352,24.824608003203643,18.57782995042582,7.9939420516149085,-8.425328895958932,-26.113933225513414,-41.533558397176876,-57.63290737892102,-80.82708317505661,-104.74644082220456,-100.36435913734921,-50.44425312029739,16.779765631378893,63.45161022738209,81.9758579535205,82.41849058183598,71.79958072034447,54.607784178979635,37.37281760863589,25.616113266216864,19.868646939310917,17.224552409645092,10.711246053845336,-5.94480875371508,-28.596050202355073,-48.95449552461174,-68.28018169119918,-92.45788234087775,-112.91333370573528,-104.90655039047829,-56.11185087189469,10.653882814869888,60.91704842050236,84.27893837903628,88.97584682411131,81.1298697509384,64.85796454207917,46.39500565986814,32.1931343034777,24.63014372126739,19.423975900660057,10.056552498308974,-5.6130682005665085,93.0,116.0,86.0
-113.87072371569286,-92.59380977195882,-33.44389666126402,31.586607548607674,70.51306620079097,79.71511554859953,76.13399511032101,69.69423307337968,59.5107455691803,47.09675420540583,37.29291990107246,31.181595196188074,25.769824094893146,16.85092502768077,2.1924514787289486,-16.985737270873493,-37.24745691003469,-55.48068794510257,-76.90968882404607,-104.03799971590776,-113.28625456045285,-76.75483522660988,-8.485371318700066,47.275219057764154,69.2562439920845,71.71332956842863,69.89465605070333,61.934771097651925,46.23711256511493,32.247352783216236,26.98708336202372,24.822717614223524,16.660778342191445,2.5942844579655584,-10.23208392805634,-21.86064554147772,-37.90665395534189,-58.63973902050758,-80.57359987555739,-97.00169644988947,-91.59948705033673,-49.04759315205918,15.096524093077944,62.76344504189531,77.42773001953717,72.34581762101429,63.55513715035245,54.05837784848015,42.37491018906927,31.154705764954663,23.403969577403704,18.49805241527094,12.15422201249078,0.6973452469517043,-15.572005496177226,-32.95947606329277,-50.78222916734431,-72.81538054402495,-96.20446898240371,-102.92120232814995,-73.10143073268445,-15.618297029561417,34.74980214877807,58.600547947846486,64.97843106413666,66.13795820287847,60.37072742747764,43.06260198529041,22.474682181940686,12.312615332642691,13.169383508416091,12.957688491815738,2.9869379584935403,-14.080184491301647,-32.01206155244089,-50.12946945574647,-72.77738942271402,-97.62910864129402,-105.80541676435377,-75.50050024880755,-14.31783504980465,42.39939128594952,70.92005267263376,78.23442860089678,77.63822530142905,68.85555912236957,51.95365698137444,36.816253594349824,29.080011153121927,23.759757213723198,14.971568212322754,1.446554863317374,-14.50580432617912,-29.581576867593526,-44.685297081060675,-65.87380230519932,-93.11840510207888,-107.62375251902175,-83.9660290175247,-24.01515004899055,36.956614551721515,70.38977193947956,79.29232424278037,78.10175796577533,72.15014216469756,59.72841926802145,42.65281374926916,28.22759628778386,20.073383249042916,12.871559464119828,1.0625305745176958,-15.602160144539273,-33.52661775022739,-48.85016076309476,-63.14297146474105,-81.5809481350858,-96.65642676238353,-83.60211217805423,-33.49556382121226,25.671947989051056,61.511300091819805,72.13440245919757,71.00470182910621,61.08226387056173,43.217766260530816,26.241628431745298,16.66362631942416,12.153311056217047,8.470195449918373,1.161548258164886,-12.767286090998788,-27.778743856646795,-38.82886674061029,-52.7910735291804,-76.80888235514892,-98.23282072561824,-89.3946625097599,-40.58671590273134,22.07954677521688,63.79311109271777,76.20983387144375,72.78417825100566,64.0170607106947,51.93918933071772,39.199518760110855,29.518028396843604,23.160959099060474,16.15984069855215,3.725278435909482,-13.654718370392732,-30.810430028755917,-45.8133413375291,-63.44981054796846,-88.61023507806517,-107.87291965262251,-90.18839452212849,-30.763624680283083,33.34405037640948,71.32311211753594,83.53225373682344,80.30316951696942,67.26373238579757,49.310042110376415,33.30130987092909,23.408885339603714,19.00874780386438,16.133345311444508,6.988429903180653,-12.30899379801048,-34.89757414091579,-54.311946177286245,-74.7303241766672,-99.68871650887658,-114.63292984795737,-94.64731558464285,-36.96353888536308,27.928059866145137,70.18045640838073,87.16567850380804,87.84605725096041,77.05430836830935,59.44054538066007,41.623969185379806,29.405122836587047,23.188745569478936,17.369431781221408,6.095023778807134,-10.861165678100553,-28.925381549155396,-46.37696376064498,-69.80811173905745,-99.56741397431297,-114.21152186609957,-89.66681389797682,-31.218197268557162,29.7639013698867,66.92608264124684,79.15099427989036,78.17740035172831,68.38271323137286,51.38750105021166,34.795467611277346,24.399249354890944,19.350215588690865,16.518341594277878,10.08343412210531,-5.713519076207553,-26.69890694547848,-44.17162360311883,-60.97604092248083,-84.11010731741072,-101.57522531898196,-87.47380668918741,-37.072896592238685,22.159994739950697,61.19165696604773,73.93289942894775,70.08926222970479,59.92349809419928,46.30312750271821,31.174038376946257,21.674068529835367,19.24202592350425,15.534776811301185,4.658943024250398,-11.766300236187659,-27.437045520606198,-38.79062469474759,-52.08620582395522,-73.87815038852618,-94.83312811221661,-89.35371290330487,-44.04434754794981,18.050113267942162,60.914899217747326,74.21843986625964,73.09280959264387,67.8322246089374,56.54523193808469,41.470568483066046,29.712190501153746,21.585663009454027,12.374484504073125,0.7098960350519952,-13.326232509684596,-29.516236189661996,-44.4941959811078,-60.229472450571656,-85.07465254923787,-108.8959700980788,93.0,116.0,86.0
44.35341881757173,61.498117350890055,65.66049552176425,65.52128067883338,56.481710524360686,36.76295213592692,18.093241940671383,11.842926507449603,13.807924512571573,11.15020872917348,-1.5240098693549644,-19.353901806194347,-37.061219082786884,-56.05695582381276,-80.23457390966583,-102.89857043247652,-101.4306249112165,-59.68174953425624,4.157019608141759,53.71782069569008,74.43681427685432,78.64697658161663,76.14571160500485,64.48158300070503,46.92552651640984,33.894795381417694,27.634316801219793,21.713833026400465,11.505227438628584,-3.07854458102864,-19.038069295348965,-33.72522880768958,-49.92102824151929,-73.55941737261463,-99.89308008108513,-105.40652241055226,-69.2224335982289,-4.6888864201850815,49.84739683695916,74.79966126638271,79.51248282482354,76.91604278067864,69.27886969786398,55.00795487515302,37.87771292184303,25.33258446411157,18.231844240750853,10.037667776910498,-3.3577582960605263,-20.865746845876888,-38.295161820141544,-52.831726697194554,-67.96112582458616,-87.20815396483316,-96.85051330032297,-72.2966510370937,-15.531841699437066,39.15306954389381,66.53873279825439,72.63218542925479,69.14228220630244,56.462799692980134,37.76195453502616,22.688834415151437,15.05140965198616,11.168740622313983,6.964459357095891,-2.2510795826133494,-17.394429784621124,-31.293636985257223,-42.05267317858102,-58.771156221323615,-84.43177117678047,-99.86971153469221,-78.85538438655394,-22.131657359739236,37.29450695871859,69.97452985479113,76.17056845875028,70.62680416165196,60.819269627593,48.132349525510534,35.99013118684844,27.4453266268801,21.4521016038422,13.249267113932195,-0.996269691083345,-18.838259699176728,-35.2773010571706,-50.29615650302591,-70.02425664487247,-96.07133989291718,-107.71935555842433,-76.17795468938729,-10.770612188856422,47.47748993548923,76.99564254914436,83.84975188297419,77.36931786339682,62.296586064877516,44.19518881203498,29.776832551402826,21.67463006686677,18.31130449600943,14.496670681823497,2.325677366095204,-18.944156448934798,-40.84196921879243,-59.74932073768055,-81.70042517205043,-106.17883380402604,-113.27548836058823,-80.97525326527015,-17.226350054436086,43.085507726056505,77.268226745394,88.74234621502677,85.75119744039797,72.39370474178156,54.00903853051609,37.35864619182215,27.162849104159253,21.78348373695907,14.815223450811692,1.6235683768481664,-16.186291352035962,-33.86784343673732,-52.178035806598814,-78.2973539861652,-106.69981388160792,-111.62291583968843,-75.13672935881061,-12.318391926161341,43.49878819170673,72.50481946648034,79.82668034136329,76.27124288368985,63.968379374775836,46.163711809741834,31.096401805945103,22.516151550797584,18.48038156081581,15.377321062076925,6.535431475572713,-11.704288213072306,-32.272638175227705,-48.64823952120018,-67.04376860385992,-90.8836718883536,-101.64647548560772,-75.87999430606251,-19.266789653736414,36.244906079344524,67.29995173517008,73.96971300156893,67.53138256411863,56.35387050815585,41.82790640320137,27.554663338054063,20.507139959396035,18.716227931716432,13.179192288423092,0.2597482905955684,-16.67908910285631,-31.065301506579864,-41.98950450354035,-57.51871279955583,-80.97509128715127,-97.13932649476868,-80.01791281567806,-26.080653174314758,33.556936642610836,67.3668817851125,74.59692322395686,71.98283759131535,65.28288819798732,52.24359220589175,37.53065033644845,27.198976847392007,19.186047314533223,9.230549366209274,-3.0727027033988232,-17.881755327667936,-34.1081304966361,-48.55966634391184,-66.33495073628926,-93.3008814826295,-111.03401136914854,-88.99869586459509,-28.197410919844756,34.87533391104834,70.05276921337597,78.19818005296985,74.89475276482463,68.90597802003177,59.882401553325025,46.21165918953528,31.957180091583584,23.09894645319387,15.818277684220638,1.395471617310111,-18.998882631607664,-37.122563778592635,-51.447848252551765,-70.1402641676951,-97.5646984212186,-117.27040297675289,-100.55422652205999,-42.6917848452257,25.669299173035398,69.57066548629012,81.60959501056541,79.66370693274835,77.16782538508511,68.80847280717508,50.50411583311415,32.142563455382245,22.942097048212318,19.884982523573672,11.542173084826425,-8.263393435577655,-32.10987963709678,-49.77350260498389,-63.15264504998886,-82.23733362857331,-104.1060287852494,-102.65606860546434,-58.89160765574909,6.904789942617526,56.525011208707575,75.24944725132241,74.88248118636895,67.28175859156948,54.68504758411098,39.38853818501375,28.463683601672418,24.26181748996162,20.460005455290567,11.085683765583312,-3.236474702691968,-18.12570162002221,-31.116418114538156,-44.780285895652916,-64.5761085242905,-87.61303054691349,-92.14359790767139,-58.02677581836058,1.0764490097736736,50.68845440442384,74.39339130310081,93.0,116.0,86.0
32.661200865265116,19.815619082515166,13.740647786227262,10.169507514631945,5.0217566239895906,-6.237711898338592,-21.87190291536648,-34.45229977052101,-45.811966512401945,-65.67214068712434,-91.26810135905632,-98.26268366101857,-65.082748449746,-3.4847641406725383,50.038982733231016,73.8502794456761,75.22457789032867,68.15821591451365,57.35313494991638,44.375298019534746,33.11005619834371,25.613884071174162,19.5549157834801,9.782952190148233,-6.036698699027844,-23.867504127228628,-39.577027987807824,-55.18635004411025,-77.29879056842229,-102.43193483632085,-103.65155766156225,-59.08323889177606,8.439633366999072,59.00532435410023,80.78139597463567,83.09395248666918,73.70618313492676,57.06168168201967,39.422941760511414,26.80523350257379,20.356720611760444,17.60725393469179,12.108616641684334,-3.1761246528677964,-25.589932864311624,-46.45116037691684,-65.4851599127673,-89.03676486961626,-111.25120547525448,-108.40047162638446,-64.4626911162355,2.114739998722603,55.853092983570455,82.45260492539478,89.15220498381214,82.77280893514474,67.30364309382742,48.73162938191483,33.68111038389165,25.356049175519374,20.234166617457948,11.693006258424639,-3.2585055476279208,-21.4628790040063,-38.79348442359621,-58.723250939692015,-87.14809918903347,-111.82063312941142,-105.32025204357551,-58.27816121066681,5.8914821189689,54.79978833558722,76.24560253692948,79.6806728679627,73.61577797051288,59.04630036028113,41.210026535530424,27.981401844686665,21.011114065219576,17.71986755289632,13.742657932144683,2.1113301508684392,-17.89090550147964,-37.38106663772567,-53.30443478764327,-73.74655609892103,-96.6194542689263,-98.43954373486578,-61.50741787176218,-1.6347935448691617,48.11135586305869,71.30388315567167,72.93778694430294,64.63976350863865,52.48172610758719,37.33183156761518,24.61566831702892,19.83775963949973,17.823828163955472,10.164294219077995,-4.503430513663345,-21.33972254032761,-34.32500521416436,-45.605030343826066,-63.7487001436833,-87.5650300365085,-96.5019431463497,-67.3345503303579,-7.643403724226665,46.66196638150581,71.47105156599872,74.26544584607576,70.59341333150991,62.13306219858235,47.79063073807736,34.028261852165365,24.892579052414497,16.584451445611,5.898243158595744,-7.068424371947853,-22.590867546165498,-38.47762546516344,-52.870671957278525,-73.40508893696571,-100.87395204448572,-109.60444225618028,-74.18775331782955,-8.363815736652029,48.43619022849727,74.52000010726407,77.81344325285514,73.33751673114386,66.73651674591105,56.368513828662046,41.812692155888314,28.77116567842317,21.2745427753223,12.59314742473405,-4.2419172216215895,-24.756093059032334,-41.41483979340258,-55.95828647003862,-77.41574718874224,-105.36022057000494,-117.14709174776426,-87.2200492461314,-22.194113815014212,41.85750526731083,75.79952478524442,81.53161650865468,78.95847101987252,75.79774328505445,64.30846967154206,44.61558732391508,28.429788352968558,21.863713198729318,18.52769151571056,6.906167356436154,-15.304116346579336,-38.055288568199906,-53.644444970620164,-67.76133602497778,-89.07091160001471,-107.48789034473975,-94.24151257148904,-40.38579563587154,24.241205559070842,64.86666960504452,76.38870931364241,73.19188494108992,64.16604912084507,50.271328405543024,35.488941890077484,26.725159318963563,23.487775742392582,18.421535406867203,7.28578706788576,-7.673895773305347,-22.055100173527407,-34.76280212163361,-49.686266567413604,-71.52205365595323,-92.0926156088643,-86.42164892507137,-42.01148897228008,17.680513240232653,60.18762560285234,77.02922165779108,76.16403663413071,64.42999582737419,46.851306448592894,29.96892156359382,19.811005810368556,16.615833961862258,14.556905627647568,8.090015289381228,-4.458094668896169,-19.57270600487796,-34.05660779823093,-51.40287667514307,-75.62832212542085,-100.25018907011693,-103.60574621236708,-67.11265145778644,-4.725186124613025,47.023930888798915,69.18195876433289,72.0063964509959,69.13795723547948,60.87719704082112,45.93693272936955,29.642115319281825,18.149458534223868,11.423249770532918,3.3418625774911046,-9.867088979918357,-24.958199785320897,-39.03679295192736,-54.57417072389431,-77.11747683741359,-101.15713977278382,-99.33450833675938,-53.57143854853601,11.506377154624612,58.20923820092357,76.59810571748821,77.590983927519,70.95723127545467,58.97362449806229,44.47259929579836,32.295178719341756,24.14782395865411,17.551827827563166,8.064568799648958,-5.833612715819313,-22.103564444317865,-39.69757576195732,-61.726693574191295,-89.41733155905676,-108.58700687613982,-93.76145732307509,-39.47612911654272,24.60630234049005,64.08065673944273,75.1146438140056,73.01162926936075,64.33312064025404,49.07542898812029,33.779602013683984,24.878896576704978,93.0,116.0,86.0
-8.423561940589233,-26.606535975225935,-43.897256013572004,-66.11934575687886,-95.81861047513769,-114.20239243040395,-95.38253631358535,-39.92973389519972,22.672271259144875,63.63977832596302,78.51075352196122,78.81342469235537,70.2015094084608,53.82764890783253,36.696439740992076,25.414882626569568,19.815687936342723,16.93508517622908,11.424140931661775,-3.0973507113007765,-23.986637223527524,-42.08891102262988,-58.412081572317526,-80.83314933679216,-100.56297226520121,-91.73368755309605,-45.090229605426984,15.007405385818306,57.61009574011381,73.46943539808726,71.12282483119735,61.473438795767066,48.311658726203454,33.029148113363284,22.431533920027988,19.422629847066162,16.39942393344482,6.5262853352014405,-9.464085463487503,-25.615544222463438,-37.38422170520144,-49.862362604135,-70.59911042243127,-92.95693915649235,-92.44457878894018,-51.88056590629926,10.245297963393064,57.054502085822605,73.68881360768086,73.52523680540556,68.81621218808908,58.417718222571914,43.40994529015777,30.979508067056432,22.642512745115965,13.75454634636426,2.3886105686625076,-11.29723704754391,-27.34507970215883,-42.62754977824165,-57.728556986922385,-81.27950770963194,-106.89691965293065,-104.17836250584872,-56.643347276938975,10.565600677079392,59.20698097253439,77.05251954809546,76.85833693468508,71.65338686720428,64.24232693747453,52.45290668237445,37.5448921291022,26.142649582023687,19.355028679175412,8.587987133173087,-10.206638257479188,-30.118436228557723,-45.46960465920405,-61.106079288471896,-85.40776091357802,-111.84914052653733,-113.29112009578954,-70.73456583177416,-1.8358378076237873,55.29622210774933,79.53965874137926,80.86773204363675,78.3355808829929,73.65534174760302,59.025898011439,39.07237453435827,25.60998272352567,21.097463115443567,16.407844202663163,1.2878417995059113,-22.371271304954444,-43.29461546016923,-57.36125641096347,-73.10633764272079,-95.83280896932555,-108.0775288612233,-82.12924850822868,-20.950079996216946,39.33083044961937,70.6438412205637,76.36091835077849,71.07961301783982,60.609449235952425,45.75279721890262,32.153561293591295,25.501208344802286,22.532552164673657,15.82786402307638,3.1523910219681377,-12.037332035330051,-25.81116539187658,-38.57562766245864,-55.25669721258327,-78.50983002522199,-94.30105597206791,-77.17349699567225,-24.659201477197243,32.64712803731591,67.4345001879579,78.21611782339063,73.67520509773519,59.700903350664554,41.57781339063285,26.18781461596474,18.356477284805507,16.211676089488943,13.296098794301379,5.0363055200395115,-8.8093715947151,-23.783885797215746,-38.5101384938639,-57.696983729633,-83.40216964505709,-104.59007374877967,-97.28764526447168,-50.223981685754666,12.790965871376907,56.42046463998147,71.17053266931973,71.52617304904147,67.481351013083,57.1151651297402,41.03531045705989,25.678218672617483,15.917636109946113,9.532792686743447,0.006151993410597268,-14.246241635019295,-29.128245252627117,-43.12842283366677,-60.21573285676018,-84.77157660757128,-104.73022677309248,-90.3478056552584,-34.83155393476443,27.968826453876357,66.11753680934991,78.08466821099854,76.25836437903244,68.00739603226688,54.808841614616604,40.55967349925417,29.560506579629433,22.28226305339612,15.2669158197414,4.447448032277947,-10.400622869253143,-26.990598388562706,-45.40318571419895,-69.38404943561576,-96.95049145699942,-108.71636636411313,-81.38422537143968,-20.11532105773881,39.39516157391748,69.56747775389117,75.281811595182,71.21703254644225,60.46113867368729,44.24305556901065,30.48652722204125,23.395326956529463,19.377532037090585,12.557058502420157,0.9728693035361768,-12.270472987174248,-26.50810223478944,-44.69803185018951,-67.6890939364324,-91.11563463300351,-96.4076486586377,-62.88561632314416,-0.9841495443114472,52.503077733642016,75.10336254443096,75.3633204268228,66.65305220374691,51.166459121624825,33.022946468012776,21.95572529094464,19.812742556598025,17.155089290375763,7.0731537076972995,-7.9767130999562665,-23.17427447566801,-36.79268418837457,-53.910599214386835,-79.35691472052878,-101.34290595310664,-91.6669212115748,-39.46837535905229,24.81174076261805,64.25127032195957,73.79663077602349,68.57819482801597,58.14394436218825,44.039227842237594,28.575598164536512,16.470251235703707,10.913700532224311,9.194867562413403,2.391304486198288,-13.736738406833512,-33.40813193318158,-52.7415107681587,-74.71440628307263,-97.24870701992386,-101.78513895164542,-68.18371598526454,-6.177955241898718,49.689448021447255,77.52157654393974,81.74478730257687,74.70333222274289,63.48366920904659,50.70384432113743,36.410613023513605,22.332780600643368,12.282548344991316,4.285749802169227,-8.810117295646156,-26.969310342488228,-45.58555181082967,-66.66406375798817,93.0,116.0,86.0
-110.45402246621141,-94.67998406991016,-37.365497230760575,27.733751411324363,67.22363956529172,78.09816918028471,75.56363056733827,69.81856140696328,61.35660222706603,48.22589325886616,33.6117680819279,23.984019234701737,17.0654090589408,3.8199012463931843,-16.250846666406844,-35.01697078095902,-49.51375803969568,-67.08089566136154,-93.74962836295464,-116.202224669328,-105.47604309844624,-51.901354276655965,17.408004496335742,65.75356497604781,81.3023081657908,80.03265835307332,77.61047493036902,70.56719997209773,53.24373362094047,34.14885324856009,23.6198200993704,20.33043222117206,13.321433413516191,-5.119049213209287,-29.15187956193104,-47.85930946413543,-61.23253428384442,-79.20888087480617,-101.82663700767534,-105.23505886181592,-66.81826817014995,-1.6594511554199292,51.74797973427311,74.22195447958543,75.49494458174763,68.57366664243098,56.63627522554111,41.333514582754475,29.47382067464352,24.61455740473704,21.22105429950946,12.695621888118641,-1.194784541997442,-16.24814884210516,-29.452346962301323,-42.71549273121724,-61.50063521362613,-84.9855961736897,-93.59019858131664,-64.70282560079843,-6.94851308793796,45.523308086554415,72.62475478749177,78.15749816905726,70.40068960185165,54.60875322037633,36.544763933389994,23.08683493406747,17.412738795126824,15.722141983118027,11.566392259532229,1.4710638278002968,-13.2264959584839,-27.9246034902915,-43.351684442761446,-64.62446439003357,-90.91097847724974,-106.47324121877841,-87.3726916112068,-31.914577255262166,28.4776453631287,63.2256628025935,72.01252361318262,70.78086669396565,65.2609107379728,52.83181610472594,36.20570816037523,22.233947516981765,14.004082566313441,7.338739136724286,-3.771897021148539,-18.65186033638502,-33.18752287410469,-47.4583145126261,-66.59396291999118,-92.2125771139612,-105.2650160128136,-77.59299590900778,-15.519434579408898,42.126927140344286,71.75821195709351,78.46873613207303,74.43935553286586,64.61123857337283,50.556338206300055,36.94544877356842,27.164661353394912,20.444697075805678,12.632516087672814,0.4759249378892331,-15.096445292548454,-31.995171279636534,-51.60323708940849,-77.47846683053402,-103.2148860667427,-105.36732963328427,-65.93421004259238,-0.966285251719211,51.46969886927009,72.95737296856001,74.74437726369239,68.87137785312976,56.064390975523615,39.65276133639075,27.808650679218946,22.182097873921833,17.91096159944521,9.609525166540536,-2.8288448186082316,-16.15758814641944,-31.262317860897454,-50.8806739666192,-74.90354149848292,-95.68755877938521,-91.03265609310851,-46.4750893853248,16.942922921736727,62.29477531049958,76.67900318013348,73.52007824839411,62.865434687315094,45.779387468062815,28.750346684583302,20.705926382606975,19.58785895416862,15.033908555950141,3.002124452540099,-12.52437711895075,-27.18623368707346,-41.01666703520962,-60.49708435909353,-87.16529420713479,-103.01010252083691,-80.30516920232408,-20.132816815966056,39.67033169406147,69.51157065125919,73.15424698420759,65.96552177532116,54.40916505670782,39.52218192434341,24.52454760999352,14.162652678273318,10.35145324174034,8.153815833381977,-1.4408672058331382,-19.38500072533164,-38.97102407575318,-58.66886486123473,-81.65775532871297,-101.56870680096078,-96.30813431225332,-51.82753043342792,12.093576761017198,60.820134948988034,80.56926057630973,80.44841895395969,71.6998006131351,59.934255077664204,46.71949430295276,32.149067497318164,18.914874421289124,10.089699393430918,1.2291629496666314,-13.775801788512375,-32.37706560631035,-51.16992465212155,-73.84170076255835,-99.24378706555171,-107.94831530251452,-76.54304419277301,-11.449279177602401,50.097220111904115,81.10265594441807,85.8055055034296,78.36760758450505,64.742167026334,46.92387797747177,29.878336084889042,19.09715942585229,13.35049334716368,4.974013436301093,-10.076049532401415,-26.514316574153536,-39.202708356568856,-52.60111827165374,-74.33131442544129,-97.02366531806227,-92.84065231044302,-46.785753605282984,15.917902081574654,58.01393880927106,72.60143766564435,74.01709566792148,66.39950900192308,48.33576972492902,29.329326697354958,19.571388295378064,15.627755455861065,8.288491026653718,-3.7362784950621473,-16.14491160838736,-29.49324111422021,-45.75092387234862,-64.55411038586286,-82.80092197701619,-86.36105319689476,-56.46089797425074,-0.04693250375162044,50.20385481992545,74.03686627305486,77.795202055663,71.57067833315874,57.4673507016696,40.76782400627924,29.958134065051087,23.875906157937653,14.88820008320148,2.1973659423652423,-12.11166947477802,-29.354734443906878,-49.2819697576308,-70.45417426331773,-94.34719257609294,-110.08279182415914,-91.33372824850147,-33.86817924888996,30.48340098046257,70.09932949668482,79.98513732267072,93.0,116.0,86.0
76.00784288770869,77.0168892943062,66.44864476462715,49.313089544679165,31.921777361330335,20.688232355587537,16.820323282072007,15.000726442456994,9.31347558850315,-2.5149878147515707,-17.5940478879747,-32.09076843113203,-48.72094694904305,-72.07488867030955,-97.61021516781162,-105.30021843418511,-74.15993593120604,-13.204616058944595,41.78071526688856,67.74784002723943,72.11894735777672,69.74225120405026,62.40848050058456,48.16801079238955,31.62683769973154,19.322736051655287,12.239381446530091,4.715087429651455,-7.889849665384378,-22.993501492595836,-37.1881674427837,-52.20053666118256,-73.67097781918983,-98.71245125327653,-102.12396137578553,-61.703326918410355,3.276626157742588,53.729996244730884,75.45250011309443,78.02064410748703,72.16181847087033,60.82442372086913,46.35663178137395,33.67829651387504,25.050609156077165,18.509928090093716,9.600187340748914,-3.7882845847158553,-19.87672950287677,-37.199933168197134,-58.39000696770023,-85.70443383156669,-107.48598614491824,-98.28476054793198,-48.17778054848375,16.974986182972508,60.725815507557975,74.72241006320876,73.67035874005495,65.91222979983034,51.31823956042089,35.50455827244828,25.69203414534523,21.089059409213565,16.064244644065973,6.288435735570146,-6.664429427578231,-20.1805487849054,-36.41619503021736,-57.46438341352409,-81.97812854619367,-98.09875636436013,-82.0420816963567,-28.369457181045327,33.16823676122249,69.29432369811163,76.84678331620199,71.12995348933457,58.48182270871635,40.37050566480326,25.316555650107198,20.10218751920265,19.018466891117264,12.227383847891417,-1.3553405101939804,-16.975637715701577,-31.070192368621587,-45.73966837117265,-67.82903486493042,-94.17143678048546,-101.24424489148002,-65.5154433853568,-0.9086375383629912,51.76136205238547,72.51927020502782,71.69240384115471,63.02272975334277,50.373112094217845,34.9834250124926,20.879307516677226,12.449838058150183,9.964335470380707,6.428449755837374,-6.034742557117754,-25.119987788201176,-44.49987505301603,-64.93635357793764,-88.47866080787148,-103.74369927835727,-87.28748180047998,-33.73609563045988,28.922835476633455,69.36245282745318,81.96584117944816,78.47340348756568,68.46970338613811,56.27562882170141,42.60126830205103,27.98522851254416,15.93128875897871,7.911955263201331,-2.419921560321598,-19.047805546088256,-37.73116720421312,-57.10671114176712,-81.39140816874078,-104.72746461894732,-103.51079925874463,-59.861361271526235,8.471798874450206,62.51461862425095,84.46434843109488,84.46464216430246,74.98939672901585,59.882958998329244,41.61922335199655,26.002921371060648,17.194632690372195,11.557067911899043,1.2199741043484056,-15.03668390684444,-30.566380774891012,-42.58944852276291,-57.8931007824375,-81.77448534042345,-99.8914406646965,-83.46455774454493,-28.484069060288387,31.2417812912103,64.48651434539467,73.85132459094872,72.91851584523644,62.0589678805544,42.31448055424364,25.434516402288004,18.28341769134195,14.1257736566948,5.095056119176678,-7.379511590248847,-19.768159860638526,-33.88330551514675,-50.9596273153342,-70.223551448825,-86.30885551437456,-81.5757642783084,-41.641311012318134,16.552213625662425,59.90686832991717,76.56919062355564,76.84782483025742,68.22615334925844,52.48460340309326,36.82749881524665,28.080015385027835,21.783281743978907,11.460853280264686,-1.7600674751124665,-16.720211152896137,-34.948470732016766,-55.2219853953779,-77.11694766466888,-100.82943320524959,-109.17865973253333,-77.7882641246149,-14.193857435447493,45.21906198231342,75.60684425999368,79.0218424047796,69.82103045856253,56.72114343600371,40.31977666600451,24.109033425433786,14.723205852817104,10.828337029160096,3.6149484499212314,-11.298561187918725,-29.28281206325578,-45.09265358094458,-61.59461989658635,-84.89113962813323,-106.23365679453364,-97.58901817620772,-44.834430963023856,24.019280367593733,71.60535306919597,90.65798435377664,91.58129078608879,80.37317775123282,62.67317604538484,46.24199879247768,34.56204013303308,25.933369881733437,16.61362239401387,3.800734518126351,-11.820265076118252,-27.09235128607099,-42.83289797817153,-64.97754481641154,-92.8722765056563,-107.20155913539229,-82.37166664475187,-21.815573153635746,38.26559658366272,68.86146710920237,73.32997307753446,68.2049451895929,57.87177039464936,40.27124446719537,21.90254985360958,11.982348750434205,8.355225268897838,2.8888660288307104,-7.4427112500557495,-20.995990218162536,-36.91040901241844,-54.22724891627792,-73.03295641200815,-89.88208565631234,-86.87852102606713,-48.31359556148503,12.315530915583874,62.96191140599586,84.85893867433317,82.26082719235878,67.65252436508011,49.76541868641707,33.43252865635159,23.20457630956186,19.693853501828126,15.147436717993124,93.0,116.0,86.0
24.03713653301808,19.95672874558629,13.7699982715034,2.6926041234537403,-10.498895952711749,-24.439706013519604,-41.987724011705616,-64.4007702038654,-88.47305465316035,-97.69276436836736,-69.62961457230584,-9.584315970328086,47.02775979602324,73.77345135391668,76.00711558055332,68.19746808104279,53.56987094877325,35.227064690602155,22.806328657600734,19.874937518518543,17.895766756303793,8.816462894170176,-5.872545828513002,-21.262726587250185,-34.95323687130997,-51.14974383481666,-75.67394342681766,-99.59903614809382,-95.6095631445282,-48.09920294167629,17.136349385750236,60.957690269586166,73.72370231496954,69.66116994741634,59.7580757397093,46.08278898260917,30.548971544239446,17.73319276708054,11.289413312309952,9.50492554006364,3.8691730749589137,-11.211962074496553,-30.814000138187446,-50.100497813135306,-71.5606503717504,-94.7227568358839,-103.1411086871633,-74.90308386801279,-14.86735250566618,43.69052262421439,75.46017854032516,82.05751835019151,75.98531117322975,65.08450827424424,52.493346815712385,38.37803628557495,24.042595187078952,13.358047010863592,5.519595042975504,-6.668434753767286,-24.462711795297707,-43.085295285938926,-63.52503969412627,-89.0082849847689,-108.13746395722612,-95.25345276714981,-40.94969407130145,27.019258471810726,72.04067136831645,86.00145904176256,82.40532165363149,71.14549301163231,54.72816987561814,36.54434267536772,22.75652842633805,15.593022638819708,9.317444881295701,-3.0928175938564553,-19.90576019549766,-34.24651788275033,-46.25263112027328,-64.0435436124862,-88.87500690903833,-99.68770354809715,-70.56828047137657,-9.81224750719069,44.07362882965513,68.89734855563442,74.37619314163949,70.97679760798903,56.877097790646836,36.57294968174334,22.46415369403428,17.248239399084994,12.137963429219708,1.599379848896282,-10.96056614442063,-23.55088935855796,-38.531996841946714,-56.36775621374012,-75.73123655210479,-88.0828068053782,-73.59705859415217,-25.17025082230332,31.733376939272045,67.21034381525307,77.7845204841846,75.20780294413514,64.23018967970611,47.50364317608879,33.56339856355436,26.41868645731437,19.28320033485496,7.800199720123663,-5.834337431734481,-21.632767383692055,-40.7082470601483,-61.26190012934153,-84.07515772566256,-106.11625060840045,-104.70125713512934,-61.3273288081897,5.021956948831613,57.332335755065905,78.78375761968334,77.0558138092977,66.34438291929294,52.30261028688602,35.29058361652132,20.53038311317394,13.372892831980796,9.463555849168968,0.024653385921900223,-16.502441354280496,-34.13242964995296,-49.44740485233717,-67.57389023693607,-92.26571904800485,-108.13602563904124,-86.38878726565517,-24.619618637155728,40.93556958747255,79.62170064955262,92.39801303820053,89.42321923951002,75.56494765730234,57.52433544837621,42.377647095658006,31.912877013868687,23.47485133268376,13.324473675615874,-0.5614612382152661,-16.36602571169806,-31.371121399483823,-48.332798226284204,-72.91181187789213,-99.70270457166467,-104.71591821089443,-67.30584160867532,-2.600750964598911,50.58511735787831,72.04333811518862,72.33697115403551,65.89597735135678,53.46098529853108,34.52477272313887,18.00730482385924,10.664453772753289,7.23757785698327,0.3653034488605125,-11.104333407838748,-25.3664605174703,-41.82055722783082,-59.46219584429251,-78.60909271676458,-92.0980259834017,-79.43644808772714,-31.70998197076905,29.276743598730732,72.40586999286936,86.07506020708745,78.7770540163649,62.5726251884351,44.69432571703522,29.66658856305253,21.720503102916755,18.90724832188633,12.57408557263301,-0.2538055271913185,-15.186284584873203,-29.401151910901397,-44.83901061633726,-66.9956309390669,-92.44449451826917,-98.77246714732156,-65.81861776574056,-5.561538076834905,47.18588699205249,71.15100376060525,72.15169964904284,63.46354018281482,49.902071825945534,34.73731452182545,22.749281233485533,13.993809278765355,4.641769578210127,-6.071418796167173,-16.495921525432404,-29.086375835216884,-46.41986868876841,-67.32349306340947,-89.53318081339349,-100.79617052609885,-78.80020877515669,-21.162156059726662,39.94089472954141,73.24578929637968,79.47612118993175,73.9682108362429,63.05950996346909,47.61443965794205,32.07498673368267,20.96959550254526,14.707745460814715,8.8440895981434,-1.2104389057323144,-14.690893120241354,-28.9355334906448,-46.33047707408404,-69.92873079291003,-90.4146732663061,-85.26173145356101,-42.355118471709034,18.28363071992829,61.87243760209387,75.40202943775635,71.17608056967158,61.55696254511497,47.960080528053396,33.089878381637945,23.31392030184101,18.74430602260477,12.788817037136281,0.27733363884517315,-17.142920574576944,-33.68048758318745,-46.51747957082034,-60.378015959546275,-81.13727553718023,-95.59417228905434,93.0,116.0,86.0
-70.47409833797862,-96.22084048347097,-108.76531991711656,-83.24434535996569,-20.828999960128282,43.41442394244389,78.81962480847741,86.12526942347334,79.76159963926895,66.85848493829404,49.39859672387024,31.864278339206102,20.124473771892795,14.081097663551635,6.492323876580908,-7.814710985236079,-24.51190294985813,-37.665267861707775,-50.437233271094755,-70.95875371992399,-94.86683666635014,-95.88304127049211,-54.78802231886653,8.144081639326986,54.2210168791022,71.71459730749382,74.27813621497859,68.07511326329409,51.10513177975355,31.431174880673666,20.326883095420925,16.190900787254762,9.619216664420948,-2.0441397513244457,-14.50472758955589,-27.558861544618303,-43.42109219863519,-61.94433851536001,-80.76074132103554,-87.53757890236025,-62.51559628886685,-7.9640904470121345,44.908697745770105,72.32568988522087,77.98480768507562,72.87928293780566,59.69326691496788,42.78760289479261,30.963699181340022,24.726591124953718,16.36308784823013,3.989789562840705,-10.079065266973593,-26.853188023735022,-46.56302547765526,-67.49098624814809,-91.14753564473943,-109.43251101062768,-96.41720958726134,-42.81577786430174,22.894453927081162,66.69626460602167,79.98608662589456,74.4152001193251,62.630682816837314,47.587200846596026,30.44116994164942,17.668654307921816,12.327587815559012,7.577643519738436,-4.215407564723391,-21.778270093119247,-38.718648803172705,-54.034396221326105,-74.24359946963338,-99.03386690554706,-106.70250439796682,-71.53120513548862,-4.148998794661927,55.34745432029197,85.43606315412053,92.88309005888422,86.32726346453792,70.40298163519401,52.65881447470393,38.934562852449744,29.437905406460548,20.863772996496163,9.693518357690126,-5.0948386655801405,-20.800882004144224,-35.78165023398186,-54.54299797798043,-81.17883605151292,-104.71381776344995,-98.40782146667769,-49.7777633390233,15.499467157742076,60.01577194820144,73.4482169267587,70.90356561789186,63.09029083698465,48.42055895726184,28.995811889957242,14.980732820682421,9.680766307041749,5.780994557471713,-2.5632815225575873,-14.97812354630786,-29.937037934240976,-46.803513554792424,-64.86860878220052,-83.83850255920987,-92.05163663970318,-68.82293114913385,-13.935408380772643,44.59108458973324,79.24582367575668,85.5293265436228,74.59120948324673,57.370674334649664,39.85154675467465,26.535874613950828,20.726663956760667,17.775706061738383,9.398596608589068,-4.559544329913028,-19.38033125526677,-33.51042506315522,-50.3687881352069,-74.68007857972496,-97.50307707087029,-93.48593223809617,-49.80082354666343,11.923778350728167,57.23758167241745,73.11679587010708,70.26402214947657,59.969410198753145,45.448040758103666,30.818577259521458,20.04071120788832,11.49294623170927,1.5908481657689992,-9.10307612501894,-19.71669370063602,-33.62139392314422,-52.15468225460749,-73.8365344090887,-94.87558425455377,-98.66059876282617,-64.89661714828127,-2.0214634643784564,53.005959063035725,77.12976909607708,78.56969257348231,71.35855488322636,58.93707344383017,42.883311621857686,28.296466908343376,18.780234992295448,13.240954524752222,6.45004969031748,-4.911239800483181,-18.744211090328353,-33.405167158949176,-52.58981394041405,-77.03068973497685,-92.57439768967579,-76.50222146080114,-25.04517186486121,33.83292330695316,68.61971618177324,75.24042654861168,68.74430598392269,58.059453315999704,43.49350793540209,29.558586576604803,21.680936086906613,17.49838479018306,9.908658821282373,-4.4835450454064825,-22.255276759703342,-37.712744918422345,-50.032208383390184,-65.72348847005408,-87.22093147979466,-94.2857823026344,-62.33225255714373,-2.0775383501645974,51.39520275190338,77.39341330846023,78.1439397562231,64.22677643436131,45.639321780604334,28.994976298890446,15.879388591816763,6.991446967774544,1.9838275593791355,-2.853457907685015,-10.919580395703075,-22.867072532731793,-39.49759684413558,-61.1555197172011,-83.3274690275528,-92.86891496621963,-71.46447770209267,-18.72025226585459,36.409945086019405,68.15385152853852,77.74643097096792,74.3767931213649,60.29617373300476,41.102236833885584,27.07317169156898,21.14951885341517,15.528635840669509,5.559171282231074,-5.3804111356822055,-16.401937669298693,-30.771708939229285,-52.57381943648863,-82.55743370514448,-104.34292051503978,-88.95882014371946,-31.4229669075204,33.495323979918766,69.38860589174743,74.90117592549419,69.35295472335028,61.4505239761488,46.39760084128973,26.266493691822088,14.126688889329527,14.007288822190187,13.192081528532459,0.28943859831558616,-22.17336867899848,-44.163931721639536,-61.78275118914174,-79.89706840066657,-97.35725439428347,-94.45457318888492,-53.72668567809897,9.457673435476913,61.03577360930283,84.06095787670233,83.47608339127304,71.55461612110906,55.84282850422858,93.0,116.0,86.0
