16.245094645296515,980.6475532099829,1279.3483043771926,1123.882745980073,979.0180318431089,931.504230851905,875.1882078889682,784.1716149471517,692.1029848372542,610.923284211777,535.3726382926666,463.78745918798404,394.85402766813075,325.47886439748686,255.74902992572765,187.30990828743492,121.13857015149246,61.55315244106228,11.091182545165536,-38.73414078970041,-95.40652209274754,-146.7556095592502,-166.78988155278958,-147.53434325504713,-116.48196510851301,-103.88320405546654,-110.22929223848374,-119.07762918554789,-121.89872236543846,-123.17718483247393,-130.17985659612384,-142.03368060443796,-150.56826376068946,-151.18930692075935,-148.62062126442916,-148.49555928352538,-150.57788719965043,-153.22992269049584,-155.6941907321157,-157.45075891991314,-158.67336195756758,-158.38722681593146,-155.9325487423362,-157.711646605892,-169.53465140558015,-174.29141720947945,-142.22331447498289,-74.54798524345988,-7.768886561144556,32.32400889910639,50.053836986193275,60.89445875102859,73.50255620935204,86.42070360294741,91.76631646773637,88.21571343153805,86.54743140820437,90.86255739224711,93.27930075271625,88.90207060668517,81.36800811230279,73.98828422763644,63.91449664024312,49.9925870598174,34.57025374228395,19.36204317802994,6.244367337782115,-6.552699037535299,-25.17510700495154,-48.87712024010553,-57.93273828342688,-29.743862582828115,23.76840797038004,65.25887920077616,78.78490249082606,78.60839383879835,81.18355665985396,85.65523399125064,81.41220704833663,65.9059682814737,48.724980363462535,39.52788491437597,38.03173718789155,36.43046606392693,28.74890454781787,14.535735620742706,-2.578567213552,-18.190302636176284,-32.10915122096852,-45.29859472816427,-57.49655588690721,-69.30157645377372,-84.29379490865898,-105.69627796205008,-120.80982039898328,-102.20242666223386,-49.23437320007431,0.8610776333599856,22.55740472052944,25.60158341904104,29.018439675838525,36.88122778564462,39.59204717376449,31.879375746370986,21.144852860232017,16.80966950923798,19.104594783659113,19.579623342546242,11.469575786639117,-1.9574185527651125,-15.790028505788214,-29.150199052366933,-39.660074923552976,-45.18335529718292,-50.60342318403478,-64.3226018376373,-84.2772036825858,-92.38744819345249,-67.7922521616414,-16.513733615610498,28.212773288511443,47.3791173817157,51.69542457155989,56.73882310684543,64.66284740379227,68.14703191234607,61.76372959407959,49.954216520957985,42.853897809662676,43.38567593201214,43.794475556547276,35.753220274710905,20.54399253123555,5.263831388131746,-6.7846478603900255,-18.778251003320122,-33.77436145855539,-48.84684787165645,-61.45559321572796,-74.79465696099378,-92.86307249341431,-103.78451060721063,-82.21727402997094,-28.261818166099935,23.161550753680356,45.88923387640005,48.13330172058189,52.210596066744664,64.97202336554791,73.19919345848216,67.29381213579725,56.113042405065144,49.785130389190485,45.7555846790064,38.167810255243,27.60225554820676,18.41475378656607,9.987438244250088,-2.574353477258591,-18.627389344158317,-33.48621824798521,-44.3779377927028,-54.55124602697767,-67.48081157482784,-81.29130178198537,-98.69006833498844,-113.478965776438,-98.81270463284875,-46.44707829284386,10.734276047564205,41.77515932415307,49.00129674787208,51.28592879877653,58.888193218625844,65.8591739530038,63.52125200782296,53.77981172858669,43.992645293741134,39.6063204249749,40.757717276274526,40.80422148099348,31.655006466539206,13.350717754838959,-5.4529941065064085,-18.48697339039056,-28.272054315275014,-38.3455243651224,-48.49304044741628,-59.133900947150465,-74.56577301920116,-93.69031892852122,-100.18204215449498,-72.58182683219603,-15.198732415441103,36.70789891155018,58.190456906807555,56.798709783969095,53.128278839615625,55.810213113683794,57.43778611259497,50.430775276713355,39.91732369260808,33.49932003916974,30.679022250911274,26.839195084187853,19.18470430542874,7.955698809005375,-5.080967446353224,-18.326349982221625,-31.336495659925557,-43.86949609642206,-53.80796501660527,-59.84856162791182,-68.75954609824001,-87.12063816828623,-99.92327937861447,-78.59440223836707,-23.925371382148942,28.736794449447487,54.85604306665696,60.46816559349,62.537837376055535,65.40496507723462,63.912183553024384,57.75442323722704,49.751380807108326,44.3036041091656,44.43995749840419,43.459531869519864,33.87776055633615,19.70112059687827,7.248185857508368,-4.113272293987265,-15.189715356834526,-25.163699724610474,-36.025098063233884,-49.51262496842975,-62.86329589089551,-76.30304378023031,-96.17039127647189,-115.89854020921227,-108.72841054172603,-60.189664070886614,3.13534073481628,43.08112629397697,53.392508392554134,53.08766998476139,56.95155148093954,65.11386598680501,67.85942437146463,73.0,118.0,82.0
60.189484725252655,45.60846348845344,30.067715986177713,15.312588157202043,2.7610769142001286,-11.099033203936093,-31.980539567127657,-54.28939575029227,-53.956894671549854,-15.297371223040315,38.41116507163526,71.78979862354905,79.18878541395767,78.74359975440551,82.73731430506118,85.70236197241937,77.83432115996408,60.55166441895295,45.050946421409705,38.575959246273236,37.95831155785742,34.94121156445564,25.225744358807475,9.646503902692926,-7.335001906989326,-22.317963970355017,-35.99446672764821,-48.935701312205644,-60.86070298368687,-73.06291791903848,-89.92186911999956,-111.88812655643504,-119.84717984610732,-89.18204748393799,-32.65226878011202,10.166416761880168,24.38521101635063,25.998722351801714,31.12973142356447,38.666089972147084,38.3105860120809,28.571238291975362,19.01113287619368,17.057520934587327,19.881479294942206,18.154344484667753,7.828734804760684,-5.984312770352114,-19.743482394093643,-32.64360955733704,-41.72316688361128,-46.340707946596005,-53.50208711816564,-69.96655206586408,-88.93872784115412,-89.11824272898374,-54.47106800770129,-1.450683051303634,36.3267563026768,49.29493317234389,52.700376091508126,58.972728964622796,66.49645805349066,67.33554051716692,58.45640080808695,47.06186787336502,42.41049372233448,43.99879103879157,42.49233898062294,31.796988465406894,15.859031453037582,1.490281135823611,-10.025455320530767,-22.835140402009632,-38.32091816618587,-52.717815288880324,-64.96038777067248,-79.60163255838687,-97.87255512553183,-101.72694797647,-68.7970237715018,-11.400223293332957,32.928833123790135,47.613674451521916,48.35825016263395,55.33665907060081,68.56717881172455,72.85027483006925,63.95796553017321,53.67714651518009,48.71265406944872,44.04631549786717,35.22664419722795,24.675321331874038,16.13127078343536,6.9033699448191825,-7.047577585982472,-23.24296957030719,-37.02735533550326,-47.1191496998743,-58.056924251240225,-71.38977436322438,-85.78329362199437,-104.18713209215299,-113.45708421420866,-86.69080450015689,-28.519449538854072,22.897583843576914,45.52956795998033,49.39958234313333,52.937228535684326,61.48332933359373,66.2692981103668,61.154838568132824,50.645927534596474,42.03966479502716,39.54360507495114,41.30309824332202,39.31883944690491,27.023679652316797,7.5258393985603105,-9.82874213514334,-21.430583822132352,-31.09941646440536,-41.32856090100654,-51.37108435844625,-62.918670772510104,-80.1275943501309,-97.93531116193083,-96.28338190170513,-57.826658340834385,2.049853777190147,46.26490681861366,59.20416883029425,55.233133025037574,53.355725518844174,56.9064088980647,56.31230133179362,47.301749175703925,37.511659060914795,32.50452590049041,29.864488164897267,25.053393143962747,16.24659216673568,4.282486873291106,-8.92345348335047,-22.11057105243817,-35.04836390138179,-47.15341410684453,-55.83411627513024,-61.64655985140918,-73.20887532612537,-92.72717500628563,-98.12798513175123,-64.9943215192433,-6.825451433391391,39.23748403899351,57.78920351051427,60.888166340703336,63.505803143359145,65.5645815111239,62.49574432616331,55.49007011470161,47.664388107629165,43.86171228728431,44.76187664472247,41.61327936530623,29.870777802005243,15.840518492443191,3.963219322368933,-7.399644790509145,-18.160699626345508,-28.064589384038303,-39.70318745858303,-53.53736997160328,-66.4819189463442,-81.21454454886779,-102.82944620155456,-117.86729230187669,-98.55428903849054,-41.43974135462298,18.118619168030392,48.45806053133195,53.47777727941058,53.501821761203715,59.193779980665084,66.95284975534797,66.38669405838935,54.68323089171847,42.620374095198954,39.32551212778894,39.22921627779439,33.09038221789814,22.5763891164309,14.13025432451655,7.522901418594708,-1.8979328872802785,-15.311582268658208,-31.027473325690245,-46.34983691828212,-58.53037805456352,-67.11277833213853,-76.337303763765,-93.49506302674118,-111.37566874608044,-99.69746020763854,-46.05442725437557,14.393189854933325,45.65427739634105,53.112278498642134,59.164430460045494,69.44374071336112,74.79153278867257,69.765610311108,59.202769996573366,50.72528381476627,46.04978421397033,41.69614029338826,36.46721183902924,31.025117779905948,22.49668357405827,10.016399827027556,-2.000759716164269,-10.717751223755432,-19.99144678916028,-33.60697856945423,-48.032008093057755,-57.33169027285334,-64.8048819741948,-81.92340727015346,-105.75084546241888,-106.99436220453103,-63.62554491530619,1.248481817842104,45.40662260888714,56.098548218432335,51.675608216926804,52.27881288437919,57.81138413257802,55.93892893945005,44.724298545619476,33.875958822948725,30.35705149050477,30.37427782488823,27.18029157346475,19.70685428403468,9.3837836597585,-3.2025412421366846,-17.62315248798489,-31.555280070365193,73.0,118.0,82.0
67.73706158088537,65.6323479426779,54.92195161863778,44.80824671785423,42.556149073223374,44.32785974353496,40.34205565438159,27.385872258241537,11.348341731920058,-2.00082332321232,-13.39746216808202,-27.16293178303934,-42.75007694735781,-56.365200887083844,-68.67123957578592,-84.86718408540312,-101.74345119057439,-96.3172105009007,-53.13222942455134,4.192472797974487,39.97572893308944,48.15442619903398,49.25822886241103,59.10961852805267,71.31990211981565,71.26721894292879,60.5599339591652,51.780014311450365,47.65129489099684,41.936278959223394,32.12831439225534,21.97201758545624,13.804683275912742,3.3647640153076925,-11.717185205469567,-27.638604396489505,-40.205424939861764,-49.95976356355248,-61.801210571731005,-75.31212859126427,-90.73810008790176,-109.07095236567827,-110.17221956549913,-71.66853801552415,-11.30982117264013,32.41651659137196,47.67134688132657,49.872022574335276,55.117353112003215,63.73555498098489,65.76607078652877,58.32839114744071,47.69130981742285,40.636162013110884,39.88495996967,41.52891706148534,36.89719212112156,21.741748630684366,1.9281833236493544,-13.664565415304589,-24.229947714611065,-34.00337249628388,-44.275177595944484,-54.34408758786669,-67.24117500513287,-85.8558414979364,-100.56094079351308,-89.05736194060304,-41.10477067335766,17.808215913394488,52.98792538607573,58.785495818277965,53.96365758597681,54.13574951530467,57.611369633554865,54.3804390623349,44.13730491237924,35.565724827786134,31.719037364562396,28.84562100312118,22.91693263701598,13.037483008952766,0.5119280064300469,-12.7574235010417,-25.87298954923456,-38.71244434117255,-50.13545905071639,-57.546241869610746,-63.95526427760799,-78.52242475157686,-97.1986105408385,-92.80780075890684,-49.11682891150366,9.070364690445961,47.244322794219386,59.415919320228134,61.4018146903939,64.44980990588076,65.24023831540954,60.750544453788336,53.136355222087914,45.93633501682221,43.90035668718226,44.70857397474494,38.956364029702286,25.696430894623468,12.215539435256025,0.6928358758882809,-10.635976185221564,-21.03178174473538,-31.125807270878312,-43.60441748313291,-57.43834312053827,-70.20727802688452,-86.84757683463175,-109.07038844875548,-116.79276186847231,-84.90508175415584,-22.52676270536055,30.377360836414066,51.61621769732749,53.233102312693944,54.485944615307645,61.66092331679134,68.04236556665884,63.87168130760038,50.60671946539729,40.74008160685065,39.49104606317145,38.242696116164424,30.170177049763925,19.76897274711647,12.23716266234427,5.240696357816667,-5.418903627342806,-19.71402203883615,-35.63651065806733,-50.27270512225077,-61.306293038139515,-69.36813424149142,-80.3052365627155,-99.64330808364126,-112.44917743310124,-87.71764499632508,-27.088184395839825,26.970064677322895,49.1855999824908,54.309668060929084,61.995955133607865,71.93210375153362,74.35959038309755,66.89882167667254,56.31372389378721,49.09767746551917,44.9111635530259,40.207947291925,34.983530420628384,29.030055566756246,19.170156499273027,6.259052929203785,-4.801806199815497,-13.07102296655209,-23.48933459655219,-38.007737577242516,-51.3589394252865,-59.1939067410997,-68.3750292719552,-89.01550036578497,-110.02046483952266,-98.94847989772838,-45.06133171169919,17.48525742619874,51.493349838594575,55.24530983353095,50.88608436454833,53.90577848064788,58.439960838418365,53.33701698375805,41.067987957131706,32.079129240556085,30.363234534717485,29.940668265363083,25.394976614390217,16.97035785283433,5.975327856532241,-7.237192419787547,-21.8475088583887,-35.024479371368514,-44.223257229438964,-50.93376005974438,-60.35440334248017,-76.03348496972998,-94.96147907248329,-98.80988298839713,-65.42297391779142,-4.855889100541225,43.47240404355921,58.76003887114432,55.999939094628765,56.97890817775936,62.99248835142934,62.480491662452565,54.15260984173587,45.93542212593214,41.48800132745147,38.930557002784944,34.64027039860397,26.247232340175106,14.685251101526799,3.960795412593725,-4.920976730517847,-16.78716178683077,-33.064369157127906,-48.35316132734459,-57.653678491096194,-64.55520152463272,-79.20029486115787,-100.65631992660224,-103.95430004080471,-65.11366812138289,-2.0766703169525558,43.45448458870891,58.00121719688825,58.980110852259976,62.087423532007236,67.20611537519201,67.1685271111913,57.95891396383969,44.372484612033,36.51398202032558,36.546625490636536,35.69298037588824,25.74880214213293,10.562837117532744,-1.5283785168331154,-10.771152952769866,-21.643407945329326,-34.45138332744887,-46.569193133986,-57.02400751240574,-67.39174118033816,-81.81716118302346,-102.36400451042505,-114.99323041392933,-93.88118040456844,-37.94344257403713,18.674997771151997,45.84186517588505,49.18179068348049,51.1902255484824,73.0,118.0,82.0
-47.17042392845765,-57.54287470647238,-72.13360000312285,-91.36242332332712,-100.93174403831547,-78.49644548631682,-23.399444770915686,31.34914591961943,57.08260986659352,57.51750829827823,53.242000095667315,55.25626970830915,57.67337363248975,51.787016813107456,41.17040724978215,34.06170990490334,31.013200751872546,27.54654101861684,20.437638146385982,9.601901144805673,-3.3106995460204147,-16.573978542107938,-29.6166224312326,-42.278432641708314,-52.742613648180615,-59.11166525863488,-67.03209437387534,-84.3808030317192,-99.67591170807354,-83.86819331545136,-31.96472002605895,23.059383847636322,52.92870637161839,60.234826048022114,62.131168124170465,65.183251906636,64.43394578324003,58.74714974193309,50.79307716174672,44.692655416892244,44.24586573154692,44.03069668417417,35.605133482870954,21.556670814120295,8.785018852093168,-2.5937130642877917,-13.779547453699582,-23.856168684435048,-34.418089309905646,-47.63909106379224,-61.181452888439395,-74.26098604331635,-93.12716973793037,-114.16097500090727,-112.14853166099932,-68.45669186234545,-4.561696294932247,39.72772890323355,53.10634401482841,53.05992304734869,56.052861813968434,64.08897690562787,68.16568814305,60.50375679223112,46.874665576914566,39.69343636093746,39.63732971852768,36.58926076269096,27.057412876103484,17.263424763440295,10.401641544713012,2.6122789220212472,-9.249248026241592,-24.26068051014032,-40.13444070466104,-53.876956857195424,-63.79721138127927,-71.8435760795596,-85.12296754620209,-105.41235216933559,-110.13611454966933,-72.39516435555359,-8.831528076185334,36.569799399153936,51.27841258303986,55.88730445778656,65.07677669753511,73.73082084924768,73.0325083189649,63.77713490361037,53.75959927706477,47.74901470232509,43.692012473526944,38.678410348250004,33.47330692352424,26.672127830339168,15.554510274311564,2.687452982432534,-7.3185514476864,-15.629562660926668,-27.38723734996375,-42.30989607031216,-54.13530493470742,-61.12661625038592,-73.05900991878293,-96.32644530862879,-111.45711166827259,-86.96111342805715,-25.766486520698752,31.05715806183888,54.89016087411071,53.77006204625758,50.884122378244776,55.6957651624722,58.14587516198892,50.081389696645914,37.736307740121596,30.970596824183648,30.46536539600852,29.115155565282045,23.284572722046946,14.027998427129353,2.381107971500416,-11.408400199614185,-25.94983975611028,-38.13378749719455,-46.210089957136134,-53.155488773657716,-64.18358539939274,-81.63080596522995,-98.82814307788627,-93.40726679002573,-49.16716140011714,12.029642766237341,51.152700429823305,58.64580182794093,55.36675747030268,58.70145298663308,63.88221977317229,60.56175066051809,51.45823770828493,44.2823875950457,40.7060694256985,38.02320865240555,32.66716167174556,23.09039058966538,11.32064858294886,1.3624666514242318,-7.829609746239286,-21.18366643953562,-37.89533078780337,-51.70829004791565,-59.4650488749497,-67.6294467487583,-85.36815375569887,-104.99009312921898,-97.22822422102101,-47.48222142249352,14.298182705650655,50.38266730407076,58.70416559547122,59.39244982382051,63.65703116373421,68.02152124718639,65.43471429609986,54.029524350154894,41.169348956854876,35.952644024055054,36.90520173205678,33.83799739627088,21.454951558833663,6.569471433700466,-4.272369777843289,-13.626137925562093,-25.252335998091937,-38.122828184511604,-49.733204018344615,-59.896458199932255,-70.91262349356137,-87.31905648043886,-107.99604688454224,-113.19910358901956,-80.24931479561269,-19.800766202989806,30.000597767596417,48.23981639030443,49.105180579824626,53.304459715249166,63.848553215915906,70.40721174093733,65.81725579053469,54.04342139859786,44.741552021451994,42.277003363130305,40.76118429231115,33.57106879893004,21.68777090694135,9.345987128923172,-0.7510093876005232,-9.779564458516607,-20.86168974298492,-34.64814455399584,-47.97964533328181,-58.210262787821804,-69.41525494959421,-87.15978623793337,-100.3766243867165,-81.62351238017763,-27.892843150008563,24.372833331964028,46.350134859360125,47.326654479957035,49.06271907318065,56.605414264190436,61.859530908916206,58.038809248750546,46.7017411441777,37.76732938490292,35.885566896950664,35.18984672292185,30.54766572467446,21.988889855234095,10.576257421742566,-3.5175665019375844,-18.56277221457363,-31.637527044438347,-41.401907339331935,-50.28982457907815,-65.04268955670862,-87.21855163070208,-102.13708532990819,-87.75874536106514,-43.10957081811895,5.242509855273667,34.5075496567666,44.87974337273556,48.968161455405365,54.32845130302297,55.64018499091271,46.54209201214231,34.633779586735145,30.358005014823853,32.0652414961407,30.280379889764678,21.233535312387144,9.903899647643842,-0.11252499721316658,-11.347223150289118,-25.86258870396992,-38.79609099395324,73.0,118.0,82.0
67.2019379490566,56.58004490749133,43.77882033177361,39.32986340005444,39.4736799949605,34.3137042406701,23.955399355663094,15.060074731262553,8.477548234664294,-0.3899910413841449,-13.345717797719884,-28.887483764289467,-44.44454962761864,-57.1409105252365,-66.08850284415148,-74.77207658118631,-90.72175917602753,-109.95426409313816,-103.92272978023534,-54.68873597691958,7.631860956621464,43.35695389950512,52.59829939259231,58.005364249667515,68.12834927339911,74.67212222145474,70.93882830567733,60.61827098845168,51.5933071818978,46.56938123282131,42.35305097278412,37.157913810295625,31.845527535897887,23.907600730338928,11.774430113608078,-0.5977884763789222,-9.658427871424252,-18.52215756635481,-31.59796127530515,-46.32395559608336,-56.41082368997274,-63.48065664453201,-78.89167447878832,-103.07793208983429,-109.31941577602002,-71.59977266001303,-6.955717403693656,41.595545239864734,56.10517610025948,52.25458410157921,51.681992452554525,57.264004262684736,56.85631595057094,46.44592790507199,34.94274281646054,30.447427584316134,30.459515548498196,27.881468981086144,20.893205978429588,10.892601549019293,-1.3987161325093438,-15.65811031006319,-29.847911205568135,-40.86264588654037,-48.086480215408216,-55.73854712039364,-68.59553890229905,-87.3404151033327,-100.78829242582688,-84.45730783373084,-31.354748306404733,26.82568456618818,55.966461966733284,57.67144515796789,55.465522595771404,60.6156582838451,63.944687522456015,58.12924318772526,48.98011759666329,42.954635657668334,40.00565009321873,36.87732759250023,30.31880072462021,19.72829995489785,8.148676056254885,-1.1348691473133226,-11.135979113723536,-25.902814690978385,-42.46289455829895,-54.48346344737016,-61.2789556554455,-71.61986651235162,-91.87906135071815,-106.94644127055884,-86.62870649680887,-28.792556758037918,28.23077243831933,54.840541758140645,58.85665799109957,60.212494569790394,65.25028090035026,68.22336755757912,62.89326540453342,49.95994764578716,38.68943276805203,35.971962453091976,36.89345759504022,31.103227275204937,16.959491670268335,2.9919234150311698,-6.888569484724314,-16.71222124790257,-28.97424952736368,-41.668207879221114,-52.76409204646049,-62.81828985255726,-74.90779718372374,-93.32605363767513,-112.38695942620359,-107.95666279115565,-64.10433420045487,-2.686358262438213,38.41293761678016,49.15875098105564,49.448860937954784,56.04404065998072,66.65741125919227,70.25633907321577,62.744330501365454,50.71566477383465,43.42388876160051,42.146411528827386,39.36256232152297,30.434606112982106,17.99657782744167,6.166090052790772,-3.321804701708887,-12.670319271756789,-24.643323805776628,-38.74161786468423,-51.22525199522127,-60.99838642751149,-73.88338068448256,-92.57902747696781,-99.25881686703221,-68.57221380784948,-10.722217892334196,34.0912016340975,47.69662872132677,47.12357299841747,50.903809728984,58.765325325435306,61.82043578506207,55.18552513618868,43.421514685175595,36.64132377973669,35.89363378203752,34.32933725374685,28.405146711755098,18.97963494906587,6.746807684330919,-7.896114463122004,-22.652218241493948,-34.78506155707922,-43.81324339135769,-53.6480502896534,-70.99958315121161,-93.31729678680864,-101.6805737363957,-77.1237543284153,-28.13373252651886,16.074966329972497,38.95422035921475,46.15628901840526,50.38574262660974,55.5876210882605,54.01626993769574,42.79346345376492,32.41906873713243,30.622949678385943,32.28604505329889,28.2883224446505,17.919966559564834,6.889427816276379,-3.035530061562069,-15.304599446625845,-30.048108342562383,-41.650554662639685,-51.48937173815926,-69.41614345592147,-94.0762882612193,-100.8592960129677,-68.14750499280736,-12.467685276006986,30.153099340835634,46.29687107181853,49.24571190936878,54.51215861572233,63.45960555051284,66.25956581642579,59.27326714660184,50.85919175971752,47.456462961054925,45.72294240366331,40.397080050774704,29.733757782173658,15.23711360165657,-0.6431245338712761,-16.32814496809308,-30.095217802770726,-43.07014088974075,-56.60374896054234,-69.08689675826778,-82.71743277118969,-102.23030694306713,-117.96853188031935,-103.81020643116719,-52.28086258692697,5.851869846961097,38.56489656394599,47.261807792504804,53.01251535769966,66.59487527595971,79.13882287419867,77.58107853683465,65.14729389799051,54.683250392570486,50.45745698343557,49.485456558913135,46.25829966606502,35.57143401652597,20.210338378291016,5.643971205597289,-7.518348227339293,-19.72894208766689,-31.812577074388475,-45.45435595885661,-59.84883592950339,-72.5514611430749,-87.22800375478809,-108.09031133682123,-120.70343062478756,-96.98172769449987,-38.06325527009206,16.436398094250297,41.14457306778986,47.23690857294746,54.295453789662425,66.5374526126962,73.7171720323619,73.0,118.0,82.0
-33.46722793748459,-43.23320198971285,-49.99921327963364,-58.77834764261759,-73.57188428118553,-92.73487262343352,-100.14668370863734,-72.1200532435364,-13.102424941606893,38.909055899348,58.333162058556596,56.4761560091756,56.34406517889903,62.34979121593135,63.13192114304629,55.42522981645908,46.81555453137557,41.90040793232552,39.291444668622844,35.42579831506369,27.608491110903888,16.27403938632447,5.225102980596446,-3.6834506764976105,-14.898555358849011,-30.797105772563402,-46.61321714522577,-56.74463733355098,-63.395025129496865,-76.59598272154514,-98.10159299092099,-105.74003989326943,-72.56113766101578,-10.256389405314861,39.323682476714886,57.34356063396474,58.90302909947809,61.424367981612995,66.66673777588989,67.68733037644641,59.645930503836134,46.04612926242566,37.015978030371265,36.338047359226984,36.253407138099575,27.584207942498676,12.525799173219774,-0.1809820172315872,-9.519156765316268,-20.037434426775757,-32.7299689874934,-45.0594746619848,-55.69453631715302,-65.89070222556856,-79.48970704577268,-99.54792747071632,-114.77216850008396,-99.12215498320738,-46.36630625525935,12.505685384529553,44.06236444937967,49.24999206750992,50.465082302780985,59.178866731378186,68.82340708864118,69.09887908331456,59.27486723901329,47.84226723554652,42.68112954160657,41.861651383079504,37.39261208893646,27.001786499910473,14.370290163380679,3.2142446738972867,-5.878914036155316,-15.802360336953907,-28.630827801377603,-42.68301231941238,-54.185640978441974,-64.05416185782343,-78.99541306545424,-97.09029722322342,-94.73540203873355,-53.00742040560578,5.1708062409215145,40.928004205129724,47.87168787875621,47.436439541371094,53.13720662168732,60.49140107885643,60.90745518945381,51.84980081095745,40.63832609682374,36.07820458813664,35.79940913323611,33.07139896264122,25.977204087007745,15.740540728205717,2.699831564015338,-12.28857098887552,-26.50632377786248,-37.64550353396374,-46.25978065203739,-57.697290274783164,-77.49757306341378,-98.2710325385588,-98.26080682557551,-64.28485541065984,-13.670836791444414,24.962507912453347,42.04992852595933,47.24934851562407,51.984128985368876,56.24159234897084,51.46965261588199,39.143934384706895,31.022999619387672,31.205608674167927,31.963596477113526,25.715083002804615,14.58739503346614,4.010200662242156,-6.179088158223083,-19.526858520311023,-33.912893652045355,-44.27931852200542,-55.481306083827775,-76.54427971839802,-99.30235840003984,-95.55066348879565,-52.769737226966924,2.440592637988718,37.27145374965886,47.64797039157255,50.14695412550019,57.06952591645961,65.32516896472993,65.03156277479309,56.51704518959277,49.36265922491962,47.062935610843546,44.702605620467686,37.850418384969224,25.8145221413727,10.718489659108258,-5.280844921844555,-20.530326531265736,-33.800857826266174,-46.97263474918302,-60.36021298202599,-72.6339254188014,-87.74526700730121,-108.1891258427404,-118.02648523498182,-91.98011161086086,-34.308983355920674,18.54962468820174,42.68426150550162,48.37240191662443,56.197469074551584,71.05204419549722,80.38176363685356,74.51843245400849,61.499105210305515,52.899712507461814,50.0299896874913,49.09562295716907,43.9919470463885,31.30752782646688,15.809663820674741,1.73591829679463,-11.138802998343271,-23.1522830687995,-35.55411212313782,-49.670079653640094,-63.69948431650066,-76.24711428786338,-92.77034615716676,-113.84580666414999,-118.48576545435168,-82.21026876886198,-19.991751120555364,26.68225755647999,43.807904289581536,48.61920995971056,57.587684013263534,69.70458861496589,73.30270704921136,63.41507884920227,49.79210400687458,43.77203737892407,43.81868778123972,41.86548557724224,34.648339688602185,22.733114639747356,7.849202584110096,-7.346952646297214,-20.46427196096937,-29.850523396663995,-37.53896076440342,-45.67556635686746,-54.111517365319685,-68.03266844943508,-92.12413309057693,-106.5900247978631,-80.00610603738382,-18.398657241473703,34.631794282266135,52.837343937306464,49.597087447884846,49.790352525584105,59.19872219084147,64.11429173064364,56.328682268638,43.02647036929217,33.6709113423841,32.14365969059601,34.01556578010123,28.768221571316733,14.484825405014602,0.3018122707845877,-9.77905918857687,-21.602504990461746,-37.261245698756575,-50.41597924188584,-60.35754734705079,-75.30580225291203,-96.63787368272013,-106.42934409414427,-81.05106608903351,-25.729408633282105,24.642449275052794,46.368547010084704,47.4179093264305,48.60569918414901,57.436073887994624,64.25698807004737,59.91718086212356,49.22275261301584,42.9686522158745,42.316195583544626,39.866271032190554,30.473791425488763,16.02098518422553,1.2464877283891937,-13.63061120709555,-31.132607748494976,-48.85245799738765,-62.192538925503996,-73.32923938814454,73.0,118.0,82.0
52.241646191019434,62.412664724503855,70.13194226977275,67.03171268726759,55.67431512039604,45.568163653691904,42.35025368507676,41.21954505463498,34.886061220451005,23.38615218806757,10.887026903100027,0.464412007797484,-8.514816683666293,-19.20271581953731,-32.740982915101526,-46.37726766352023,-56.955706485523415,-67.58324757819554,-84.55235116025514,-99.8890665131806,-86.57740681017248,-35.94529343169241,18.921288397461456,45.15102394076756,47.51541145881185,48.40011197130055,55.52372552106886,61.59857038077094,59.12844240155348,48.313974254539765,38.51116852770167,35.897263965948824,35.45849706141163,31.426838560176346,23.30050026394275,12.261973726009451,-1.5249713309848414,-16.613458210471695,-30.085931539201834,-40.25932222885087,-48.92822160286931,-62.53963511126869,-84.19254002229775,-101.44207265318629,-91.75963784709664,-49.975183415408885,-0.3658369123987488,31.91438570744063,44.14848511368212,48.38713944435801,53.62222354366093,56.053011259197405,48.206298358504334,35.91234885059082,30.41083467641294,31.834930790038182,30.973366880321365,22.7133090477492,11.347863592162787,1.1937178126516996,-9.635658325316363,-23.870076818113017,-37.35561287613905,-46.93411267670099,-60.42082006810682,-83.98866152299156,-102.20673989766738,-86.6649998292148,-36.31752813597294,15.4145894913211,42.20424985932702,48.38556648915683,51.53124719396245,59.79452345815054,66.39073053940456,63.04086162356852,53.93132057112001,48.33623745940331,46.65215438294571,43.28118970519662,34.8509757226063,21.642065133097343,6.130796340149812,-9.86195179442684,-24.533936533280517,-37.51532006621669,-50.91428065248541,-63.973953055513874,-76.41260711275206,-93.36057776557922,-113.36403419776684,-114.85864912970987,-77.24882954850756,-16.84834857797665,28.580128883292094,45.20374991318479,49.783282631343724,60.10323281919445,75.02699588024026,80.20684362262845,70.83936362869564,58.31221476758965,51.61486382668714,49.78381008398441,48.346133685825315,41.018122765855566,26.82096451578135,11.567912648317257,-2.082487685454896,-14.67736762976881,-26.60431400151994,-39.46504491258923,-53.88556037086225,-67.35788727940368,-80.29904235835484,-98.8637532673005,-118.29157735891579,-112.53514974038511,-65.05027974241817,-3.4631305381243687,34.23069823647847,45.470065066514714,50.48098047921717,61.220800911859364,72.10944089585008,71.64544837564233,59.20144650929751,47.07119986386023,43.52868205452769,43.731585960205976,40.32360178806178,31.636251835995324,18.624225427416423,3.3823238814767347,-11.461799145903656,-23.547277261286077,-32.08943133003782,-39.84885532758455,-48.02436633462304,-57.14647178833113,-74.21522434776752,-98.87914088263159,-103.90874300004182,-64.17953202626725,-0.24699552712104134,43.4951655063439,52.88867059543461,48.52614365838827,51.98010809197617,61.76474462297654,63.06564990795154,52.55346478224542,39.629146461374226,32.42837718228937,32.784226179843,33.60733479933512,25.261969884539397,9.96181054031791,-2.877056902690233,-12.719297666950677,-25.936680450043102,-41.58902116124476,-53.32690588506943,-63.809723748125485,-81.21484742658448,-101.87971402553819,-103.2744952565894,-66.8704397921222,-9.048260398074522,34.0585257155872,47.84976679283957,47.01210400439034,50.583263525548354,60.20892096115744,64.22303825954704,56.95191104452634,46.6504782676733,42.47016169957803,42.1353740686374,37.91849674131738,26.58266520975053,11.657629294202838,-2.911020946939379,-18.38730510500878,-36.490130077241076,-53.22608782016481,-65.33842151436245,-77.16879154063413,-94.21379304061867,-108.44123966364127,-96.46268692577833,-49.05515854386273,7.528779126055667,42.170200637407554,52.21215763452385,56.03863804974251,64.38904934612495,70.7414995055413,67.91678363055873,60.214206197991246,54.87406632878677,51.73368867578917,46.94363668939224,38.62790106460231,26.8958236445605,12.608900093333975,-1.5252093736168513,-14.069665719540748,-28.233973008920774,-44.7945950656693,-59.24878361636165,-70.6138684043969,-86.88587516866038,-111.83072027311258,-126.24579809867467,-100.29104973636143,-38.424403180188634,17.78102213227284,43.45459756456092,50.15549052424866,57.96913410004667,70.20397331098332,78.20796183680532,76.2076362140973,66.35325271228234,56.50027177291105,49.89321478032229,43.14354866518097,34.90559957076813,25.989158183426664,14.849140904889023,-0.3918560292918274,-17.155700457616774,-31.849056133791215,-45.53301104933376,-59.870995748781105,-73.64125903523154,-88.28004337876371,-107.47509070560639,-122.12616752993644,-106.47994839275874,-53.23360487167746,5.097091643289314,37.95667473365862,48.96325718326995,56.83141882598793,67.57851585954226,72.89312286122406,67.71431226441285,58.6059536984201,73.0,118.0,82.0
-40.374752356460604,-49.918034833962324,-66.36457671933779,-91.11292112965782,-102.0798082192718,-74.59683478796605,-19.820888023688557,26.066202886069313,45.33308480058605,48.94628534278321,53.45686165823224,62.39150821994796,66.5223657018407,60.528389719487336,51.71917028728809,47.67675434552747,46.07735901525887,41.414157892210376,31.43439451152049,17.28851587450458,1.4991875911225059,-14.325466192666914,-28.36804295105206,-41.296989563856584,-54.828193542213384,-67.48070014375266,-80.60390203948812,-99.39667934304083,-117.01392513654183,-108.12692588646831,-60.4466487774109,-0.8359740242620306,35.972524434661246,46.72866618254568,51.81539172566944,64.49778002416919,78.1106423005286,78.68190216913615,66.92944983988114,55.69307697325316,50.74403318309826,49.5948540224504,47.06538350210505,37.41040264555022,22.282767743354807,7.4823061802452475,-5.821384248117415,-18.14595974121749,-30.14016401649852,-43.535087446829024,-58.005097658029044,-70.90862882050251,-84.893463948572,-105.21081516753665,-120.59075035136422,-102.73148681385591,-46.63643648382836,10.771828142236131,39.4150910674146,46.68969527526001,52.95121576433256,64.90955244162899,73.48347204831475,68.88267228514853,55.05009486730221,45.173156615648864,43.61007706455293,43.29135674958988,38.33023747611847,28.256415633964167,14.324113586198502,-1.0472558523361797,-15.34217341313829,-26.298787874868417,-34.2806927791112,-42.20991833048198,-50.38616748293928,-60.875398830579805,-81.26227837790186,-104.00466869337289,-97.1213467998432,-46.143845807870036,15.963480322008493,49.23588559677967,51.796084617805995,48.29009186964654,54.8007444890413,63.51925138992148,60.933943070385176,48.601559960280596,36.745458316800466,31.88252873680298,33.49442236250716,32.33378159127594,21.11573396188255,5.723432165921406,-5.748140210052088,-16.00634686048137,-30.52647551520435,-45.508256162213016,-56.08448217700606,-67.9235068040539,-87.54779832232877,-105.50309211854281,-96.68717002119548,-50.74698080309931,6.225357997883716,40.80935388799945,48.08740020103812,47.112043842691776,53.165987207562736,62.463910328864415,63.13411761726963,53.72936185113939,44.68445314908373,42.3280250761113,41.59500241318764,35.32349080140132,22.390241192029965,7.368489218556179,-7.13805874335465,-23.41688871834801,-41.726921447678784,-57.15288128578273,-68.44346419673842,-81.5388807571666,-99.48866800496856,-108.71079909135877,-85.83481172749063,-31.94429309233249,20.545126930715064,46.94212185558301,53.11960383075191,58.03126002018652,66.92077857705618,70.89086347481019,65.7884878875018,58.28378285915515,53.908954525050795,50.66225140900016,44.912011161817865,35.574844686568014,22.946711554532797,8.362646292397457,-5.234026801710391,-17.832807556078656,-32.91821213321955,-49.39819206915971,-62.63302683160669,-74.36547075453565,-93.53088129401314,-118.54182348180682,-123.70386176950176,-84.57482718313567,-19.74702691952794,28.368764571872465,46.294941086789834,51.76017395356862,61.36571413367626,73.33652231062479,78.72532124427565,73.8605629886232,63.183062248396574,54.356429071702415,48.10724502205891,40.87147026230328,32.40577853935717,23.13073754840649,10.849543652673725,-5.291706018958335,-21.661374479566632,-35.77324327887796,-49.63444525804694,-63.952927274959634,-77.57446512005582,-93.35766107288677,-113.15275053730406,-121.81642751842213,-94.1095558676451,-35.009534513544885,17.67385017584844,42.54216100174391,50.91112242829668,59.86727155931243,70.11119405832143,72.36888567110503,65.03692611489252,56.50353536322607,51.977684300435556,48.89147753064761,44.53320102370063,37.918321155299346,28.83215910584155,18.67891019082815,6.516156103772692,-8.087786799064046,-22.596235226877265,-35.99053252392043,-48.5409893593061,-59.752121288481035,-72.25283195214841,-92.0937289951627,-108.57196645162394,-91.15775311870294,-34.63979613451251,22.246160183512902,46.95614877559078,47.41040666766717,47.580178057149865,56.09400620052134,64.69086752298007,63.85497094859423,54.91642760924848,46.17614898008849,40.97212545909425,37.27480950887056,31.296004295429665,19.815867784240293,4.139471197405984,-10.987801941205872,-23.576762347247698,-35.944775930748506,-48.95166918973071,-60.914459044721646,-76.77522800285578,-101.59476762055122,-117.12555901674706,-94.09424879794938,-35.598163236491324,18.801635444512048,41.639427861797145,44.184035123105566,49.639037638323856,61.25826716373661,65.47473042872345,55.360381271451296,40.454367078694524,33.444350307810474,35.45318500529167,36.4695860695032,28.947633619602122,16.164757154727415,2.9764270475140058,-11.42062676960842,-28.211919703740307,-44.450432221954465,-56.25275725804756,-67.42725670614585,-86.9882675496549,-108.8320267871071,73.0,118.0,82.0
73.65159074863179,65.27186375680745,51.306130986740555,44.05813479467143,43.775544368855876,42.42096281647249,35.905232950602205,24.54407905900554,9.906099682835231,-5.3891908602734615,-18.925305051884596,-28.776679110095415,-36.49688835600143,-44.58532326327548,-52.872410246803646,-65.5326882434473,-88.72751074667194,-106.53548022415285,-86.26491869491367,-27.133911662774082,29.4565603069693,52.22871043592884,50.26910157564311,49.0798346298049,57.8448908837804,64.19940927512265,57.93144311755907,44.72706348749183,34.48353927425747,31.949430989585593,33.964558795768255,30.108038839273064,16.605282904518592,1.90719997502268,-8.495795855533661,-19.73335966188163,-35.16653241102708,-48.96596995154411,-58.937416415869436,-72.80099121521695,-93.87734765778981,-106.79406470654186,-86.70505388395021,-33.65270803731171,19.40257665651952,45.10689791456718,47.673495953654815,47.94869331388761,56.0766777501256,63.91552778297266,61.10765818336841,50.57425199156441,43.36918399700983,42.32883317753068,40.54841299218854,32.12566245975241,18.04238706323056,3.164640961505324,-11.528776381915137,-28.66706636524649,-46.69002858478169,-60.676158757281605,-71.71250654377617,-86.43630837038455,-104.13596434038827,-106.11563689127826,-72.36016913857902,-15.025907496636659,31.148233852958768,49.93279383139153,54.03898315525742,60.46685617992317,68.9950341939606,70.19399976840552,63.47451693488035,56.67717763243365,53.044428740218706,49.35950624645709,42.57421405844818,32.2425025984834,18.81731927125629,4.219401500818074,-8.822889648922176,-21.846545990540466,-37.750175470151994,-53.682031847395876,-65.8248571794294,-78.80540386784676,-100.85789597977173,-123.61709623533581,-117.11724683092098,-66.5198997031332,-2.716998726330468,36.20826712158033,48.119961781457825,53.859878880496446,65.00059811950464,75.87693787015417,78.33084563370647,70.99646560727594,60.22938340912132,52.46131055527755,46.20311068384262,38.493023312068665,29.86393697787571,20.012753756888003,6.4875384416728865,-10.200897829514433,-25.936556700106546,-39.69288621624335,-53.79463833675237,-67.93929869773105,-81.67929343798076,-98.89775352458238,-118.01363254188541,-118.23601530761775,-78.84141446361892,-17.47502891979203,27.67861568090656,45.720201036987675,53.04429745748143,63.08437018867295,71.91197372541305,70.96100590697255,62.291618616898525,54.80015983836469,51.11961779846848,47.80669208119362,42.90274446882651,35.48769819174774,25.985432076385138,15.463110340180103,2.457790152357212,-12.392766939495138,-26.5610082038232,-39.71500714477904,-51.926026647707324,-62.92903028714524,-77.16408727913647,-98.42335477410754,-108.20644371283268,-77.70721152099426,-16.138002958859186,33.06920893815181,48.45879493098112,46.68239368008188,49.34562247147949,59.111154471700026,65.60708892726959,61.750870312137465,52.06974230573655,44.344980539789205,39.894954679305734,35.96949708033526,28.59600751748504,15.524567972120392,-0.47809664993070944,-14.830836692044583,-27.050688632838565,-39.71920683683318,-52.50118726508166,-64.65143652502758,-83.2740952694021,-108.48566498841289,-115.22803914469529,-79.45742855533881,-17.556429187422502,28.806817337662867,43.2821843487979,44.819510319864015,52.83118987956262,63.86394466331376,63.85864078317521,50.87915839035751,37.2814582803137,33.418436061500785,36.36684691821766,35.209901104036355,25.487887658458586,12.338027367659992,-0.9440747387986257,-16.07816506447891,-33.17732996513057,-48.36406557276905,-59.10690740086193,-72.00824536119124,-94.02674634315238,-111.66974754276127,-94.58755481365128,-38.022146561965116,20.498451652921293,49.30630647988301,55.22220637234658,60.29263636407773,72.71208103794827,81.983753942258,77.2707130443629,63.85941538824244,53.324816724928105,49.354051903134774,48.25125140728235,44.32425134941688,34.239155391152956,17.777722348233624,-1.284342666912588,-18.096572113786376,-32.355765221295925,-47.0248021562356,-61.31590222950255,-72.90160380142143,-84.22365027083038,-101.11469564693103,-124.18874187137935,-130.3215005284975,-91.6870712245489,-23.324795234933024,30.335006163233867,51.23457531969329,56.75142621711574,64.99431109306191,74.54174503160021,76.81801110268931,70.34144643512766,60.66513287147326,53.283628562120064,48.81067453772494,44.31553909668943,39.37019200503235,32.884240735488085,20.429937729454643,2.7424171295108284,-13.778351751924733,-28.77833063648948,-44.51433885503315,-59.046654338578655,-71.52306601585623,-86.9092190193509,-108.85582186095682,-125.59413882210006,-109.560679606682,-51.85057157429492,14.328680741078553,52.360580678333996,60.02838664180878,59.42459240606287,65.48947644055825,73.43581310621354,71.09036096183073,58.08319982402521,46.44692407111325,73.0,118.0,82.0
-75.3368176158281,-91.72192490374144,-107.5085033370803,-100.27989365315203,-56.73690141128664,0.8036770785188204,39.246172593871414,51.67461112965671,55.29512073546195,63.14638250349447,70.37910582497959,68.76804433420146,61.19978456703622,55.382451031615204,52.16964729912131,47.77589189507924,39.93983337842871,28.641192699542305,14.57759776985155,0.24359074220319876,-12.394871069697995,-26.152919253311314,-42.59642208540972,-57.58073873853485,-69.04549199381638,-84.11963999475674,-108.4299031698845,-126.15699959955364,-106.4686738807651,-47.31821696151462,11.941471893177217,41.63146379982587,49.51650230554751,56.54576456498237,68.61574270635357,77.66688577024556,77.0616783342941,67.84114075881874,57.59665504145279,50.69696135578393,44.14494447651413,36.0473390235615,27.241916826370595,16.564045096442168,1.8285485464895384,-15.002899110313962,-30.015743978124704,-43.670503513411,-57.96266121243851,-71.84806889693108,-86.10037102926685,-104.75257081446634,-121.33111980400834,-111.03321448296103,-61.57218285639501,-1.5322279985792373,35.222494771116786,48.03979901052449,55.54386076432859,66.23068279774114,72.80848747122215,68.85412601164084,59.701479563859294,53.46262384681615,50.268431875028526,46.58777338531566,41.05351362110361,32.87100084590317,23.084833107852237,12.017260912262357,-1.7714482204936166,-16.617109237056077,-30.441151848364697,-43.37044233338168,-55.17338344101193,-66.35153592114467,-82.83884761064562,-103.9144146362843,-104.17223752901879,-61.38186513943953,1.1384132100630535,40.77359614977524,48.51440720350936,46.47724317405172,51.79273466235183,61.82884996749358,65.56615082494754,59.137336951184025,49.44540854484275,42.80822413899946,38.87026697908294,34.36777630455841,25.38033107340897,10.973685776959032,-4.923988240976138,-18.4697082944702,-30.589528688741552,-43.51899854136788,-55.91762399890941,-68.96323941310537,-90.53741829516561,-113.84603956908944,-109.4616792451488,-62.43759882954168,-1.0219507870540547,35.87705259323098,43.85886424723632,46.17915829004855,56.352230564300086,65.4474304787575,61.05067882577163,46.36514844477799,35.022461642360135,34.021886773343525,36.885699656175895,33.15422008538285,21.767388804792873,8.542726488944297,-5.036534902948211,-20.93024497761231,-37.98225171099468,-51.82882968059916,-62.12457723575239,-77.50129333989696,-100.85683707151159,-111.42216807806493,-81.20305310775873,-19.267078388249338,32.24596109067967,52.35975253571326,55.99550108691518,63.333755606384344,76.39789207331069,82.16116400010928,73.7041318980372,60.17833762672366,51.56407915509794,49.00979938516165,47.60955614913036,42.120424875187744,30.045245850759752,12.289684244278387,-6.5033594588586965,-22.348676261538433,-36.47253788413185,-51.354825131427255,-64.9225734340577,-75.99322998609989,-88.23641540748051,-107.63039891055553,-129.3040636740733,-124.14920748982314,-73.06386145788366,-4.663045722434994,39.40734085985786,53.29356610838556,58.568928169042245,68.03885065443728,76.19827547105918,75.67484053115056,67.57531725856664,58.151465129987066,51.81646414251181,47.60127258990502,42.89832503559064,37.82984536836307,30.054676504918056,15.572160664822738,-2.333051524534813,-18.11170960503791,-33.2663162799379,-48.969101243738145,-62.74456585808957,-75.36395367460484,-92.6932887761266,-115.3008943315609,-125.5000068095647,-96.3689079969395,-31.54654721782527,29.046699109381102,56.90243348948511,59.67819002324643,60.36609980706302,68.17156042349932,74.17981374816357,67.98726211041216,54.06324269173749,44.5030871359779,41.27159981149073,38.43346540394939,31.959358613157736,21.333334758412505,7.519724211181283,-6.9943527692020275,-19.86902486199138,-31.74512221051358,-44.35585090806282,-56.562772420862416,-69.3489359465059,-88.03988919623305,-106.57305386395116,-100.10281720639125,-52.8347760170687,11.454588012371326,52.88110785141883,61.722185559004416,58.74109663981237,61.31211706956055,66.5664646735284,62.0488680562653,46.19821019404887,34.30240920553407,35.766742155588105,38.93646479856572,30.278127638191155,14.416198180403153,2.2748421981221085,-7.073091320730904,-20.757287898584703,-38.435265522198556,-52.82978953411599,-63.965622879972614,-80.80163978144391,-102.87594494912642,-105.7601481945252,-67.15187378242524,-7.050209256784675,35.133441279582364,47.375609901306966,47.52368136117527,52.71149087278228,59.531543273454346,57.56307068680206,46.4939865164285,35.60539225010091,31.477993848830828,31.03575325643283,27.471220644712613,18.427126219265496,6.25667773178444,-6.851041141943451,-21.735716029978807,-37.998507932338896,-51.06866121994834,-59.69450939983766,-73.19200014935433,-97.56072935194406,-112.17807556671033,-85.06155812301424,-22.01059563546112,73.0,118.0,82.0
57.42383945722462,52.40351159488472,49.35004770680547,45.22008026216501,38.96357908948642,30.12590159531887,20.0993968408017,8.311318289471208,-6.089924526346212,-20.7347463113091,-34.253219758280686,-46.93548114394288,-58.315504731380095,-70.24292365664607,-89.1077135387705,-107.6749716452748,-96.16699206517292,-43.25834573427402,16.222078678191583,45.58541717336062,47.81319197162942,47.03803758770822,54.6878824515863,63.965373217007794,64.5899963667935,56.26313851643888,47.13042074740807,41.509416400603165,37.80628247047394,32.371444671295016,21.673115457739552,6.298751526390471,-9.133562649929422,-21.978686425352876,-34.230750629795075,-47.26427083450725,-59.30738745877709,-74.0934506084153,-98.144327120701,-116.79693743199334,-99.78679288231041,-44.13716068490892,13.186067501567718,40.326202639013005,44.05563884812993,48.3686610144012,59.805803386026575,65.77563157880655,57.30825810389963,42.183244067892765,33.72894718087233,34.97863262188664,36.77583505009859,30.404744682786287,17.937572544321927,4.745245316617195,-9.350872358926505,-25.904434439230297,-42.49742502508364,-54.91496435781389,-65.59813112161486,-83.84397260677348,-106.70650484286473,-107.47903704200017,-64.89720176678755,-1.5711087120697356,41.097464706857565,54.0187918364011,57.21768742748894,66.96742304367308,79.42659691210676,81.0133337545668,69.72569692756723,56.972188439773134,50.35072292233598,48.76133654390152,46.60581250674829,39.34698077216658,25.347916053726113,6.7173194236580835,-11.43314160481341,-26.444694183554507,-40.69780250655514,-55.56487722693663,-68.28466544005732,-79.16029583045221,-92.9007374452208,-114.55091661391423,-132.12974981076414,-113.74546084185022,-52.90163343432187,11.672015700912818,45.759152812731735,54.72273289798447,60.87990223010981,70.97430551171759,77.06313991632207,73.86387567078029,64.71375994335918,55.93699827757745,50.53993665080027,46.318285776689265,41.47538975663695,36.086009249960306,26.601359249712793,10.405916439435517,-7.160862004534184,-22.403742742903443,-37.83436471213606,-53.237160904997,-66.30011245828507,-79.62820239491231,-99.05068206886128,-120.81290925136489,-121.89178659363819,-79.89817987665553,-11.703879337499702,40.756183017693516,59.24585756887709,59.270535661778375,62.03484726367798,70.71502248692916,73.78426086140105,64.17645677015402,50.50021304879498,43.14202174148488,40.67073476190519,37.00587165408668,29.29261136102889,17.591698876340256,3.259897105942338,-10.92168171990208,-23.298255585770484,-35.30708352221024,-48.0056149771233,-59.96654952529376,-74.01791001358296,-94.25097688155157,-108.52519815621473,-90.38964669922692,-34.07765472396118,27.01751755766681,58.17403047654661,60.966003073082156,58.673282014083725,63.0936037212794,66.70856983323739,58.16696022233527,41.567242290112844,33.51835693607091,37.34207236149254,37.811496880473825,25.847485825003123,10.29513082727378,-0.37295111804264297,-10.379169451303383,-25.751829352604325,-43.18028006712044,-56.05196107451545,-67.87634878483618,-87.2814365180915,-107.16874096654998,-98.89732875925539,-50.110463873924466,8.251056516386917,41.31726612428102,47.58893237333533,48.276328125277686,55.05184546245137,60.13511110982518,54.985974501597894,42.87383829267167,33.68018710368462,31.29510169658777,30.54982584007743,25.372955252961294,15.083273310982847,2.556310426966112,-10.904072947602932,-26.439551635058283,-42.32641136349844,-53.79575909013666,-62.52145880126584,-79.42216364552883,-104.39796249528207,-109.43583943224169,-68.90845250145031,-3.2595262851456193,43.62466434160391,58.8852138689264,61.95301964850307,68.66600750504216,77.22337080271468,78.37424677121979,67.18720119528228,49.56670418615656,37.558146274346996,35.61316501843814,34.509866301870034,24.892201905090776,9.533208175111682,-4.631691417479416,-17.01536981712154,-30.40879088158703,-44.8629929872686,-59.12817016858173,-72.54868048582671,-86.83177951582839,-106.35517913940126,-122.46018484586754,-105.66567284741667,-45.665661208986975,20.612670416318313,53.52360650470563,57.61891627979352,60.343533630296,71.41604760530295,80.61043707209058,77.37077964018573,63.67289841655617,50.80486808821018,45.109615484632485,41.48206134267824,33.938178340310934,22.98971367945523,12.04279616499009,2.370150869088932,-8.857433042823605,-24.020016436623447,-40.826214889912094,-55.34828697819213,-68.10542413657814,-83.9696842760456,-102.93900839519591,-110.78089429746487,-85.43819787530704,-27.729288018422245,27.388022057073442,51.445394154460914,51.91526104000988,51.47413677532877,57.906411474288355,61.85643943027335,54.79163245415581,41.580062223467756,32.88529101294376,33.024126683598354,35.387363269206915,28.84427108062695,12.228441333275661,73.0,118.0,82.0
-110.6985371033663,-99.55925563140626,-46.70923255059406,14.12276180210106,47.25819712428239,54.90872502054075,59.14135583924089,70.9001822381171,81.45585013730849,78.67732293911119,65.67308518334889,54.336697532353355,49.58861648959293,48.45313421648825,45.15872529376426,35.98549935651358,20.239250759080583,1.2032485048650658,-16.05884634225209,-30.485236957534244,-45.01775633954727,-59.561515817983235,-71.46898754880948,-82.54420164822336,-98.34003101883157,-121.32388385552164,-131.76592524264888,-99.42086646285787,-32.48268807802265,25.147193521736067,49.898157279202906,56.05765300195809,63.6268277580283,73.54331013346562,77.08645220858827,71.5390215669995,61.905959713301115,54.048923001271845,49.35336348099474,44.96013785408207,40.04402873955006,34.00032915446309,22.511817770721752,5.14518932330688,-11.737450721290271,-26.744758366023273,-42.41856024774884,-57.269725953985315,-69.84568885700219,-84.4627710313604,-105.75283693758527,-124.62936813743363,-114.37112659419888,-61.04266122520299,6.625550556998443,49.378367414027764,60.01842461420989,59.23532098221244,64.3048301422489,72.75643370849508,72.19930281804771,60.016020741316105,47.5674538390778,42.21374480310455,39.94165673781399,35.220608067152824,26.289096168260876,13.61601328059596,-0.9792291212383406,-14.672325504660689,-26.6987211491257,-38.95661998850301,-51.55612040732534,-63.51604037165179,-79.32594749752894,-100.09487855879074,-107.62834060643713,-77.17030353309457,-14.915073873311316,39.788448606065735,60.94587347001297,59.88882357785078,59.30883742569519,64.83782003910682,65.71591659197311,53.502773322791576,37.7595245730735,33.87862597339836,38.58254259442889,35.498611290912564,21.128929596830066,6.690574535268645,-2.957422329806408,-14.209333209659132,-30.950733633747397,-47.45736607092091,-59.13876111921152,-72.52923161417955,-93.99101431008228,-109.0044501190012,-88.2876494753573,-32.25966139771048,21.178405635772936,45.098850126713174,47.420952958880655,49.69496632115723,57.24216682739856,59.7937903185076,51.77624736609336,39.54735486536577,32.39276057112254,31.251361408391226,29.651274252006843,22.82238191251852,11.566422887873712,-1.198029295825963,-15.154478727644843,-31.203537756561282,-46.240166097052644,-56.20806336980267,-66.09878839205653,-86.5567071347498,-109.58036026116598,-102.51499487364487,-50.473701563705276,13.662103595494067,50.730551352665,59.99314284088239,63.30671001702949,71.33935476285022,78.69501138316429,76.37258322964841,62.23211117377682,45.06291834024945,36.15296728467771,35.80151496973293,32.7105231342431,20.686163043289024,5.142358440379363,-8.253944078796742,-20.715972825965675,-34.53515970917308,-49.05104438951456,-63.08856108222726,-76.39675685109862,-91.84865623663248,-112.43657595016906,-122.29849515026658,-91.90868917830988,-24.83932616714996,34.26677427788344,56.43945790862796,57.59573821640384,62.915136357380455,74.89519067048468,81.13590858522115,74.06402551661122,59.36356122234391,48.477569457060845,44.21811776914864,39.798438808946486,30.97647664308565,19.697241284710273,9.173562349431366,-0.5328143644375514,-12.853428238720367,-28.897689913679727,-45.36420782716148,-59.0265367425056,-72.17510814364734,-89.44758965757055,-107.36447225125022,-107.57660412234843,-70.98894274930133,-9.701061708747627,37.86166175726591,52.9583501765376,51.10995359187594,52.83781170625746,59.87324944698332,60.992511764738836,51.11394256179484,38.22078439441676,32.108414441686094,34.001158098221445,34.76582154867629,24.727128928848128,6.942438038781087,-9.060289266713962,-21.792407254858993,-33.613420548513254,-45.177480467956265,-56.617452920395756,-70.39691937723775,-91.30694270235855,-110.00638744862627,-96.89156854947525,-41.82858871862131,19.060655235588598,48.38107871871713,51.8571321973741,56.04001224065628,67.58996472066656,74.63182128227557,69.53843524894326,56.982634139903006,47.71125136258145,44.659893194007886,42.19905459767425,36.10296164251972,25.49901371135949,11.304835640851543,-2.94837291777717,-15.193010584918955,-29.07783213708142,-46.604553821265,-61.005681679903134,-68.08634583956696,-80.60899036039922,-107.76202174237282,-125.52843098474716,-98.27732333149086,-31.45929489232688,28.939708987257045,53.80318949469317,55.3802884296176,57.716148292067416,67.31517500435821,73.97885773664343,68.18279713878496,52.98808187962424,41.18999509115219,38.40854520683322,36.121546695519356,27.13093841067927,14.379853033101446,3.2865279946108044,-7.439503748106188,-21.327571403857014,-37.181044687762615,-52.05441023124969,-64.31679968591892,-76.18528779210007,-93.56451455729761,-113.80261275211909,-112.30165443386967,-66.5685399062059,2.0861930923947707,47.99288670111209,58.555678039753104,73.0,118.0,82.0
45.31960503906419,41.54274470997685,38.977979913991334,33.0712638249609,22.966394514479255,9.468844129453785,-5.127694320478331,-18.25959577147607,-30.135063997479016,-42.65313278977558,-54.999055989497364,-67.39718648979894,-85.20105756828976,-104.90784281646643,-103.32631666103599,-61.02615863973507,3.5032766029820084,49.46502044265208,61.79387591766849,58.992586936926756,60.57166442660922,66.18103002571526,63.484341562504916,48.48993736000328,35.09688039109037,35.062791860977114,39.06098580045768,32.12332059187586,16.467320230060405,3.5773632009253387,-5.700111629256985,-18.57903412501337,-36.12294368449956,-51.23690508258923,-62.35818739649665,-78.01129200767217,-100.30952478709442,-107.62719092061278,-74.4198869142,-14.734669508766384,31.376992119728865,46.9808820207878,47.38789439425356,51.673707526020245,58.96721349153876,58.47976322154965,48.19316381362902,36.71125935914311,31.663728865543067,31.150659400472556,28.274132861179336,19.88699457798365,7.9468327382778945,-5.038387820269932,-19.61474315344202,-35.89823280236462,-49.66106956225337,-58.550980130292224,-70.6923780564157,-94.12057299242791,-112.13089238631912,-91.44544010569399,-30.99091653546503,28.008033923405165,55.358278125995035,60.71043106220302,65.17129654953317,73.97303661170474,79.31314334115636,73.29990591849112,57.003366320144174,41.328989144879586,35.56003530983411,35.713753879488316,30.07192336394445,16.190938839936123,0.9905957370223306,-11.795578043974889,-24.557502072261904,-38.718151052981995,-53.19515303638728,-66.96883362699243,-80.39665103265466,-97.43689842917499,-117.76676140856607,-118.52265382628599,-74.74812066233612,-4.814443988682783,44.47640269565909,57.55480479911704,58.109905748873736,66.14334209232332,77.85255830368675,80.45137927298786,70.07422800671554,55.44290157223376,46.78118002924204,43.28307040269403,37.70089581161177,27.80400926391532,16.48925612381412,6.404162655637575,-3.675006903057985,-17.192705473359442,-33.81456445083633,-49.62106736192662,-62.64088207774793,-76.64291804901978,-95.09143186078995,-110.34487105564537,-101.06192721247595,-54.25744771864596,7.014533780153947,45.36003377042991,53.03574301876644,50.75433801682908,54.737818289733994,61.295815252649874,59.10426522261113,47.18002615254286,35.48771130316182,32.07671083077072,34.89493288262238,33.13875284626501,19.909298237860636,1.8850273753401396,-12.951751371960158,-25.243726984043462,-36.97951132559335,-48.47006862496605,-60.12254341308375,-75.64548185873683,-98.03578151737074,-110.78513777838472,-84.43466711793312,-22.598029174575156,31.39517563635287,50.81897576574529,52.134354182068975,59.01626431175537,70.64344026404194,74.42815673674228,66.2012222730408,53.59048924059679,46.37484445700618,44.15599517775458,40.89236200862815,33.49732323133454,21.661001983827774,7.003041122490212,-6.623455958540771,-18.808160316033227,-33.91243915938634,-51.51348099274649,-63.55739416676505,-70.3112548533709,-87.31503358628467,-115.688604658798,-123.16158802958998,-81.34557989239474,-11.25557598920823,39.88754482628868,55.45291835737527,55.250103657862375,60.012330763551724,70.12606306513749,73.73056140199043,64.2641242782498,48.6830452694795,39.65029544131395,38.198509190294786,34.25276302031431,23.530190018442823,10.908476977973478,0.366068003088212,-11.093714287895295,-25.842743964719208,-41.690893759463776,-55.86922237692163,-67.54648911177962,-80.42571083119677,-99.78450822323757,-117.08331519348343,-103.68637327094483,-46.989427068666856,19.220790186629728,53.960029772549504,58.378371274553245,61.22638286090793,75.25806585176551,86.65408852662762,80.82167864235016,63.65693306573713,50.42881483752032,44.92594827651734,41.476305338979614,35.855231692613984,25.66474620731492,10.45289301130202,-5.224647851777685,-17.90358758080855,-30.84841752576852,-46.21439662790458,-59.56951739323471,-69.57261729934729,-85.67947419524401,-109.99683819585618,-117.22053165036252,-78.06972723236453,-8.643870204573817,42.65680127000366,56.79809972580463,54.76864653087475,58.461361738697626,66.51518004287591,65.11956058635215,51.62782223940877,38.6642652285118,34.018998202781155,31.040585147709926,23.111833163306567,12.221808020326145,1.6291653312466186,-9.773782998967235,-23.804373645561572,-38.80597420863775,-51.900328092564095,-64.26568993739203,-81.89552620806029,-102.50111751337914,-101.54994168131157,-57.39076802837136,6.752471595851126,47.47977638041579,55.90059935957333,54.505492103892934,59.45363190196804,66.72442640970017,64.79333546029402,51.35484728210573,36.610641788693215,30.06943437156794,28.929496319517103,25.59561595591165,17.08707083998966,3.653170348189986,-14.040195972248556,-34.23234113735336,-53.84631174674364,-68.25426033584925,73.0,118.0,82.0
-11.73462465103753,39.392353103211505,58.0879143284002,61.486951484153316,67.48713524065248,76.31277451454997,78.92192319863089,69.29156351531522,51.83677937634405,38.522573536448405,35.52807604075169,35.059919275779976,26.67306541877827,11.617837119276185,-2.9084409274645338,-15.350271466700578,-28.53563669699161,-42.92423726653466,-57.27397627534269,-70.7918946319299,-84.70067749785761,-103.48924400090701,-121.51421239963305,-110.68163289145589,-55.1675856747899,13.223595374518311,51.35603117671138,57.68255582642127,59.4350276322191,69.73482034185452,79.97778324741134,78.59045676845699,65.71516171316387,52.111436588849074,45.564740008093565,42.12619290553072,35.20680703819124,24.517631335946366,13.411970170332966,3.657126472748395,-7.138868047004532,-21.815890124953867,-38.652738246099574,-53.59662618896991,-66.33462582154289,-81.55854594320185,-100.58005090676122,-111.2406810919625,-91.12485707158154,-36.20060422409642,21.571803187236917,50.08562445752748,52.33340898861687,51.07649001836944,56.90592026170124,61.9033798868475,56.31891143786163,43.28567773119437,33.517620595850886,32.63229564075929,35.38303806079454,30.43796127981157,14.687652086968615,-2.8281991188595335,-16.633773560354037,-28.661081201290482,-40.32638544308645,-51.7521220775253,-63.93120701998316,-81.61529406454919,-104.0968618724839,-108.04608922713851,-68.68328722800267,-4.1686576481094,40.49921914240567,51.707858160767344,53.08652952118535,62.4629817261354,72.97086020935309,73.13712030172391,62.476546664782276,50.73734652425144,45.49244647408392,43.53543615488033,39.223168837199175,30.513592704541608,17.562261243874836,2.8145286563882737,-10.133699065145398,-22.70430196666675,-39.025709739292274,-55.901568953055985,-65.52325447299833,-73.4928806229664,-95.24573184361911,-121.8621135110565,-116.2834532406078,-61.849393016213455,7.107725914222256,47.59292427832503,55.801360548305844,55.692665710844864,62.841014575816004,72.34896731388159,72.2917881163886,59.78540460988878,45.018160360344474,38.83613457798387,37.72278662553759,31.748074314651504,19.779713717661288,7.673710838334271,-2.6425013675306688,-15.05991642629216,-30.448970399440658,-46.051315077104206,-59.4426084071258,-70.852685202457,-85.29494682218937,-106.01379525429945,-117.70089368096552,-91.07528321764556,-26.559984982022822,33.38295861159844,57.19408462240772,58.210561972702045,64.37982722707729,79.73970773401037,86.899008826463,76.29959838854556,58.95796550177587,48.24139365457944,43.97409970530171,40.18658487232091,33.47764058038317,21.670347504841395,5.704628033710885,-9.159058401053356,-21.39679554271294,-35.13768668803459,-50.53850440162862,-62.53636651087497,-73.11478902483293,-92.42423935259089,-115.53914658384471,-111.08425001489499,-59.04554617782215,9.846995248669959,50.11697455141593,56.56384099548272,54.84785660990597,60.92856020729312,67.57556076760707,62.07042834777473,47.1929630967265,36.559208660432844,33.435175932904386,29.307516278223044,20.057970128257796,9.10341463408643,-1.4609927554061148,-13.55761701566515,-28.188842433960815,-42.85385179556096,-55.32323517468431,-68.58330664453628,-88.20035237542564,-105.92239000670577,-93.18641108255105,-38.79622789168028,22.231443917972705,52.494607644074904,55.40824463668008,55.12616780084212,61.85297920936548,67.48904423694356,61.815334415434876,46.63506818290313,33.763048681142344,29.55562579122866,28.432430839778412,23.67510895892827,13.692676163201945,-1.0751367594306536,-19.72251536681636,-40.15256220748069,-58.6937671140538,-71.43052404808793,-84.13445979079836,-103.28359134439062,-109.34374438869446,-73.76469396946725,-8.932555229352145,41.6720952005624,59.17354871949822,60.44522553200581,65.85048581214562,75.3052403268727,75.03309515433386,61.27865942587229,45.79290145900215,37.91831289266349,36.062944178370316,34.07256813369401,27.357038562380453,15.374441407342198,0.7099644219756236,-13.338730514570305,-26.51490287216365,-41.607631908861435,-58.14872043667651,-72.86487127913325,-89.34807566790982,-113.54689654482725,-129.7243469990215,-104.75682164466953,-38.818841009553196,22.647203829380324,49.88708902856525,56.43718257854711,64.32011936758157,76.06605823936074,80.9609250316266,72.12215009818709,56.12618191354803,43.938546148041695,37.86059991122379,35.03344985460965,31.80220115777342,23.44464231631175,9.074825815661606,-7.583548019702082,-23.04029632649377,-36.56491207845369,-49.8159328039655,-61.97171260269247,-75.20638844390339,-96.80101387866343,-118.64550326818761,-110.91292300657682,-59.52481017241066,6.542502084471545,47.332334466917494,56.80802496126269,56.64773147396724,63.45986152863334,74.8223386257993,78.01884415347213,67.84333210610174,53.59380830466885,73.0,118.0,82.0
9.361710028246863,-7.172030355071608,-20.18378637019897,-32.055217424148886,-43.652039144464894,-55.062054245929986,-68.21554324830518,-88.17295369990259,-108.65714303581078,-101.34539838981951,-50.609694035403415,12.337674463894917,46.521276744822764,51.8443038467181,54.90900652648809,66.0183375875862,74.35235151683433,70.86553087166423,58.67643540783772,48.519358567923696,44.891640522529144,42.68818375277218,37.17570329906187,27.162064492926447,13.296414850448082,-1.1815080181637265,-13.584444170010832,-26.973979133454872,-44.23551412070865,-59.57666234324414,-67.24695885793054,-78.01550556076644,-103.81973898387731,-125.20471162115457,-104.91330989829314,-41.083562571330276,22.774748789197734,52.40623688670369,55.538497108505595,56.89558000900236,65.91138465585081,73.70489140619748,69.71375755226323,55.107677193180685,42.19013204763806,38.49288367304847,36.7647281314372,28.689719617486226,16.05193994538496,4.641284590770819,-5.860917014259901,-19.298936676678803,-35.0676372057236,-50.21296222188183,-62.81164524062685,-74.41029614102287,-90.82141048007887,-111.63191056317594,-114.89844751256723,-74.9528881605477,-6.607480278738996,44.16966900517089,58.42871469990957,58.67082586091796,68.46331314999412,83.46856997897308,85.49542963150863,71.20354002055632,54.92800101842359,46.62543295485851,43.03357971813381,38.65159859758908,30.656089775518133,17.28738838984681,1.0784480846813658,-12.821256312054066,-25.05271020132243,-39.61382364055261,-54.524852078646184,-65.301883090112,-77.48965610358543,-99.71225445576793,-118.7187644345963,-100.55984026416495,-38.50001496399704,25.61249280107222,54.52971217402801,55.743607914725665,55.75472579646188,63.482318309532275,67.49400852709621,58.15090288203017,43.20199066796462,35.1772265238942,32.72061386260056,27.086415628441777,16.879799376727007,6.050411662213831,-4.687528000593267,-17.583240786915574,-32.574192356724566,-46.68046157053028,-58.77954710725125,-73.52130959520683,-94.53136847384901,-106.69041971649811,-80.95673105583889,-19.63898719021796,34.80617831185985,55.08703210629601,54.77337792863451,56.46544828513467,64.17162598271699,67.21766460891206,57.96498914943953,42.151128379241925,31.737822515901986,29.29677460421659,27.58965878183358,21.309338353704995,9.898032661049475,-6.136842849679226,-25.55974150678792,-45.93495555262324,-62.973200699833,-74.57058196884599,-89.2471557952541,-107.94077735272556,-103.8490948954612,-56.205158214346895,8.816375922972385,49.8470299506902,60.06130770105216,61.132076973506756,68.7178113665101,76.75823692987424,72.1026696697231,56.360406060977525,42.63053463416301,37.0190044178304,35.76937537147704,32.72048255752454,24.362934315427083,11.255255153468593,-3.517277986414915,-17.12190403178403,-30.589392357894692,-46.400079217765196,-62.63565039117473,-77.04076754070093,-95.6461821333424,-120.50945310221934,-127.83653950687307,-88.37986701743922,-18.412426724720763,34.07980247329971,52.70480448896544,58.04884675887033,67.6891570701812,78.70038400324874,79.78296390269257,67.67308398354702,51.91812020058949,41.66225528586142,36.8460957807916,34.34741660815179,30.08307126682828,19.781223321868755,4.317036056640879,-12.284382551357789,-27.06987281903246,-40.40011141874442,-53.50007076961539,-65.36000771153408,-80.42213576578985,-104.18320646191692,-120.79819673186938,-100.04235635201722,-39.874648835094185,22.01103079711977,52.55374173179195,56.693878599314345,57.65410843203395,66.79105757634888,77.10233129698543,76.25972216038471,63.54843152516093,50.40766009647282,44.274370502111246,41.92719114584194,35.50376227264094,21.943935261473918,7.1917074497683195,-3.092426888798102,-11.76461144364093,-25.30746393863078,-44.83431412081064,-63.366885908999116,-74.63915900011098,-84.28923682755573,-102.03136733773312,-119.8446318055681,-109.53071978236683,-57.24374222775908,8.878946685956974,51.046205993441546,62.67396146567738,62.67303803070445,66.83893483676877,71.44441880803988,67.27181560520347,56.93152490898529,49.47419416569264,47.95094448213908,47.2458676878353,41.33888979197013,28.376694246211315,11.816027089935115,-3.192664527457967,-15.204014130867696,-26.24237011769969,-39.08732374929447,-53.0898232802006,-66.87293679922833,-85.23613108063314,-106.93380420305802,-107.10092823213999,-64.18868101655843,-1.5593481144317978,40.64045391841916,52.66190424997647,52.48786062490022,56.760670763937796,62.77089021451052,58.43916892621436,45.88283102600643,38.97694765458409,39.184902501873275,36.060138981971974,26.696198301212824,14.953351393831724,1.7700397914513615,-13.693821437028582,-30.21149830451463,-44.31837296028245,-55.705909428034595,-69.11203014708275,-88.49481817135167,-109.07109274721176,-105.69050615202474,73.0,118.0,82.0
58.50335347628692,60.15187373623204,73.08438728445284,85.99070144636481,82.58859197845914,65.98788370450839,51.67115022288499,45.4047524176156,42.002932345143066,36.81758112443106,27.352222245478576,12.6411223208105,-3.3053427644104745,-16.313274933622544,-28.956291825243074,-44.14857349616788,-58.07920278406549,-68.1453589420797,-82.8620609587869,-106.92409286437918,-118.59794428173633,-85.96712308997753,-17.834686921529027,38.079704867670536,56.50453494247867,54.97227799145536,57.45819514018325,65.70960248016475,66.1540836540201,53.72572693292168,39.90943994983209,34.31427147688053,31.673051612928163,24.44295995421522,13.682414728647343,3.028248842589382,-8.114164410636699,-21.80813774879476,-36.873714498014905,-50.29268529961365,-62.44896559718848,-79.11767810003646,-100.26960169928803,-104.05627680774529,-65.41886652260496,-1.1940037230706295,44.20327493956562,55.916579645710286,54.457314302024216,58.41169231276081,66.0738399565439,65.8173874889989,53.51665327762234,38.195745678101076,30.45484603734454,29.073824432789237,26.32816015248037,18.515179899962785,5.7114648028106245,-11.488877806615212,-31.488384019950963,-51.44145249769022,-66.69464739778518,-78.00633316654904,-94.93718973254003,-110.67388897114449,-94.32796814106013,-37.0819453378608,24.275024075381765,55.24347743906039,60.2465110616459,62.531039553057965,71.67614450035019,77.0294287435599,68.15505731076358,51.67735224108339,40.21710768987303,36.49428351142175,35.30643262537538,30.896359087837332,20.955944147564168,6.995750767382996,-7.615165701179216,-20.879469138469283,-34.89861302998785,-51.23913995123516,-66.89285259040122,-81.57613044529178,-102.67592500545388,-126.09041785211296,-121.67489865617758,-69.1910937465256,0.25421035150325655,42.406846081093946,54.46330963564588,60.18001266527098,71.22583375485335,80.4455513553735,77.40076444137517,62.927575793307454,48.24806761741825,39.84866219588485,36.03079773846731,33.524898307834235,27.813759115811234,15.667662554585231,-0.527995138736336,-16.807810562409966,-30.967572000674373,-44.249304011953846,-57.03228587377106,-68.98113893661484,-86.53337090303668,-111.10448055292274,-119.61780886317665,-85.56307604379477,-20.126056658265,34.55914212991494,55.4516302789073,56.414810732724035,59.477280515901406,70.25870166358423,78.36149822953597,73.41102366762775,59.25802405245469,47.886089275801666,43.5396478080739,40.80249839143158,32.19185835828657,17.429612674063865,3.7232175716102582,-5.459165916711091,-14.965706389267561,-30.51745724063424,-50.70926877891359,-67.3826488793415,-77.05378180243638,-88.44368907654919,-108.19847610229634,-121.05847879331137,-98.2444350967919,-37.57213802514489,24.533613530057877,56.95726987851524,62.864322205148575,63.253921750986805,68.65308773197752,71.28405529000572,64.5166139271481,54.15492988485824,48.547250489106354,47.97692788545283,46.255626084624346,38.25877523542355,23.707209193711556,7.165144717007049,-6.926400116834252,-18.352500684021695,-29.702951628540216,-43.14654606913314,-57.00244640373248,-71.42258869844892,-91.80640432658826,-110.7078971116058,-99.03012338741416,-46.10461921304838,13.912867934431086,46.7129667526018,52.85404106393219,52.98941144099845,58.89446968457088,62.899473557182205,55.05362449849134,42.852006384562074,38.72768296853699,39.00070977501458,33.83408734882832,23.424233111787963,11.33726786783674,-2.4571889601015418,-18.49543711239505,-34.66872354046312,-47.73132607811509,-59.139288827152704,-74.01876015003147,-95.03673852832924,-111.99560589887275,-96.45825332767863,-40.15989336565094,20.93634585534021,51.964287482200184,56.581729955197495,57.762007140330425,65.97894258493804,73.24688413707952,68.36991037640212,54.079309860056036,42.67734316686389,38.667945032353614,36.965618932269216,29.76636438510897,14.728783930411526,-2.162624824852223,-17.78171784818667,-32.88659609465261,-46.032451564937055,-57.70398191529265,-71.86914628063168,-93.21672943149201,-117.65637785022267,-121.75862328214274,-82.47862834742013,-15.792259385973704,35.20290644701675,54.152275703852226,60.492667131507176,72.78489916078803,87.2862952788919,89.37868793216961,74.98081777085895,58.30291755238648,51.601791528873626,50.74819680886105,46.544073282584286,35.981137540477825,21.254814872229943,4.703416830331318,-11.705845229502248,-25.75825230905498,-39.45103204394061,-56.46281656172118,-73.88255147477518,-87.59279397468988,-103.264214798802,-124.34795124762766,-130.09474118158138,-93.02672559369869,-24.13856637215815,32.561476799874484,54.98263352656142,58.347931745917,65.3795377209815,78.79235877517526,84.03670291596805,73.2056067430158,57.37438579050611,49.846088853319,48.49377290678495,42.94655727921962,30.46592513205219,73.0,118.0,82.0
-69.98992203645251,-82.03002909895376,-100.75074152395412,-110.56493439176542,-81.01204938849386,-17.65276062336142,36.88624006584036,58.34612725841419,60.31774618539413,64.66081745761576,74.31237390423236,75.97101978795466,63.53132134378149,47.49859147169725,38.502082207187506,36.18113471132868,34.5488866408328,28.584519558719556,17.201292428867813,2.6879261562333907,-11.56376235605033,-24.70403984050872,-39.44394977063235,-56.00565178448658,-70.98880480432575,-86.71986529326767,-110.12219591101787,-129.30544237204037,-111.07090031869808,-48.48548149125033,16.290080152961195,48.03590360352025,55.808579139619596,62.893329590324896,74.63020142598246,81.08051121822955,73.97966045208761,58.21221294976953,45.165756072298606,38.4150430290511,35.33705791726136,32.43340232662288,24.95623744842397,11.212865103908769,-5.372766182012694,-21.121714744897556,-34.80180008797559,-48.075988872433626,-60.42880110365648,-73.0842391017368,-93.43647345258161,-116.73280526105772,-114.59058080298716,-68.21441626377354,-1.437979916726939,43.99949979931891,56.647231566479626,56.4390521415402,62.06028481964526,73.50270244040911,78.41791134500274,69.73057077772864,55.26846855116009,46.01832865797931,42.95595761031774,39.132656597587385,28.304433127503533,13.03611269092842,0.698011961345856,-7.84839474037296,-18.72342827787136,-36.17041904535547,-56.25913695062367,-70.71080178939384,-79.61826628126617,-93.46244231386513,-113.91643031574361,-119.09763091405955,-83.48081338949994,-17.840397266748525,37.44343254294289,60.53517785945849,62.6781607752273,64.40301546532761,70.21649771690424,70.23577503272024,61.446723384075725,51.84034789296353,48.087123461999866,47.89404214321956,44.70934059619721,34.59491881738002,18.872353485289164,2.753810103968094,-10.421215039886565,-21.492862956388592,-33.37540622750625,-47.22920979393266,-60.90113663129021,-76.55471670979873,-98.45172409959667,-111.80645426699516,-87.13258693219733,-27.453725900237256,26.838311912821744,50.422400301240124,52.62018005974952,54.12408060877317,60.89119848997646,61.88783892332773,51.26194523606093,40.638674260633884,38.89046598685333,38.26611000427674,31.154648380152903,20.046511837134098,7.580005089286768,-6.891914303613462,-23.322995737284245,-38.827449408931756,-50.97683105582235,-62.880256919891615,-79.50650592421117,-101.41848589130394,-112.06810672745601,-83.45123902874069,-20.88233377800016,33.5673755048616,55.02755389205004,56.40341879404745,59.5007192427103,68.79211239592588,73.30934132052005,64.67529433499342,50.04573059567588,40.868449103922124,38.28482220604284,35.744227046380196,26.052297608180776,9.74976617112683,-6.759579776976312,-22.22870245919003,-36.94865599217201,-49.42670972087599,-61.31324298433759,-77.17269865918512,-100.63450302745562,-122.31886785007494,-115.12086924003741,-64.15422074156719,2.1389379136068367,43.54200414354951,56.09755183760157,63.19046975527375,77.36825372878512,89.7223842723813,86.54349570312937,69.57613984269237,55.247215316078176,51.21144275051997,50.15959787706095,44.09839616972871,32.02094222354264,16.59204498522686,-0.17309122985939807,-16.03506100450088,-29.53124491600283,-44.00156981153256,-61.7413014927113,-78.18340180454418,-91.47917633477886,-109.18678452249094,-129.079324709123,-124.31297342746785,-74.62115254460556,-4.712083353761184,42.42171400075009,56.72485648120145,59.39459243564778,69.09246383170593,81.8371025192802,82.38537772179593,68.36253019473997,54.118607949231084,49.279157722430185,47.68028767840989,39.87215055877239,26.328215377786222,12.65614838960534,0.30924286803004025,-12.835395884445738,-27.802288452979898,-43.60263111646764,-59.19976919302936,-72.8897925750435,-85.82625353238109,-103.5004242080855,-118.44666725071347,-101.3363476346551,-42.61221077203467,21.0697612796457,54.37023810670305,61.60303127074164,65.16216796288626,74.48147823843019,80.56907327672256,73.17831384307802,57.72045603159789,45.925479693168356,40.962060760245464,38.88657244969076,33.487731809551136,21.910571781567036,6.9676232846184085,-8.73813938835391,-23.77732894488678,-36.25816957590133,-45.795477278679115,-55.14774616606596,-72.22731285025984,-99.98199038142239,-120.40888834184673,-102.19842565713704,-40.69426351816752,24.19219543867575,55.67235284697159,59.72713346502978,59.44984120527816,62.636350765562284,64.90974827453205,59.608438664637134,46.714449029256436,35.71623095913823,32.0986187203763,29.81543297283148,21.575766607204535,8.260926668608015,-5.872133579520837,-19.2343037633768,-31.573375170501247,-42.11659179651088,-53.110538485087304,-69.63641449565755,-93.02768194168218,-111.63421424875789,-100.04714416301475,-48.702956257953375,12.442242525936306,48.6181314718909,56.9691693688493,73.0,118.0,82.0
51.796571297375664,44.71925223002925,42.307898998279995,36.80775288236927,24.00643985024096,8.942958978015286,-1.9575290036190138,-10.44756560815566,-23.090410697033604,-42.083036259304556,-61.27542751576046,-73.48439473680635,-82.65525037235427,-99.21613005682524,-118.41398440201412,-113.44641751051259,-65.97086894978206,0.8613050178004764,47.41974718001147,62.304843719734876,62.5870635368196,66.0085725616801,71.2286118699513,68.36724311687033,58.32184280977828,50.08642486325871,47.95128563428828,47.53972328792776,42.54868716130864,30.432000120572024,14.021139150135355,-1.381144777179889,-13.726589665016997,-24.710888167985104,-37.248096602334684,-51.2602481464901,-64.92453129743431,-82.35288496805104,-104.53742323232007,-109.47434123862423,-72.00124067856613,-9.399341413564605,36.93996361164909,52.27371132727025,52.44534497627267,55.83302192164729,62.36491987002257,59.753703496127436,47.49611312439244,39.31181773090177,39.13425334769771,36.89970144784826,28.154425609807983,16.58205940352774,3.6486549222576206,-11.512708041227937,-28.07525455135361,-42.657959450974026,-54.19255297612498,-67.03362527179493,-85.55375900907822,-106.99251076559379,-108.60228768947319,-67.30253031013389,-2.4410036876173473,43.1538133519881,56.364737221222654,56.51019192615722,61.866328051462915,71.18949625069067,72.1445899660691,60.45097335543729,46.55600962850546,39.65602830134121,37.91579780035778,33.86644933422935,21.732928436335307,4.810552258677489,-11.263544180565887,-26.636626950953328,-40.793029261667186,-52.75458394553341,-65.2493142288504,-83.19543857279125,-108.05589536036169,-124.50518649876494,-104.47386089453933,-44.45907932891996,17.69349317695668,49.26991323870829,57.69242065817974,66.63942547818615,81.83400696847745,90.74386920409556,82.43386123948112,64.4714591245688,53.167885752346834,51.06414471785536,49.09687181791734,41.12705344058996,27.792538632850285,11.813433552049572,-4.976111115145785,-20.122217658087624,-33.39089013901058,-48.88777332311913,-66.8946066935428,-82.12922573714637,-95.79615585442524,-115.50202155642974,-131.7256590325887,-114.41680921113476,-54.38173638102834,12.534758658917799,49.31646099401955,57.527392842115745,61.204390352733725,73.14423974784908,83.7615344266185,79.38031042577911,63.54645030739657,51.773215711496675,49.004374114923195,46.26294445754856,36.283440772090714,22.218390999502418,9.020258182403579,-3.309262512833018,-16.997852416611003,-32.33131891778032,-48.18731205732544,-63.421358383016134,-76.47249206689261,-90.30850774712842,-109.13702391253567,-118.11966146735682,-87.70641588501222,-22.561834813769362,34.37521942080181,58.1315571117813,62.20518299538809,67.37922356666212,77.2280541400355,79.89873877324388,68.95948555909554,53.5925614506671,43.884319890330566,40.33083606857696,37.917918235210365,30.723531864582885,17.770903276465685,2.4561486731108992,-13.24104546018175,-27.703033300132162,-39.28029297433747,-48.251599515945294,-58.897133176838516,-79.46984836563304,-108.02237884244435,-120.23035576667755,-87.75771850598002,-20.023184360479828,37.26186727708694,58.54553222942278,59.378528516465416,60.09244522813157,63.69573033657866,64.37899121307788,56.3459717564814,42.8868547511248,33.99223742848097,31.740398577298368,28.161770517943975,18.05026394637866,4.12162460114653,-9.806222453870896,-22.951008341159813,-34.79137077058181,-45.03589122080198,-57.11389155984177,-75.87579857575281,-99.87136280173183,-112.50354227307871,-88.63093470219098,-30.121017102878074,26.280428764023153,53.183095377190206,56.99630734137109,59.32410283472223,69.06080293951264,73.24897159876684,61.001823199826774,42.88654689212733,32.58238851707226,30.75356092713011,30.551576484748743,24.800775335172425,10.958826185352931,-6.9972410489964485,-23.69201298076626,-38.397463124572106,-51.55231242492682,-64.65772364885066,-83.75862734573184,-108.28289099394487,-115.82485310814397,-81.17254245967924,-17.815085248486845,32.69836640763444,52.78109023226905,58.27234005318287,67.5387525134264,80.10263300931594,83.02434792584725,72.01195994521824,57.652896290941875,50.124882095309395,48.352084127597266,45.52479411762132,36.83030024517983,20.824418576257973,1.3887840828218974,-15.688487773814305,-30.51172900665408,-47.15982218560751,-65.29997428905939,-81.0973237729357,-96.3599757259114,-116.87881176292446,-134.25605117066522,-120.02004974902152,-62.24426895375521,5.070326716795341,42.657999826020834,52.850660429979975,60.32686037142304,73.50462657939977,81.92762541088813,77.10790510806072,64.17725066199226,54.5875667619681,52.396532856770335,50.86915585815193,43.04356322258483,29.537824883050146,14.469622865710944,-0.9292447512269786,-17.10748863291616,-31.85664801059706,-45.156593861873226,73.0,118.0,82.0
-101.20643500662521,-48.997475569481644,14.136553348879408,49.797983342571314,56.63756757644564,57.203009004167654,64.64254264033681,72.82742176383691,69.8002084197474,56.0618576026348,43.73868391537968,38.904334817876425,37.35061352459198,31.237188693148795,16.99566388982302,0.0022854458686059065,-15.727626843035384,-30.948698047692336,-44.42212555524508,-56.114135366494146,-69.64823024502076,-89.91846950430543,-114.89553875208281,-123.47754237500752,-90.14122534659909,-24.63915948957951,30.374270920190234,52.95351831132575,59.4877037913227,70.7387780917031,85.76679065416674,90.18005406323473,77.44547227130151,60.044408022347156,51.939370398426306,50.89663447611538,47.48206313671175,37.69610553687886,23.3569169290585,6.955978999942823,-9.629397250649667,-24.009384197738935,-37.46905289785918,-54.03626893766704,-71.76389571436773,-85.87200661844597,-100.74595446436156,-121.71127513426059,-131.42689450318085,-100.58110587078288,-33.57265049950426,26.95743001927899,53.67035645066983,58.046938379960466,63.876712570139496,77.11470024930256,84.29613440159184,75.32101390049259,59.1627322074223,50.28631470668008,48.7140229301335,44.152727482546254,32.348533244438926,18.221501240555362,5.472902861706682,-7.059258078672843,-21.30847070504553,-36.8981691072813,-52.733095664667296,-67.42421793429543,-80.08995593462457,-95.34636413248353,-114.11326181041336,-114.23041426930293,-70.85882099866444,-3.3609616328278626,44.60874086001805,60.22226980563365,63.028610275822366,70.1084608867423,79.32792536557457,77.96325207561274,64.373167123818,50.01682644302413,42.385947508300426,39.80624864089488,36.511170142259594,27.442603105426407,13.45485534784797,-2.0886044328101088,-17.643806575071288,-31.373573493073856,-42.063059866595495,-50.80219668703961,-63.54158387499904,-87.54965752929502,-114.7570476521807,-116.03708453082218,-70.07210098537854,-0.39867272685061883,46.99744650837644,59.70704479955908,59.165107638340935,61.02219200602357,64.51750096899879,63.05014111481825,52.5724228363942,39.50545341951365,32.90491786352233,31.242405681711503,25.899363260466824,14.203614305417483,0.010339138858834068,-13.677875156906579,-26.56207685940901,-37.8456862845379,-48.094693230321134,-61.71266227788291,-82.6575690713586,-105.8620130380216,-110.12655872051337,-74.0329676559668,-11.805734040187975,37.395712491228345,55.72038792371478,56.993174360152224,61.6216432234748,71.67167266997261,71.29879347595455,55.57284694068279,38.838444559323236,31.416873411906806,30.890530860861354,29.691121360825957,21.5723647998571,5.899105066414255,-12.070788120055994,-28.100213909024813,-42.36417037903599,-55.14657833528718,-69.27555136781547,-90.83584581752038,-113.65838118413392,-110.5186126192776,-64.04268389034506,-0.33042066547894056,41.34728253577834,54.811211488638,60.180032051982344,71.33697421128663,82.45825014841726,80.99952768687321,67.59031499769603,54.605047301896306,49.31096596442803,47.91791283956028,43.750603155517496,32.90334280628348,15.257243121345494,-3.9274176840963224,-20.02426024531199,-35.01146893509586,-52.430158863801275,-70.19413253556351,-85.26774520853283,-101.66579178923993,-123.24862348769916,-134.6999418765314,-107.08812159175854,-41.53516226528481,19.764233778421225,47.3259074990897,54.426507100081395,63.808736381278806,77.021742878985,81.92364759605486,73.69342168037083,60.6477894797168,53.34350711073648,52.307192047755805,49.37223694117718,39.54102318213842,25.20143120294296,10.10653412506308,-5.584788124158455,-21.608857542850387,-35.74260017214608,-49.053910160050876,-63.03507106383797,-79.25242083601272,-102.0749278345931,-122.7244776631015,-112.41930890570507,-59.38770288941786,5.390770540353027,45.661477745663234,59.50813471987953,65.52095114407503,73.76005321817843,80.37360782524958,77.33275210572421,63.44979540429263,48.21775218104159,40.3618203217063,38.59941364944101,35.547208414789296,26.36319278896933,11.580875781515752,-6.585097088537362,-25.87627795962576,-41.68969250075072,-51.139393190153044,-60.62335648972932,-80.95114613888747,-108.77482539420727,-119.00889184132093,-87.90309464260383,-26.263233453040023,27.13940403652875,49.803447828352446,53.11022678330991,57.10655279999647,63.89399048549785,62.18126532866979,48.889835209116306,35.20674768473126,30.487174937542086,31.719385785566256,28.95454174019795,16.829466127676454,-0.7585119665350522,-17.711427776045504,-32.371718368756454,-46.4088068050462,-59.78436621630529,-73.27565591476524,-91.93140193522581,-109.39220348937145,-97.04314983121816,-42.747436009190345,20.568825370645172,56.224472674292,63.632267919690825,65.543030658449,74.79392227895379,82.57155470996302,77.20104697516213,62.43611679022874,50.43526743666865,44.87207975973791,73.0,118.0,82.0
28.239282885687583,14.376709587611375,1.9471739304590048,-10.972731209422719,-25.73367116804183,-41.48532302718473,-57.19083766798338,-71.20661736881758,-83.92905646818394,-100.86479908836543,-117.59679129512233,-106.34163609430638,-51.80439669014436,13.946262496868592,51.89811779186967,61.289290521199874,64.34777532642103,73.10412123031173,80.44866137649248,74.90122001998192,59.766623907624854,47.0698139502127,41.33159195492234,39.22245426596208,34.57281935413133,23.734408177091517,9.03106281709092,-6.643738148991466,-21.88834902347243,-34.7780776284176,-44.64916102111354,-53.6594497995654,-69.23462963226257,-96.06585014166592,-119.29692392211064,-107.54490827685237,-50.22176279620217,17.082208440034453,53.578455532684885,59.84243392299415,59.27343347905037,62.11694622415699,64.91756583180486,60.87989785039305,48.56128234005889,36.7495224347858,32.28769434947238,30.38129450693044,23.058547344651707,10.160117974730927,-4.033801960086447,-17.49465296052279,-30.03049235026534,-40.78161977692034,-51.43564686041068,-66.97818224573794,-89.74969642628928,-110.30898478891376,-104.09542226017975,-57.05406273491663,5.240068363934449,45.69828240394777,56.79705679916152,57.40579886577154,64.52448431888264,73.3174348205693,67.90402473100981,50.11053984238999,35.66335215404366,30.856299876234452,30.960990103837243,28.2157728010106,17.665969958603213,0.6577597772692346,-16.942050014513622,-32.37250909660355,-46.19048826477994,-58.81236270222184,-74.59421808738232,-98.19734053509809,-116.81757310241095,-101.23673614919883,-45.37484058859101,15.03908725577018,47.45241984925494,56.22811260090312,62.720343990565354,75.1846693563636,83.65437529028554,77.88644255981059,63.24980865017471,52.28559683432847,48.83506469176958,47.229119570658106,41.39999845953908,28.362955473513956,9.566576598568625,-8.932075481381254,-24.253439180307478,-39.7655031282812,-57.739047444708014,-74.80334845208891,-89.53394101588847,-107.54702382390472,-128.91041861307932,-131.65959455315362,-90.64525348046944,-21.293413539291908,31.293982757620064,50.238372638993255,56.36847798829702,67.70929649968612,79.78022247645423,80.7238878175864,69.86114046401308,57.67593409570627,52.69046071793837,52.02902256822661,47.24168481307276,35.6554567500275,20.83499545166092,5.691830414419261,-10.293901326177178,-25.916079855513086,-39.56142226142195,-53.016772240554374,-67.30024628269213,-85.09543928047155,-109.32225696319745,-124.2141589125314,-100.82674827296425,-39.851997477211995,20.35239100058356,51.635219829818354,61.29257609515133,67.64467041392739,76.2136794239893,80.75455601614338,74.17269918156667,58.64677100403939,45.05654548491239,39.50680286424269,38.182431079715876,33.57324496892718,22.570577969630207,6.590461601262624,-12.184417466226497,-31.053045865882567,-44.99112580058066,-53.354277424917385,-65.08838501759861,-88.99857929506949,-114.94031500198851,-114.63111866791203,-71.69951670295967,-8.325688456502988,36.87795066087983,51.708032771651744,53.66642811372796,59.21060729080381,64.72832939543298,59.21473311858109,44.36354497354543,32.823222659876485,30.633195148271135,31.752648099203142,26.3800514303474,12.003559246533428,-5.9080329882888645,-22.118261258418766,-36.440765189376286,-50.390485979050695,-63.48805494569999,-77.97005507008583,-98.07020009856028,-110.24797941303095,-84.92792005994045,-23.290686983019295,34.49330627198324,60.406497529812604,63.74917423223266,67.52210972095662,77.88683660571094,82.54289864261935,73.35006555382893,58.26766176240427,48.34085856667618,43.63297986149806,37.5881436580997,28.059828886058767,14.529987074064303,-3.274849874284769,-21.18062746723307,-35.07727906052742,-47.57816086870611,-61.28819945457314,-75.73082159975378,-94.36602714640267,-118.16367521983165,-129.09781556856535,-99.73600815539339,-34.35201317953204,26.23199128658553,54.6786465341456,61.919402564059,69.1620757033878,78.52773065987779,79.38819698380587,69.76272932022775,56.90804176107153,47.56521380364883,43.45283520392797,41.55403312251844,36.2141350159621,24.000974103368126,7.666784616838964,-8.069576744340148,-22.297633958647925,-36.659073865771305,-52.170871173317096,-67.18488526347112,-81.37050666826752,-100.2002949968402,-120.35111188124517,-115.04830544368659,-65.03302504490888,3.5809913148656376,49.15532273446353,63.33538034014227,66.09949903854785,72.40892176034855,77.95473455010497,71.9586993983047,55.607074750576025,41.66949783026529,36.33557705080453,32.99541773285024,24.945472768961746,13.49910388611211,1.4873044128673134,-11.352902636519945,-25.068844778341546,-38.885723679043494,-52.62916937358267,-69.48606318968115,-93.81501612839287,-114.37642699730529,-100.92112032729374,-44.56673092643438,18.06855032429929,73.0,118.0,82.0
57.018987376672996,58.52942119101016,67.66428788452926,73.62229792891206,63.364905953346295,45.0209318883232,33.36498712181295,30.72417409352631,30.773016282611476,26.04596088877708,13.181931301005664,-4.602514153680773,-21.60557654101536,-36.524290842389455,-49.88370850104203,-62.719973934428026,-80.69411148690546,-105.29473145237229,-116.95832102771534,-88.24306713385606,-26.368606754436435,27.775592629469987,51.47204307300974,57.56496040411926,65.89667346472112,78.70070414854375,83.5327523067814,73.9819065445419,59.28846399900189,50.66483695934129,48.505463535622454,46.16723486947914,38.422286588210895,23.298578164984228,3.928800203533986,-13.620592855509404,-28.50746992360653,-44.77670062873678,-62.95719806788457,-79.15378076624386,-94.1013431535741,-113.88390850844725,-133.07679577068265,-124.64392488912866,-71.58987177822536,-2.6921470444679847,39.71972294520212,52.13091546025279,58.92309420592883,71.71894996235037,81.51803060929156,78.45555163668948,65.93387744999701,55.39437000596278,52.440321683651554,51.35590144360287,44.49725923955143,31.507208433354975,16.476186440107753,1.1849559691927383,-14.979344348058612,-30.022474756595354,-43.38117528205472,-57.03791039556095,-71.8283445809814,-91.6191283210969,-115.92521864911981,-122.28042418442065,-85.78762037103763,-20.47762523576532,32.61819887863054,55.74038549508519,62.9108877695716,70.03359399104792,78.33607853858861,80.14014374588521,70.19210653220033,54.049372437247605,42.638460007798535,39.03206637134117,37.451206482671786,31.035193496066174,18.359993336081814,1.3699399458653625,-17.82155823414187,-35.786134562103605,-47.7530988868106,-55.83741428391227,-70.71181100122162,-97.36026510893916,-118.84230932410942,-106.39230010572484,-53.6621261985443,7.879774966317244,43.858299762667755,52.55814150454857,54.685097667278,61.365393112509814,64.53731958827683,55.380296676952064,40.172729569786924,31.308925743375344,31.08310028918344,31.18587684563881,22.994067144328575,6.887790803078447,-10.873851306519995,-26.35640384904685,-40.50202149126379,-54.28144506193288,-67.26736719870155,-83.26289078152953,-103.71577674510893,-107.72920526043504,-69.46103362253051,-4.271735891201497,45.47021892135554,62.61246984718804,64.0401974576396,70.19415427561293,80.46451476700848,81.2265931185121,68.98963006661,54.61815283238631,46.735974346112286,42.2297956881501,35.18826312041868,24.61942125083347,9.739677444645316,-8.717381346210212,-25.60919179910276,-38.626486698648186,-51.433548636723465,-65.34534612585703,-80.4338664158408,-101.05887143621176,-123.9823360583816,-125.50658091644519,-83.09745387861813,-14.428439476784892,37.89139677396698,57.84592892140579,63.459786942711276,72.09709413657735,80.00827009358642,77.44178154630613,66.01178499374268,53.664352493980424,45.89988244096878,42.90131136021408,40.616587074353205,33.38452265921262,19.46256545118678,2.931525417737544,-12.278051668301593,-26.353657480212892,-41.04147450309774,-56.676668615244616,-71.2061747612931,-86.08789629234182,-106.67278046541708,-122.9197407164277,-104.9389457703507,-45.01686845501466,20.31041682755331,55.834696945802726,64.30774414365769,67.40992115926115,74.63730104909222,77.68045913367186,67.82617611349968,50.77230268930894,39.37362514721528,35.584363120107916,31.242543427545492,21.79240772996834,10.070484977978474,-2.114419628882239,-15.251085736507902,-29.089082802935312,-42.813906274323,-56.91909741768912,-75.76566067198412,-101.3118669183052,-115.25582311101898,-88.1119811763278,-24.940783849971428,31.23254122031586,54.54090237120731,57.37954013128909,59.698617200698756,66.08908567715754,68.69372079033799,60.0495709262032,44.83093075906007,34.803006313190316,32.03100995581354,28.119115529879313,18.23996407182224,5.219126497859997,-8.736960175096971,-25.639861471541565,-44.6980403836867,-61.157614959974474,-76.92964346239366,-98.23663831611805,-114.2163640480797,-95.62512007083616,-37.01934136662565,24.08949995290832,54.01082740301069,58.27512763778841,58.74849562502271,63.39110998125502,64.87569301721018,56.71012536053847,44.072094727512585,34.08333686953846,26.87935546536205,20.089203277259294,12.165264608169048,1.9193421218474382,-10.739241203956379,-25.30320154606536,-40.26825041955993,-53.000574032318475,-66.67902024465266,-90.21023809599696,-117.55944796995087,-115.33709552315175,-61.320264565451524,11.855247303987126,55.55511221172799,64.34676963191167,65.32665177183512,74.24370892193849,82.3349172775415,78.23491967422619,64.28889737771857,51.03367261781421,45.21601416402224,44.53783666663999,41.98241974874011,30.889714851185538,9.803186037060373,-12.69408442423974,-28.519694261476886,-41.21806771094907,-57.4283518539708,-74.94716696647838,73.0,118.0,82.0
-47.24876877195513,-61.12161898336451,-76.78072033088803,-98.7030215418802,-121.07775207697941,-116.45846448873893,-68.1245706212388,-2.3262721185150133,42.141267485471126,58.522143633574224,64.64062929870026,72.57935710973882,79.89994516257944,78.46183074041114,65.64897536509908,49.915152102061576,40.932927802484365,38.73536784724589,36.26884167091612,27.95478901369076,13.791591249757474,-4.039477658224448,-23.38003299955597,-39.96565682616951,-50.121010660652644,-58.91751046323327,-77.48684449305875,-105.39102944197572,-119.75584414303813,-94.48828250277582,-34.87283590555256,21.69102829310372,48.39860967690811,52.94583293109027,56.23544666407044,63.22904807788132,63.19195263966173,50.99551593855895,36.59524682843055,30.59070626323214,31.564281380814577,29.852998112766084,18.907685833554897,1.6527569016737576,-15.608267138102045,-30.48735658487866,-44.552155547397184,-58.06775218532162,-71.28889598899194,-89.10971879421685,-108.06878577657774,-101.33871491488657,-51.533616792116995,13.240235481384216,53.474033153761916,63.489983030485064,64.89615135491054,73.3073130247632,82.16292828794744,78.70954003958,64.47619578100499,51.60406763796423,45.431107537744,40.56359548578556,32.50503110841949,20.812140382091403,4.607960626438816,-14.007184810458947,-29.658164441755574,-42.18753208396566,-55.39786451875888,-69.44943276544544,-85.64407295624716,-108.10907094858752,-128.0379747390418,-117.92554368119966,-64.06588005498983,3.90592573620765,46.588742303872394,59.83901874042757,65.42650589110656,75.01053340949379,80.51231252065443,74.71715772742144,62.20466714430561,50.841885133237845,44.65810257878673,42.42508713935165,39.237325984059495,29.949935994189694,14.70993484650634,-1.6589933299825768,-16.384382277730335,-30.468524118916257,-45.52795677543548,-61.06506418391032,-75.20622758797559,-91.38822441943945,-112.97074077715602,-122.47177957412197,-90.96008096515712,-24.576260719067125,34.246395225510845,60.13015611304667,64.93558862675735,69.20195398655223,76.51510182815731,76.2148189175697,63.03249294722056,46.50420029559082,37.78924099896916,34.753993833579734,28.998802538886554,18.470908076210428,6.61854284086887,-5.803178293274197,-19.212642387596727,-33.09312483113484,-46.74349638825522,-61.60029005033186,-82.75953497499431,-107.96271698803915,-112.43866814506332,-71.97886216279855,-6.0551395987646295,41.350984944749534,56.40428435533621,57.56277263756095,61.335151878500824,67.695614057164,67.42468280104428,55.790125704007934,41.01937819115463,33.537795760204425,31.41172346786569,25.84033011863799,14.61799222066343,1.3181480441538775,-13.21670861022628,-31.142999082348517,-49.83928895055831,-65.44795687575409,-82.47579746489328,-104.5891646157676,-113.52563736872918,-81.74719613753976,-17.514197705308565,36.418498180657835,56.86309361385316,58.06488891911449,59.803350645611914,64.61166368754056,63.487462268752566,53.09754786542103,40.784471348603645,31.83170567421798,24.953143545462016,17.979989573880168,9.4704127546351,-1.5094677071576565,-14.780809595022566,-29.71292505464506,-44.22236067162096,-56.46356441229721,-72.20789970061803,-98.77859310940991,-121.72050036838986,-104.68642945423589,-39.59526455516229,28.768095806068242,60.70054304957604,64.21504232743004,67.1318670216353,77.35274929824833,82.57810689796919,74.79457996211093,59.931115999607066,48.52996340972181,44.769851978035476,44.32344689552792,39.87886348497885,25.625529760458114,2.914036262570307,-18.00865930371171,-32.13571661093515,-45.435671286845206,-62.657874121885634,-79.4438266480458,-94.51389563723063,-115.01785119872433,-133.13278851477722,-116.98129740702478,-54.59286927623288,16.873300618185155,56.84889293100483,64.60621512778441,64.67075217059913,71.57848767548043,78.91264120444234,75.1519297512197,61.255705871982144,48.53267927985116,41.680234605619745,36.42792484967316,29.460133963575338,20.573429517938997,8.138172284189837,-9.653512321672185,-29.23824012985713,-44.64502942406278,-56.461640768979116,-69.8176821669581,-87.23341136621981,-108.53110832450878,-120.05101863255527,-93.7840360950499,-27.482051068867936,37.66183086938554,67.15066216824073,68.41805281820787,67.11118063983011,73.14887340253208,77.07664815811435,68.93959268418644,52.56662485043829,39.63046618959146,34.72671195274489,32.44508330044669,26.001606700671076,14.241384282699595,-0.3117995783561418,-16.21590785739814,-32.414555275616955,-46.13453993962379,-57.804891109757584,-74.73317142216868,-101.33108145453937,-121.80831998008648,-104.35902784224596,-43.14844337266743,21.671985528032508,53.82393501578459,59.41414496207382,61.822621982803255,67.8070951879812,67.47402757722244,55.50279670108597,40.74110143767484,32.95536222469193,30.255683569083033,73.0,118.0,82.0
44.21613978154395,38.596623806511765,29.53319040152959,16.606495679095925,-0.759968581067816,-19.003077590727955,-33.41214608014776,-45.846238975256895,-59.423350476674294,-73.69112141419993,-91.46771428154052,-115.11006995952182,-129.50462127766122,-106.33642640830607,-43.784475213889216,19.840163014791152,52.63985823713521,61.28652849315974,67.88719251701694,77.56231486268756,79.97624547698983,71.417618428447,58.52166093946621,48.48874784792283,43.7692375192796,41.87551699042114,37.307991004780476,25.98081729500036,9.883438821584559,-6.083488716927744,-20.435330188336586,-34.678976067986106,-50.07362938656801,-65.29137940765898,-79.35367276777356,-97.30156467320444,-118.38595362941183,-118.32371428584723,-73.77152603819283,-4.921455406913597,45.14332405975203,62.62130382137526,65.653833729799,71.35662786101281,77.71217174115563,73.55527964537325,57.94469700480044,43.002211115754655,36.72051893554321,33.64342703397139,26.309214889273235,15.074718397364908,3.1213199619870027,-9.581749734558823,-23.21588719643262,-37.06591536104637,-50.73814305733659,-66.84122085479588,-90.27634797415719,-112.91478543424398,-105.51456248638588,-53.523289435925555,11.026122464899348,48.52667206401564,57.14929518025214,58.089011904808665,63.24863861191442,68.71952117381053,65.10181175412954,51.249120119796046,37.91981644278477,32.77192593891836,30.444137593690552,23.046543542407832,10.847896971095537,-2.653688401077968,-18.026339721833523,-36.72634052618376,-54.64886318074162,-69.84356671042059,-88.6210246302753,-109.94602715177157,-109.1563828297201,-64.8729298077616,0.9572292098593171,45.65851374631106,58.09232484401279,58.037110171575236,61.1980009196503,65.29002681056711,61.23387777929744,49.35202799875918,37.829742688387554,29.751198358555644,23.013416721624896,15.741551283884844,6.559535060032164,-5.12993476796243,-18.970487951350947,-34.09718744379728,-47.92410076751647,-60.18722555679516,-78.79784839649416,-107.2460989520024,-122.34513909460273,-89.57845367149368,-17.65893072877893,42.25695656694575,63.34232715321557,64.20423543135512,69.69983285178328,79.99799743145505,81.62721945512904,70.7349959465275,55.91088685844741,46.72771378999936,44.6150067682742,43.76675666089819,36.91417250558625,19.57288587010931,-3.7790804049778965,-22.66744820116983,-35.69252722639466,-50.065898892102524,-67.82510165264868,-83.70648450983346,-99.67309023129482,-121.64552433662838,-133.4218769881092,-102.84571752858075,-32.55133297475546,32.512043098717164,61.46952941267804,64.34148550206031,65.93050378978043,74.25421370758569,79.24872565211597,71.72863667321403,57.0120533090743,46.05263944806903,40.23319756865241,34.618899162648475,27.106516430538832,17.47790763798496,3.516084300486977,-15.429623750735606,-34.26712961521812,-48.19584171896558,-59.99465500273115,-74.3652432956938,-93.1839525101423,-114.03817535360456,-117.37211167102235,-77.49594109138005,-6.331812800736804,50.2812407569685,69.25804995219953,67.39752858496671,68.27924831908894,75.11760596595173,76.08964412680339,64.5456655628888,48.04492515420978,37.492851174537954,34.1605546474333,31.187852640558226,23.054663205612076,10.218386647550895,-4.786669358237676,-20.96836661978519,-36.74397037063926,-49.50143730003056,-61.75126219049994,-81.62062338212873,-109.22570576251562,-121.85586144568862,-90.05260690792029,-22.519711539076656,34.82918237843417,57.06651623385951,59.682277382737354,63.463906739308506,68.86825320859464,65.03559585414915,50.945254141948226,37.612335345305965,32.00893713602614,29.27516912076889,23.217601271720998,13.58196194666754,1.2832933832356448,-13.426503993000438,-30.540569067828113,-47.09876778757091,-59.56634786370317,-72.42063731927723,-92.9351660324903,-112.09423775869642,-99.25417758882182,-41.78089321382829,23.793511846765504,57.92833476570553,62.43056228480949,63.841469997107716,73.43195578289259,77.60728764617127,66.93909439237513,51.66237318049993,43.30158976018133,40.46020064527098,35.517896635775664,23.619333382635872,6.511184051276725,-9.40497160981547,-22.59921172330677,-37.163674813394444,-53.452811648745616,-66.72194227941995,-79.6419724770816,-101.05473983846811,-120.12670062190513,-105.32584705057245,-48.268751462466504,15.735457976899065,50.82699542798034,59.453286653915406,63.796759362383526,72.78933893995622,80.058247870777,76.83415452841403,63.4936199342452,49.5108599109701,40.50646675326261,34.220231974954395,26.167360044980704,14.931976562013034,0.6005805322401438,-17.20904839427593,-35.8138698386754,-49.683165334437774,-58.89987166812365,-71.31476258638857,-92.9611814942588,-115.51562878214986,-113.67175917015257,-69.50741982365746,-5.591010932888372,38.32335634999367,53.60543646752276,60.040014004258275,73.0,118.0,82.0
25.535835217560575,53.134042725967305,57.34323723267412,59.08114332172512,65.22569096091459,68.92488026589919,61.82570955778975,46.777719493019845,35.609903021829574,32.25738551285487,28.981136188177434,19.831959291609518,7.004506187754317,-6.767651186485057,-23.170432392116165,-42.22922320804872,-59.15407219672878,-74.57706841228483,-95.17972677634252,-113.45815060562003,-100.80556178778907,-46.032939986845605,17.397789397263107,51.97419176956205,58.3346254533766,58.413945328820375,62.71977345314704,65.20837852532856,58.26238697646064,45.688482447188996,35.19942507077609,27.773011340947175,21.028319802661024,13.337713581614096,3.4321871725284234,-8.929971378012358,-23.28392478627857,-38.364459863448374,-51.42252866008638,-64.4528438138365,-86.41573108004846,-114.72699785396544,-118.6377689855676,-70.84563814241429,3.0552936421302226,52.152815632621724,64.26967124176846,64.78518219698324,72.76429478132545,81.833777854152,79.53941428647703,66.34403886693015,52.424058283151595,45.56632520188191,44.57158546040258,42.6946765114238,33.010913614681755,12.960028919662177,-10.01909136718595,-26.769667165551912,-39.40521854871016,-55.049088137249385,-72.76962599900672,-87.91934513496602,-105.50694602210582,-127.58414679906036,-129.905044510158,-85.04385819055499,-11.08233479003058,44.82446013459003,63.81424508266879,64.11205371166518,67.8838963895416,76.64321019718959,78.42232110171804,67.66044483705322,53.16775136013492,44.046095191929936,38.77229077026707,32.637385501427744,24.598048729722112,14.012054714617424,-1.570535730066303,-21.198752226038327,-38.820140452578045,-51.55896169244316,-63.77062094687009,-79.28826626430745,-99.43611790031738,-118.1719290802705,-110.79154438002642,-58.312154563722956,13.403764845656452,59.45338313268256,69.59413988871331,66.77033591557665,70.05256339341823,76.55259481898098,73.94534037525682,59.71551249633071,44.0978122936514,36.016149811550015,33.61116600218556,29.451472662030845,19.703738477274076,6.030956616980478,-9.365065784430222,-25.70288523012224,-40.78246481661184,-52.77571626425933,-66.38015716834676,-89.32787589487984,-115.95390783128855,-117.9032788802707,-72.4512783873223,-2.9292509570449408,44.738977906176856,58.65569401547134,60.212171736165175,65.32514205513301,69.07401795440647,61.644165817173466,46.48622938755629,35.22599575642681,31.30536015400188,27.963070831845428,20.74402707972041,10.279062576858914,-2.707941287269194,-18.16962058189069,-35.60990838000858,-51.115566703008675,-62.828435309544105,-77.47790389071235,-99.70184820714151,-113.09691377572072,-86.42504149806433,-21.35185372681844,37.64475277138252,61.21605980420722,62.07867177232168,66.07620338972663,75.98170843975224,75.8980546282617,62.29297104457812,48.35656099371543,42.236229020643655,39.55932501147136,32.86356702671322,18.94510751753034,1.5569038903303238,-13.351323909748077,-26.502393299919223,-41.88203621192901,-57.7386891703497,-70.034444469719,-84.84168811309718,-108.07428358984042,-120.58157020319237,-92.26551453061286,-28.387209724917756,29.51743918052642,55.059328830111504,60.35913716250593,66.01945796019578,75.51670112093994,80.44020927825024,73.67156680149664,59.09893951439848,46.38447785595513,38.62879535555166,32.21216848772564,23.232538626468433,11.131747561893205,-4.207060986465952,-22.753947040618623,-40.48042945000017,-52.57877604755428,-61.737557530151044,-76.63064430330141,-100.25173724705215,-118.7937938554209,-105.12709052304686,-51.1192227487288,10.345117610292132,45.05361137727305,55.38460231835754,62.76562668235136,74.67527304074594,80.76666191923353,74.24610593706457,60.53764359426751,46.84604467079133,37.05212140530018,31.73340085641955,26.5025515155169,16.127301410305478,1.3721791102159242,-13.872274321292359,-28.93764040934234,-44.859571976182814,-60.895729420955284,-77.00124943976674,-97.48312915790844,-120.35882906219081,-121.3975880237187,-75.79397934242037,-4.220725689915975,44.00421323951827,55.920543796371334,59.266339154837425,71.06313226218228,80.65699987507195,76.54570300371961,63.47428672187348,52.059609954671394,45.32475985326412,39.96723221579799,32.58859662274435,22.685701906046063,10.345015974063823,-5.53625163709681,-22.89850385405951,-36.59757620587072,-46.7962454370243,-59.6916246099767,-79.77678111162787,-105.14276150301164,-121.05942113376916,-102.02911026103821,-43.823592907635955,18.11627006675027,51.58882716883565,60.46513312621443,62.78505667784778,67.07498753386864,71.28009424004286,67.54709753230412,53.08241593752576,37.961888763676946,32.955445351492585,34.235608107124484,29.29412418401689,14.36148877336081,-4.027980546565723,-21.40534939601064,-37.427609327913714,-52.89158339223554,-67.80288312397363,-83.97415077174942,73.0,118.0,82.0
-77.4071416349731,-92.33596003984246,-111.93530357174807,-131.9333540454568,-122.07996104218876,-64.57940171049863,8.634038481276479,53.782248927611015,64.58311490981119,64.34025589867952,70.34743616667886,78.39941209032658,76.43067323616883,63.28397724730843,49.86193816476504,42.37780746584857,37.20341396038817,30.496755495390666,21.89865254124852,10.10312779622014,-7.038943532469375,-26.776482177608738,-42.90232753654281,-54.893858392547,-67.83656763990973,-84.62661210277956,-105.73025776448029,-120.11849573423048,-100.07901652840785,-37.36956204473913,30.707008002916293,65.38390656183942,68.8962090807843,66.82412454068088,72.15901553556631,77.1484028473928,70.73050747348104,54.78458319832835,40.86495430645775,35.05108144679835,32.885013216232785,27.205266069320228,16.025942971745728,1.7155151953989596,-14.037136518124425,-30.33685072316174,-44.51109798027643,-56.1510509278278,-71.87711508323763,-97.52661936734354,-120.61073590071408,-109.62419851237982,-52.655192942165826,14.54658611495353,51.5823010930867,59.27909235979986,61.20147254255446,67.10633258024623,68.23497196815504,57.545178498648184,42.419875961305785,33.53616993107203,30.61976790358869,26.287087556541795,18.007653121886992,6.767393086240453,-6.902296376751384,-23.11094844990015,-40.50858379831138,-54.740045916640064,-66.34070338200434,-83.31896055445988,-105.88404082619036,-110.50642725225264,-70.02760481627985,-1.5775103454610093,48.21902913789172,62.51437103721161,62.182042327579985,68.95290008595836,77.58545755579648,72.92315481137635,57.673438818120005,45.80011600743169,41.47173359903349,38.293005051984196,29.555892928151327,13.95899125607039,-3.13104511436264,-17.12475991450039,-30.641067402506394,-46.66924341985859,-61.636673737155064,-73.53536916759502,-90.94788657490818,-114.3106502889744,-117.35107281504033,-75.9441868551838,-9.135255420037353,40.290020644418824,57.56081317262869,61.43914548706368,68.63847115749353,77.8555743885826,79.75854245438805,69.81206524633102,54.91846536994345,43.71738123661776,36.86395657592752,29.959021901687034,20.039144124932047,7.066023917614259,-9.316143832888478,-28.242616998878507,-44.61773197412614,-55.180774423431174,-65.09113165011816,-82.79164118337161,-107.23604531957844,-119.2634527660962,-92.87157134650478,-32.10834279542978,23.749990355842808,49.61781288667922,57.03743811765531,66.01062192323435,77.58997247894968,80.10598789191552,70.6429586362409,56.35784951997437,43.5077405916346,35.15815701172333,30.50108120737637,24.140773507424665,12.121492248911226,-3.08674548815347,-18.191986979414864,-33.434665126187596,-49.556411670868286,-65.4182103109798,-82.25538765573435,-104.45924862675294,-124.43723400226592,-113.19793957347129,-55.55840309855728,13.790093751622333,50.31674541811891,56.40997122051956,61.910857218191325,74.82556727990193,80.96499586733808,73.16758435473885,59.68549176379787,49.72082107226458,43.826914005301695,38.120427845795405,29.95448148928886,19.41793227544665,6.134589154739422,-10.631033377993472,-27.39196624269272,-39.68204682513306,-49.95583745395928,-64.68776927344484,-86.89627400040847,-111.79334473387878,-120.11893796742868,-88.2511856923047,-24.306883868522647,31.19045887968097,55.83406967407314,61.191218632550104,63.74650067956549,68.59786578774475,71.3576920645296,64.25043118067705,48.128211358739314,35.32902847440018,33.21885447055498,33.902870842228424,25.79566880055448,9.098373986785683,-9.21644580200411,-26.13819657924832,-41.93336411392218,-57.26135143197796,-72.13695178049164,-89.60134782989945,-111.17672751439184,-117.32333679427062,-79.46685864783366,-10.167417892070837,42.40449048966771,57.833008319593425,57.324475481161464,62.71031676615187,71.74768803449741,71.70717756035751,60.17240245624066,46.90906877309472,39.66609907082226,37.69076771640026,34.416356108490746,23.820210073023212,7.080963121449821,-9.420380593412585,-23.952237249111683,-38.81981723787778,-53.67075237717333,-69.52182684196228,-92.2161478079436,-116.98359012007728,-115.16562179126208,-65.87235383211757,4.421056813918567,51.48118940355286,63.66280785346567,59.98622182930709,60.758519069383446,69.23852186244217,73.45607976929237,63.08720144770394,42.874205029407776,28.81280147197233,27.169741248269844,26.458475454699226,15.282672887369511,-2.9755476001329275,-19.59460707194513,-33.99154523958865,-50.3323744909913,-68.32772476391386,-88.75822755907522,-111.5681325570422,-116.21155743770206,-77.25921001094846,-11.245162313339867,37.39404399416521,54.321550923510145,58.15763735417853,65.44220988146499,74.17509149278524,72.4937246510634,58.62577391941231,43.81211011797476,35.21938515425635,29.949029453552257,23.194844162156734,12.381016534934183,-3.2808503496322863,73.0,118.0,82.0
