-59.196850159353744,1013.397009752511,1361.3515211578485,1174.3397694572839,973.2867335379433,893.470239332918,839.2265347649447,788.2034860567762,760.948460798068,732.4498416054655,671.1860282536338,586.145715375614,502.80428575502464,429.02042646493294,358.1532201238215,285.0738943907124,212.5475336311169,150.65272718739894,102.73892059863752,57.824172462419554,8.355335738607007,-38.23611365460277,-74.97587925218622,-105.99267721903472,-136.2279121018458,-163.4228034019421,-183.19452101209512,-195.499572595358,-201.488064887055,-203.28918331032975,-209.2503496401006,-216.92015475616367,-194.0350973005823,-121.2082360640305,-59.53774588758213,-89.31480801463832,-167.98722487573312,-197.4045761573184,-175.97650313431765,-151.9457221541319,-144.09883450881202,-145.45865327299165,-142.60275451988161,-127.78834837983288,-106.40437158846156,-88.19925851186348,-76.53866882850916,-70.26395047823178,-66.04503856441822,-60.096614743770665,-52.380840356884036,-45.85233124755765,-43.27357376856901,-43.583296442081675,-43.57718056842596,-42.34416996899057,-39.40151572105835,-35.04060768839057,-34.27143448992193,-36.3323931384619,-18.9888996937497,39.473729763610564,119.64504988464327,174.82419395236747,187.7973142639561,179.26585711920282,168.19412885558103,154.67809634282457,137.56306324971095,120.64953346072143,104.93071720159178,92.50686919431068,86.88956636187254,84.35077314742101,76.96309667109529,63.95449279495886,48.736704681821266,32.27743749918868,13.305817386715677,-6.938632792947632,-23.2481423923569,-35.0478766697204,-48.753788468824034,-64.32348925118308,-74.15564685268167,-79.29028887735478,-90.66289428160329,-108.30672275501854,-107.62826472320442,-63.227288658891105,8.966840048443622,64.01218219689586,80.61973890309176,72.52651399436483,59.41733791483267,49.76309660879886,41.98084877204023,29.860459320148124,13.457258378171954,-0.5641909827826013,-7.984765836391772,-9.567595346704303,-9.184282773170565,-12.145667448769423,-19.316716958165433,-26.09806281901234,-31.51391903054232,-38.91439765042834,-48.37515553911205,-56.502294112462955,-60.99916089106671,-62.28795803435602,-63.805478566077454,-67.1977467095255,-70.36940066421036,-74.03302826879391,-81.37843294888984,-79.75366358031087,-43.360047646855136,25.66007352254485,88.96029456184688,117.26946898141871,114.33019423423913,98.40627742529509,82.78470763212579,71.05197858577097,58.51262936417515,40.74156064575089,23.52110543720303,16.262949285837664,17.01577128433954,15.296206498583727,7.1648858437195395,-2.6013085172670136,-8.876379861184255,-10.291828359033117,-11.240394831569047,-17.077199853141924,-27.016246554876517,-35.39315706367492,-40.55626453421557,-46.195658137327385,-54.81830977264998,-64.796299875809,-75.58524672791327,-86.46982108773004,-83.95458962842754,-47.58839858062149,17.889269693822953,76.39593502451872,100.27536565964914,94.87660142318225,78.78207074467875,62.84826310209796,50.48847355468574,39.31708141556463,26.432537130454676,15.996984830962647,13.614267245700116,16.46467202051633,14.20208111487089,3.7216371948037796,-6.478145231892128,-12.491545432869113,-17.283763049049963,-23.389247492146186,-30.805712208887062,-38.31919359615616,-44.42608814541739,-49.379473951122606,-56.11798100944658,-64.60564700637167,-72.63024010181478,-81.03347953523054,-82.99547508437115,-56.33307826437962,7.600858776552386,77.46063864956149,113.7392629122558,111.8203625075455,95.60158249476001,81.12710754959569,65.70857133713874,45.36187098963815,26.82047243327308,17.24599889944241,14.418840194043245,13.370696828440025,11.530579908003862,5.9983712140200565,-4.022431264843315,-15.412333080498444,-24.88338648540229,-31.924927811341348,-38.3510409452512,-46.62788202892744,-55.32921274387159,-59.90175706730996,-61.15272528754792,-64.03335807940326,-70.44150855281367,-79.194710344471,-86.74269998032872,-79.1010153132339,-38.89317013769104,26.217545236027846,84.7367483963329,112.4677439864134,108.43742917812891,90.61732979040072,76.74699205892738,67.21600800829451,53.663334510741876,36.492020229679675,24.331164584777614,20.154921435224722,20.514093892442137,19.24482732294186,10.934492394863101,-2.4142760111777397,-12.522173727018407,-15.170089305809165,-17.110182397950943,-25.842156529663583,-37.41712529577411,-43.85564734732364,-47.81564250603042,-56.35907098725693,-67.07059771636314,-72.89493342349444,-77.16550283816841,-85.71251490216403,-83.34690332840825,-45.97992655059079,22.08070640265698,83.61656710530376,107.77955663915965,99.64308001734949,81.44142444944873,66.16148312373649,54.1028336816712,42.19709584263381,31.618621976413422,25.756748685100437,24.506021021667458,23.693042472309816,19.661607585327324,12.460441185625928,2.9909462816002232,-8.7887685624889,60.0,103.0,66.0
139.85852002717306,182.42248061402677,186.32781548968538,176.0585296211791,164.74321690369973,149.94242556439423,132.54401556563346,115.9799604222147,100.79859941459335,90.1597238704619,86.2305363862411,82.92483271489121,73.6256770347427,59.67383613907312,44.15290842370541,27.094061831020632,7.3936590705682965,-12.268227988315727,-26.881617088879423,-38.57479648029538,-53.37523144874674,-68.000312754659,-75.6917971282536,-81.51776322536872,-95.75394950856737,-111.52422641183601,-99.57784791318636,-43.322504370516285,28.381086405485483,72.61155501739378,79.79943026184071,68.65383556625503,56.178045309355355,47.59415888162872,39.121316063756126,25.307622974183786,8.872221692390582,-3.4313253066160323,-8.918667554986131,-9.422295948717501,-9.509781894030034,-13.949960092535054,-21.499693091343925,-27.66818744266539,-33.33584388145006,-41.56947944523829,-51.00138697379653,-58.222758551945816,-61.582829480955404,-62.544944336201674,-64.64407805891523,-68.23464028591344,-71.16842828783666,-75.86662563499333,-83.00084981947217,-73.60895984564098,-25.4635053730682,46.42556241755086,101.13096647636993,118.86073713868592,110.3029239730877,93.51515190151163,79.08478562082973,67.82604856171771,53.8852529086182,35.20641020614689,20.202146774450185,16.088591098164454,17.17747076219914,13.477759633481979,4.245343193604484,-4.936605426210679,-9.687874766859581,-10.325432611709916,-12.301315554731849,-19.76063355217672,-29.80819184421207,-37.10598071498084,-41.94563434793233,-48.39489295002581,-57.66253724176684,-67.76183408964349,-78.98164638562841,-88.12481484103193,-77.46832071678836,-30.422564934086168,37.296485106450945,87.19796395458636,100.8712610862719,90.65515748930851,73.90258647798973,58.91095112880288,47.35045021187983,35.73214750204414,22.837427732507155,14.39830887210714,14.296628292510864,16.768843512541608,11.739789065865487,0.3709734545747485,-8.568265906038702,-13.840199836580759,-18.874193977835724,-25.439089995291432,-33.032779106250295,-40.28390495224108,-45.86241645945892,-51.040328622814805,-58.51794601375799,-66.98079521142772,-75.00607739497671,-83.04528121044993,-79.27023898697529,-41.018965619403346,29.261254066663685,92.43350302249024,116.2754410871995,107.48874729013222,91.10199866712651,77.10659301799558,60.23154789819352,39.353939745858085,23.066834899665913,15.995299363456995,14.07313571263989,13.032955090526196,10.428908887093318,3.484144390767247,-7.360115061234313,-18.421959964979234,-27.124250985924,-33.72017157143607,-40.498683924794456,-49.31162672456909,-57.192920283090295,-60.386966198832525,-61.64353946901221,-65.54956323398588,-72.79938538287253,-81.84516464919211,-87.03434827830267,-71.15968054107083,-21.449842633060655,45.25714682770512,96.40763505079596,114.0278876355382,103.68926189335185,85.83406872815195,73.92463390817898,63.96463314535536,48.71564919841214,32.15429246628912,22.3849366736186,20.026550024233458,20.623834477440695,17.662882069406407,7.276936197349477,-6.036012605881464,-13.947873357073512,-15.329693124360144,-18.86534255408762,-29.33841762962868,-39.93350678129612,-44.871075780751084,-49.68759018631808,-59.600879961393986,-69.38390628474735,-73.83594367297411,-79.36990142894733,-87.37914128553776,-76.74750217139628,-28.21906115470508,42.44082900013853,94.89686942658773,107.77834910580151,94.55810031500073,76.53147121692486,62.51625411544863,50.695455904191896,38.83944210627901,29.347467939566492,25.055174323570977,24.44857872361286,22.918484005229928,17.848387607630666,9.949188157562682,-0.17565997213227913,-12.526686919385877,-24.85524192738888,-32.802024845904675,-36.24412252830104,-41.11701414758409,-50.78522964543139,-61.197718171366766,-66.89117173583527,-68.73813232303517,-75.20599484272508,-88.84229852949821,-89.24340477971441,-49.68090091297917,19.703218756086013,75.70312844760038,93.43688532093194,84.04841305002331,69.61132115083268,60.12643582888255,51.89720366960789,40.51353211194963,30.735320246230195,28.873266773349673,31.19463332877359,29.78719915396007,22.2699262778753,11.59063816774511,1.4489479824201335,-8.756218404539576,-21.232670758265336,-33.83098796687567,-42.77114220689674,-47.350804106229496,-50.02940792831291,-54.426875576491135,-62.76052534410666,-74.02838380694975,-86.02614361836928,-92.18799856620998,-73.73816762515698,-17.790538842948656,51.552251785476486,94.79716249803383,102.92129593337506,94.52528235750619,85.45260063398285,77.98128625302174,68.52164706704421,54.11684243107849,37.78549039809009,26.773682704343813,24.66077434153989,27.19463311955338,25.776459498986846,16.860498621263968,3.892858411519397,-9.356300503867228,-21.382174756928492,-31.157091782207804,-40.276991536261434,-52.558502445272644,-65.2918687504867,-71.50853443207882,60.0,103.0,66.0
75.70076836835523,64.35097682694668,48.77315124882381,29.985082590383346,17.898448392332156,16.381940098020547,16.858322264058756,11.156338623098979,1.342388862905738,-6.871842434831043,-10.114290030662472,-10.47893769399589,-13.876869839448645,-22.67995049855319,-32.32217950158411,-38.58541202757043,-43.49317567460168,-50.86085224503239,-60.54727646348718,-70.83228351856272,-82.32732424970285,-88.14335528367603,-67.69209084048148,-11.345485141442076,55.047939065032494,94.73998663722985,99.4612187622445,85.9627485538813,69.20414317496902,55.30306646659332,44.191815161265396,31.978942600801066,19.629673115742143,13.567541063726575,15.238331513709802,16.350428345000047,8.684501456822035,-2.7007795960644487,-10.32565632457922,-15.184381908995865,-20.60814425951703,-27.57963125357793,-35.233492193138716,-42.08966317615477,-47.247864632838635,-52.932439439724575,-61.00170234700433,-69.28287450619669,-77.47559629726948,-84.18478623719734,-72.4836732672653,-22.728179418896364,50.26553836638961,103.81748206915131,115.95925485799096,102.6578839993462,86.91807389510822,72.80391973514385,54.33322467899913,33.76964536245512,20.152129460332713,15.166192546806762,13.78320526172081,12.57820459902481,8.937175086774348,0.6186613023993521,-10.703916137914371,-21.215064336371096,-29.175987879770314,-35.52806414955187,-42.85725514128317,-51.92907161432536,-58.60624609364969,-60.69986865916293,-62.389138689808995,-67.35751813834716,-75.31882513086175,-84.27536315913754,-85.55735426066481,-60.154198114956294,-2.4732647702783455,62.876407727630465,105.12064074059919,113.14101728551842,98.37035731764635,81.68604158184536,71.28556590705512,60.174978180473175,43.62679175139379,28.4523102791861,21.08398690429458,20.160833629575812,20.424166604647528,15.393992017312389,3.345903755526939,-9.156257981614619,-14.743458676023627,-15.702644661651906,-21.295907710705492,-32.83706843170698,-41.87826790817646,-45.88056912405398,-52.07609149355069,-62.83574020830941,-71.14322213840525,-74.89385940861031,-81.97546291329482,-87.48743088960039,-66.71369575976256,-8.41829373319948,61.13149562170652,102.599647383599,105.5649586492679,89.1721731287862,72.03158690404975,59.0513039400723,47.24587692872411,35.67608231900946,27.5443940875312,24.68526665115994,24.297930928636852,21.82077172098253,15.804109666189424,7.25917336016049,-3.5443036031089212,-16.284643092025497,-27.748352434663392,-34.065181991747735,-37.21564322165098,-43.47944966281945,-54.007925199590325,-63.463593555859056,-67.53774418965153,-69.71777201270973,-78.81984119978776,-91.76188523151276,-82.44969994335138,-31.00387602194644,39.10205774196626,84.80979741693629,92.46897122481646,79.62653667235953,66.34849158619218,57.939008685067215,48.90178688426425,37.13482982031919,29.329165535421364,29.51214423964336,31.404699724112202,28.186897850124474,19.304504341230075,8.530023670556785,-1.3531008933377697,-12.129544909847855,-25.049405069466218,-36.90070983549322,-44.474190200713856,-48.16498144680329,-50.97254701764092,-56.41718095462465,-65.81205338438942,-77.53681471809347,-88.99756453240485,-90.41259665238806,-61.15616518725165,2.8093190838298012,67.91535044148208,100.17923002945197,101.22701501145231,91.66167325295183,83.24977662747087,75.64284237509253,64.87627535739216,49.29225560123636,33.765574872860704,25.288296760542963,25.28267021364697,27.52117869393022,23.895634162323386,13.318881919226984,-0.002692264436917502,-13.003514703650279,-24.457813099580193,-33.66660539036163,-43.43520416220239,-56.53176566701242,-67.93768425920696,-71.94631384827781,-72.5481679320073,-77.76439486263001,-88.34119831698867,-99.73603707601853,-107.12931712506015,-99.03243271708372,-57.1243294596132,12.868668764582402,73.30590787010374,97.78810047835132,94.81987991741553,84.86869178234032,77.6770213289439,72.67329658529606,64.88222615245195,52.076353940127944,40.372779743854515,37.90353610704711,42.64065819842005,44.80595999305069,38.365785479461536,26.639053506266883,16.325660628843245,8.011214604902499,-4.461987442700141,-23.397205014014062,-39.74384311669078,-45.94313320850697,-46.326633990203845,-50.74472428673039,-61.837330658003026,-72.79548628230204,-80.32715415079147,-90.32245873916922,-102.6106004183849,-94.66429220506873,-44.51129638313668,28.559869594208863,80.09773291798408,94.44298153670054,89.14374391732763,80.62172768798115,72.03883137566123,62.87927569236557,52.95869844404266,42.66700707475445,34.44875056324987,31.09999759243403,30.105363403254163,25.258545623691305,14.189685983459395,0.8922877505540953,-11.714315119937067,-22.79872032372458,-31.92047616014805,-40.95835609269331,-50.84381426139113,-58.913235393890425,-64.75357462239855,-70.65495545250181,-76.2577371261283,-81.0474495300824,60.0,103.0,66.0
13.505601680507048,11.924013241725666,7.023230728579901,-2.5152949817071555,-13.960605735707365,-23.77829019627974,-31.081004196054014,-37.425896252297946,-45.40656293540351,-54.33170055707089,-59.58098571454156,-60.988952289441556,-63.44040895553106,-69.4179564160515,-77.95762981553031,-86.16814513845588,-81.76202657376133,-46.20986756489927,17.178254479529947,78.41520266000799,110.82510923056493,110.27425976507672,92.997670269261,78.17879983217779,68.565547160091,55.829978386573934,38.66519346078101,25.4641225840171,20.33964073588352,20.407772572028076,19.75177896513872,12.472923209126957,-0.6309921509805801,-11.625282954923444,-15.09176826507844,-16.52826128725434,-24.3077973201969,-36.07301381993356,-43.318945800662,-47.11638191424998,-54.92693298843072,-65.82856662371647,-72.41968508674265,-76.32943485570583,-84.62466804468407,-85.30434569887164,-53.255831691613096,12.42578669349842,77.24492006573662,106.86781789341997,101.76458216426083,83.82602736006638,67.93318015955005,55.662550750623495,43.7818582357102,32.81216916404905,26.21639945435451,24.535661683884804,23.945899310054337,20.409839454699792,13.55826887959833,4.3827903287810255,-7.098506715765317,-19.945778460343703,-30.165992440376193,-35.026212737377584,-38.49075885564768,-46.24813379768486,-57.13203507601109,-65.22345394490905,-67.97674982708257,-71.35052073665956,-82.94707879203628,-92.80137236688397,-71.78870460416954,-10.616659161950643,56.21762439560881,90.51483616602732,89.78881677596122,75.28319499092164,63.569734568808634,55.66966286024576,45.602508584725214,34.1070533443639,28.679648781888584,30.28768243162159,31.14160887623176,26.08340422179679,16.187821677966028,5.583676660383284,-4.234311072521905,-15.721233458677306,-28.7746661881121,-39.58398969468098,-45.8381564705612,-48.90022336523832,-52.150661551928465,-58.762722239576675,-69.05330131052925,-81.06510580858074,-91.23845339583212,-85.97336596240561,-45.36106201215211,23.502408750219207,81.24531201197195,102.83041815184583,98.73233245264213,88.98033607474495,81.12977477582125,73.03059926340933,60.775341903186764,44.45590162431353,30.375939548245675,24.564713023028148,26.11132542749943,27.298036950627864,21.398423017155256,9.561308457139612,-3.856201986358095,-16.526983773709585,-27.31553225133271,-36.214260272081496,-46.941129175737565,-60.37172224546755,-69.88583693443405,-72.06622915177965,-73.3679710627465,-80.4433236502863,-91.75497754716719,-102.55526894915285,-107.22857104672936,-90.91886909800097,-38.46660195429185,33.11855239994212,84.27976570825749,98.77525959895155,91.9699859890675,82.39418617763441,76.19186063883025,70.93343815256833,61.59240525796997,48.133541185762525,38.55336124331949,38.91801966003102,43.955026502129044,43.856365962713895,35.18612894478671,23.324275781174265,13.910832920680427,5.143604102299311,-9.496614686726016,-28.911337119337965,-42.60624760468866,-46.21251451991624,-46.83740429721696,-53.470576995305656,-65.34871405073419,-75.19158253390708,-82.6329127003849,-94.20885447540356,-103.79420888314964,-84.62648780775035,-23.756272781135642,47.22342694022507,87.63414121355495,93.9241115613137,86.6918597179932,78.17486613762976,69.46388274529468,60.093839163473014,49.967816433270265,39.909873784566294,32.963314932687354,30.833583151924504,29.346057991464196,22.597386932148474,10.366997142524946,-2.857423740333464,-15.119418321235393,-25.59773320257589,-34.425713917424446,-43.805587373404265,-53.47867973382,-60.72483957788757,-66.39659843946875,-72.38994192556761,-77.63825173865868,-82.6936892931509,-90.50509677354162,-96.1286890102418,-80.17723414640112,-28.426315797642673,40.90395897850097,91.84390060077178,108.51535793166536,100.02126108911918,83.74337194750032,73.0817210314948,65.81506793670586,53.50479137777586,40.830138901190985,36.748902068589004,38.03766760367412,36.38399872491629,28.76197017050784,16.899055393783577,3.569189492650816,-8.00560208478052,-17.34535042478144,-26.88253471797653,-36.7997643318747,-45.8465628221303,-53.81417393820949,-61.741371436575555,-70.47898210573494,-78.19656607496809,-84.03770170389973,-92.46786419504835,-100.44029010296683,-87.01569359567836,-35.63240597909132,35.181188252450234,87.09811966239131,103.92492793701477,101.11738367673526,96.50565005747035,89.90252915674678,75.77770416344275,59.49878458145971,48.42375004055774,40.770884090011776,34.282112273784406,31.97962641274949,33.35641687475485,30.363461636742656,16.791964372391934,-0.7869325804044593,-12.779373521330939,-21.72362870103338,-34.1540478718047,-47.11633257300881,-55.98484989638064,-62.464523018766485,-69.67890726389221,-77.73358365441486,-84.90915739295919,-92.96418404357225,-105.24455959727554,-110.62150719375153,-81.50358950606649,60.0,103.0,66.0
-10.794645308009267,-23.381581746220576,-32.080961642158606,-35.854720813121254,-40.18187283110463,-49.31291651155988,-59.9997511499676,-66.471719520326,-68.4419289729133,-73.79421931077658,-87.10133321869709,-91.12695547732496,-57.415613999153024,10.25912053931673,70.32965630352663,93.13554107593193,86.00687289870235,71.29061095399719,61.159626563644665,53.16182318430533,42.12506579338547,31.639863414836043,28.69212256093804,30.968055133408694,30.342373113387698,23.552848273376902,13.032469459744636,2.7395750507816836,-7.279819385260697,-19.473245559446987,-32.299932065750966,-41.858453360396084,-46.924041312140545,-49.65136740496626,-53.63017830682709,-61.43338492672029,-72.43429482040092,-84.51119966783541,-92.27360378615815,-78.38271886490504,-26.934276847118404,43.13968691966209,91.27824779438252,103.28710004056262,95.87432908094839,86.51923538298107,78.99712387557221,70.04506391262859,56.28565455222798,39.808806971823245,27.727733725077346,24.50507520592593,26.906143630489684,26.416281549241898,18.388014956708712,5.691500431255478,-7.640419321349962,-19.893200128865935,-29.97832198529106,-38.93307866086307,-50.741452770909724,-63.85807694355087,-71.14032166816298,-72.11309852515026,-74.74030005966351,-83.49121311516728,-95.11695795839826,-104.93583137049994,-105.61876863779601,-79.53015334151137,-18.0229930171145,51.464754671806624,91.95335394753175,97.9847414215702,88.9871980827574,80.25275990613363,74.8059718294751,68.81716606869816,57.89310374161671,44.525831954308416,37.65681852603632,40.35279628310294,44.792534128395275,42.12214636527555,31.741544721172186,20.27007403819563,11.592082185403612,1.7272160487861594,-15.013278322587244,-33.89256681566262,-44.54093683782889,-46.2170757187729,-47.92779042860943,-56.68868643566448,-68.63229943424848,-77.32024639709047,-85.37212080346856,-98.10991585883407,-102.49405204293063,-70.74127728989362,-2.0891009679851122,63.02531335907049,92.15298443840088,92.36885149631156,84.21191832992598,75.71002619019642,66.83257191358636,57.24113219848851,46.96301721439617,37.41763871159207,31.929171023776956,30.63389144203837,28.104297479500566,19.43744912928384,6.493943339301565,-6.525429624585059,-18.372102841749673,-28.236798169030052,-36.99723812088586,-46.703999728270574,-55.87441356643901,-62.39698839636207,-68.09736198423555,-74.04732749355213,-78.97567429365431,-84.62068919783489,-92.97629307818772,-94.77378838444989,-68.80227326157069,-8.580742609713687,58.81382741453589,100.10029343720403,107.92129129757124,95.33563577549931,79.83976659969179,71.11196002556437,62.87793116790337,49.34917839709124,38.65883115456489,36.97254755091228,38.127718566029756,34.76565347601004,25.657116932396544,13.053930014225195,-0.06711096123522092,-10.834509317163686,-20.003736741894343,-29.77430820117457,-39.534842325795154,-48.236815049799105,-56.04185134960479,-64.2021818531456,-72.95061998535537,-79.9429133665894,-86.02294091045086,-95.44757359172894,-99.92757066333782,-76.0120061261658,-15.469233275749882,53.544469700794714,95.31144567077483,104.07881739252284,99.64016898513769,95.15733590258496,86.58662952893374,70.84144995762998,55.67742178970217,46.0804855389094,38.689782451203506,33.06017963066705,32.238734295306216,33.38919505139044,27.495295068524424,11.57131037735515,-4.978595475288099,-15.28579060476411,-24.89421430433209,-38.15275240106972,-50.127149381118414,-57.931898177419235,-64.39859562112869,-72.00178957479375,-79.92736021689946,-86.93173415021424,-96.13113250237296,-108.6107666421019,-106.84539403554949,-64.65341025808122,9.671773090246894,72.30654985067598,96.47714997546439,93.13071359102742,83.94766371152645,76.45845270948057,66.298489940848,51.36901691247873,36.841071881874704,28.28938858247528,24.90707333909895,22.98558419893557,19.926298444917855,11.820150134807378,-2.5707073339393776,-18.40614900741978,-31.44574954762962,-41.650120128201856,-50.89761596145027,-61.05715861662119,-71.40385119430016,-77.79611288569848,-81.53859072293243,-89.73250949931071,-94.23176727669706,-66.06265696717476,2.9776754518277766,75.5821977731316,112.1187994750073,112.086707516126,99.52488760797443,90.34603999312006,82.91444904411046,70.78226200416728,54.88814806122712,42.02723354010676,35.52842971939061,31.223751282424715,24.431685344978217,13.908890506967053,0.5613220715955985,-12.697855747443377,-23.713252327370636,-33.43271199186366,-45.742802112155495,-62.840699991385605,-81.44798121238397,-97.30968765020006,-111.55516848981424,-118.62014504447407,-96.52393411880324,-35.22072950177031,35.296911132167374,75.75833499256359,80.85219238501247,70.39898756423447,61.440356696856526,57.4598937027741,49.31525737624216,31.120935885412432,14.287204686507682,9.602920697589228,60.0,103.0,66.0
-71.79777056105058,-72.33102240969079,-76.68597763114519,-86.77961692275005,-98.3303936814631,-106.65154519605537,-101.73718970285958,-64.88559460901563,3.163432850222924,67.13062188542278,96.57094908693703,95.99572036856016,86.11350238656996,78.42762630381534,73.3826715905956,66.23789225866228,53.9328096942082,41.507485116570436,37.64525223537125,41.9366121488384,44.97528369756908,39.68597582866655,28.231173964732587,17.507847021291823,9.196555870145128,-2.3511096655401724,-20.757416100295,-38.104292998742366,-45.65599665649979,-46.23708730499266,-49.697341468930865,-60.190636627059,-71.57028900568172,-79.3576080290842,-88.64403254825605,-101.45473301317479,-97.98009229821812,-53.43178601823862,19.205168528959533,75.50379905898103,94.1799373658688,90.23184783241271,81.75037385375177,73.20816874255752,64.1412903583564,54.32338690100136,43.998884074464314,35.28764235300948,31.289827061279517,30.32887475544827,26.293589776163493,15.904376191684158,2.646182529621595,-10.101452490753212,-21.44582755664381,-30.76944471428467,-39.680132554178556,-49.564822848214575,-58.01051708101463,-64.00994669375409,-69.84453658611753,-75.58846176228946,-80.3623152783263,-86.85276524350783,-95.00972442871425,-91.00230879701687,-54.2984443114368,11.906833425739201,74.33113067342322,105.43049784114527,105.60230442197798,90.45023114061189,76.63761719414921,69.17633755366627,59.37244921912647,45.45305057957122,37.34382205057362,37.43203423583454,37.792153639433806,32.645461548726,22.260358718369424,9.159533542596526,-3.475908125754078,-13.517362085827369,-22.740790990574066,-32.663469028903435,-42.17436226452654,-50.541958861952246,-58.3053901349197,-66.73869283465811,-75.25129229844319,-81.56865253508695,-88.38075787499554,-98.14945367046701,-96.94231138598589,-61.6584178692332,5.456325528133416,69.39554304169498,100.57753346771975,103.19926059670105,98.29961238737796,93.45306541996085,82.57117396467085,65.98395232438307,52.39662470635177,43.88564593341746,36.723284804023955,32.28712887502233,32.71589332651449,32.791525862910134,23.68366175864736,6.3209195729061936,-8.54076577206434,-17.748953216783015,-28.45536178854896,-42.01615963212572,-52.74469749367204,-59.774711228347456,-66.45294733821827,-74.358213763505,-82.00587476839486,-89.13443488248164,-99.71473336109968,-110.89137025847876,-99.4267498626126,-44.82662605165551,30.913660682047823,83.33715104462524,97.27446921111564,90.39040236554979,81.70873074897932,74.02948504823895,62.361253146755026,46.79966151701887,33.66188313477533,26.958039639329318,24.32174697813456,22.35987026682039,18.27981029538841,8.175717359037284,-7.2649381545936045,-22.529914182465184,-34.61511452838878,-44.327435185609474,-53.68480973284355,-64.18896090061301,-73.7975748423733,-78.82509525994317,-83.2963764905392,-92.50088737869643,-90.6823789838881,-49.36923200555895,25.84980900447281,90.68477612661215,114.93886049034575,108.6911541781312,96.3199281618001,88.37138698706167,80.02355691280289,66.32243337741491,50.55993283126974,39.572795825918774,34.33224981879702,29.621904939496055,21.774821463733517,10.241276237491398,-3.41934694408262,-16.138135380393084,-26.517563551502164,-36.539226403332094,-50.230144814257685,-68.32041321523249,-86.35051825498294,-101.52039326964073,-115.07645345862282,-116.3034476812916,-82.25979421986071,-13.71542004884783,51.08818596601306,80.17680917447288,78.4615445865283,67.22259898936899,60.004826605759526,56.07075366763162,44.886064064059575,25.360814922932057,11.680187986619787,9.845892228477018,10.224235954103275,5.770758699120995,-2.2021113837636803,-10.431336663892951,-17.589041818252774,-25.624502251900722,-35.483478819486876,-46.29285465053447,-57.41771189325889,-66.85229199228583,-74.47598161926545,-85.2603264150375,-96.56035515395126,-83.84592916492286,-24.90539486171309,55.425956027253605,106.37804367908592,114.36467107993866,102.94026011530705,93.14686103008731,86.9614028057938,75.86468300918386,57.39646587055807,38.35450180518182,25.46407031180743,19.089752221067616,15.992247805267073,11.164031342330489,-0.4173640401590016,-15.833240803427449,-30.831031573066472,-45.393939745656475,-56.487250553649936,-62.88196601602254,-70.05123049736285,-81.2705853074164,-91.8378929074402,-97.79264111228338,-104.46508122740124,-114.34953188402194,-105.80172533423662,-52.00989703144706,29.66272485017802,91.55209588859185,113.6403101085974,110.6947835914119,101.81214649764223,94.38853088959425,87.3944605435363,76.52611516801394,61.43818823200083,49.630954639573076,45.3486950722404,43.26979778411142,36.64589086663914,25.134406092091183,12.789112536817973,0.6888269817101614,-12.352460279434187,-23.837782713258616,-31.377993095627726,-37.38742991432112,60.0,103.0,66.0
-81.90371743093819,-89.32711996198454,-96.10309247055343,-84.32456667910884,-37.08789341103464,32.02229941776063,87.01360742227189,108.09254948129188,101.994856529197,85.75533718429787,74.08683964030637,66.98008733557464,55.41677036151137,42.11679448288508,36.7931916466626,37.887843919682844,36.9514244364606,30.07832393764494,18.632010858528623,5.306583477447296,-6.632272032521017,-16.137027710228683,-25.560591846187794,-35.51016495620419,-44.71155203342917,-52.7883912905175,-60.63727859879699,-69.30536943842549,-77.32260445032999,-83.22062086270223,-91.11432818833126,-100.02918342472263,-90.9208897195429,-44.386491450842655,26.069616450381353,82.24662253548306,103.33877406096275,101.81364230447484,97.07127071217847,91.18221636629012,78.00530811424257,61.44009398976266,49.59078017814659,41.74729998389329,34.97936296969154,31.977486079421684,33.20010209196324,31.35062614615302,19.09662236789621,1.3465522066205315,-11.540981684135566,-20.394943492029373,-32.31620850957788,-45.592202690932865,-55.024272663965235,-61.604491365179406,-68.63488138890969,-76.6858942117772,-83.99896890187928,-91.6593252702491,-103.51773992972882,-111.29489151630091,-88.06270154505144,-23.0549330144222,49.96053855709269,90.91343613425016,96.34276778905004,87.63155542583758,79.60408209313564,71.22359633971385,58.048142650604014,42.45312125820812,31.071885548121628,25.967602203444077,23.782055614083223,21.57732155855331,16.094019997773845,4.044667881461545,-11.918827416372025,-26.361211244286437,-37.58075649744318,-46.97570121517243,-56.59356801026136,-67.27007635692989,-75.7414129194576,-79.77778479347363,-85.6131107424003,-94.4835487591678,-83.57008206929564,-29.529992183333245,47.728861428729815,102.08567487292476,115.12712559074586,104.89945335631597,93.59933804786512,86.3536313691147,76.62216835072311,61.661351211259785,46.67915493174173,37.64707645707307,33.15996325727935,27.738256523404946,18.798689459177137,6.380663192427521,-7.306802455676943,-19.360647884569882,-29.27238586006491,-39.97776286281305,-55.12652792466926,-73.78447062694296,-90.96158201233565,-105.687496231344,-117.69339317408851,-110.86966597084047,-64.80507954173937,7.418044385538884,63.6021919112731,81.92576459454173,75.34454779225673,64.47549943195504,58.92766229455975,54.00374914571496,39.623834949262694,20.16332801010715,10.193377187756932,10.23579661995419,9.476570813050884,3.680978863827779,-4.679829612386729,-12.564591130620382,-19.71767225989548,-28.320885837149028,-38.53557276758613,-49.526386930047984,-60.42750873108122,-69.07919202470518,-77.05574829644844,-89.13121696146985,-96.84393457918672,-71.55159296734048,-1.5321835766816394,74.82032921427248,112.3886655763306,111.81954962304881,99.48908484974702,91.32763075741683,84.58520863613091,71.10114997233259,51.56363577682081,33.85628173712352,23.07660178462279,18.022208333195092,15.073783954775068,8.556481604940195,-4.767818535376613,-20.231734153527075,-35.128857340641,-49.1477590529106,-58.66384489945363,-64.58105611100392,-72.96187290982286,-84.69858471725586,-93.97237343513605,-99.25921214969905,-107.40328928257227,-115.32629732710694,-95.24375895559993,-29.192496430944217,51.32798106951367,101.78202124525882,114.35479160256277,108.17993973638345,99.45921270122696,92.4914570138115,84.82781167700607,72.37055979368638,57.31211244179202,47.713216892459066,44.888400432017356,41.9852814330915,33.66021202079857,21.5019747728775,9.343428887670278,-3.005870979813279,-16.019382327346104,-26.387001525960738,-33.11278540993878,-39.24225359239317,-46.22865710603606,-54.429988105493294,-64.52394562077417,-74.22207821338249,-81.64884204854016,-91.32136469092877,-105.63325384277002,-107.89278625363255,-68.7140983540726,8.360520546288237,76.53903296827077,102.22869503414535,95.9133709395465,81.81149432594005,70.84793452803986,62.157406974926104,50.33013909843701,35.812691070477726,26.179389001140557,21.58989081114207,16.758675075172874,11.309358790289648,5.100786637902845,-4.982463460855447,-18.641974241679133,-31.031562969360984,-39.74269602581562,-46.076857185857804,-50.688166165818124,-53.23824597417,-56.32100194164244,-63.360571677634724,-71.74822103637841,-78.1123947106081,-85.25066853350715,-93.27048794711844,-85.97786170650087,-40.05640072898348,38.357146600333024,106.75343470183397,131.26729326911456,120.23492640148493,103.05920426285783,92.93443871806397,82.51736422472845,66.44438583056878,51.596871574987524,43.525743261363566,38.5835681685553,33.012286337513025,27.346072399794796,21.49730210440155,13.53001311344574,2.3132689096671326,-9.697154906849256,-19.7650236968906,-30.347740640665652,-43.79745803393128,-57.36494359189,-68.02107011781823,-76.29675473005396,-82.73305626784295,60.0,103.0,66.0
-72.84289368523832,-0.5748853081361942,66.03296892096965,95.352206245899,94.2966585970087,85.05400108826834,77.48544895529402,67.96237967365211,53.49802279589054,38.49721354822492,29.04912959498439,25.20704778700587,23.244991435055127,20.530806796298407,13.308825437777378,-0.4336818629987992,-16.412413303574755,-29.903571358580603,-40.391958059515474,-49.645662338309684,-59.62620618250587,-70.16783761263673,-77.2360948166867,-80.89931200710238,-88.38478848118164,-94.85071459156771,-72.50692222526645,-7.544769079000564,67.46302950461642,109.76340453299763,113.36488858386934,101.15195678652977,91.30276384574896,84.08808313304554,72.72553490733169,56.98958457282931,43.35693931849753,36.13107274140211,31.87890606080792,25.548246307561445,15.517072731587518,2.406957767782791,-11.040452557514643,-22.379565478770896,-32.084427502761066,-43.82238602213058,-60.352622182927234,-79.08767942514694,-95.3418976381808,-109.75938139256998,-118.80368997699782,-101.8986210632971,-44.92360122779087,27.034124610661152,72.6902465416914,81.56548838577922,71.95269735911587,62.26950340187709,57.9574658705208,51.02658063356637,33.844585968178265,15.885521202701556,9.630725656920012,10.49063575303053,8.264052899416027,1.376441655616003,-7.097982351789366,-14.61348873100155,-21.99007816199095,-31.156771673509766,-41.6474802698113,-52.77166528859148,-63.22003130671045,-71.2104206321321,-80.06566885562574,-92.81857461728981,-94.2710438596492,-55.110273251118855,22.426281568815035,90.58898675404666,115.05113988530033,108.3870198378889,96.5254586740391,89.66181773076522,81.57216319736109,65.77842493232446,45.909163203639444,29.985895638747138,21.174379144257923,17.148637458706055,13.849392865976508,5.303641134592905,-9.267556975462481,-24.55752425663965,-39.39925529068684,-52.48300407112777,-60.49483316462519,-66.52951104458081,-76.20918908185601,-87.88849654494408,-95.69509717416943,-101.02385385481529,-110.53760147485205,-113.92131977317675,-80.43313240060824,-5.075137528551383,70.17492394106964,108.66673587564915,113.54702721833918,105.54186597708637,97.29014628240422,90.55367547847568,81.81371840160632,67.94210473807645,53.701881762541994,46.42284184880693,44.407495507792426,40.19298884386705,30.337279294905674,17.90892918070569,5.884090985139246,-6.794946474391917,-19.443546278376658,-28.597139296841725,-34.81757049999488,-41.17658225373487,-48.422163900327064,-57.18105953542916,-67.53810505933642,-76.5189908669121,-83.91740913466323,-95.23601043177901,-108.87835246710348,-101.72395524225473,-48.74137266722233,31.264156083062012,88.58795761595017,102.50480200210943,91.85485974003451,78.19898530700851,68.32921518873044,59.25180331980839,46.102424371909656,32.280830883373596,24.603538384554707,20.33713903641034,15.18246974609804,9.708897041764992,2.7007733270524783,-8.74593670257671,-22.55475636861776,-33.905140533820955,-41.742799489432876,-47.6155141247288,-51.6019066368844,-53.86928522985085,-57.92317504919694,-65.89720737721586,-73.76532602641655,-79.90774725287929,-87.80744535277614,-93.90895475147923,-77.26638063917706,-19.29694134139316,61.29708295776148,118.7869506779542,130.4513927825481,114.80340274747803,99.50689515648128,90.43174427721904,78.32160727417062,61.605052648538006,48.59797768667782,42.03843256606691,37.06172090419643,31.33858246264794,25.74423326328212,19.504682509624796,10.596544523140732,-1.267769442586941,-12.791114738211489,-22.58382013309045,-33.97272620641487,-47.90387550388409,-60.768513598053914,-70.60262312479448,-78.35528136026326,-84.22102007080922,-88.46947203783472,-93.81280776090942,-103.13984751076089,-106.35257137214217,-76.85033329651745,-6.363211690425638,68.55257624125248,107.5669533058964,109.44773447515246,94.89487575365717,79.06218854278733,67.38746139338699,58.56997749666565,47.94067280600953,35.233974125062254,26.374636228288797,23.865694928895223,21.970954926067282,15.447418702101842,5.855231096297463,-2.9840678873967805,-10.6831643021065,-19.15364453058028,-29.316935913773587,-39.88966838626643,-48.73975172264787,-55.47651763147912,-61.04133774952605,-66.76145219650877,-72.60930551619369,-77.90252126850119,-83.89194915012187,-92.61581088071938,-94.79328069816826,-67.27336220322448,-2.1221268886176516,73.57283427634258,124.49454389974588,136.97549643829458,121.88820884544342,99.39342772895174,82.17100838586937,69.82234959082047,56.18006609801005,40.31136290552919,28.121868116702593,23.63961652589768,21.959165935206553,15.552754239046974,4.158174915533025,-6.810827889909589,-13.792295682602946,-18.16921865286987,-23.050690297609588,-29.202555810959804,-36.19369164841801,-44.35380621807876,-54.15238937108364,-64.11036073917835,-70.92200615064782,-74.14686698852397,-78.91374883703068,60.0,103.0,66.0
9.69628264507818,10.408924181611194,6.638625389638424,-1.058614993786508,-9.408357219247153,-16.640897902261113,-24.436625973825933,-34.09904525512641,-44.815140898754436,-55.974834535241634,-65.76179961459252,-73.39934843117346,-83.53359647758356,-95.70890534119395,-88.0755289215947,-35.083824345940585,45.48267987031911,102.3285261670053,115.05289720824366,104.64380710845735,94.1017522959326,87.88743055617365,77.83422992247807,60.085197783961284,40.624335473226104,26.751029794603454,19.67125463987185,16.362515859746495,12.14732633392988,1.4895221035847017,-13.77597468015016,-28.851511148254033,-43.552799493272495,-55.335832264486776,-62.13740837847301,-68.84474507978348,-79.65919440405065,-90.69647241903057,-97.15227931940186,-103.25892093895911,-113.35496870274748,-109.25216159642426,-61.73166762832095,18.96793601209995,85.6349318253254,112.64005172676583,111.74028835658513,102.95708034661419,95.27835649691089,88.4533750837392,78.30535354339678,63.456946703296396,50.75108103585323,45.61258907977018,43.70997663468706,37.87860015330732,26.801634353616443,14.389196594457626,2.3528672735144713,-10.611302953163017,-22.536754199213274,-30.543285459987885,-36.560132912874025,-43.180292524701855,-50.741845320717495,-60.09609779206452,-70.4183336256249,-78.62938235970601,-86.55353048577331,-99.5131995810602,-110.44387160568964,-91.37780686805266,-26.260642075746784,52.027247513245314,96.70932567301237,100.74493517814777,87.65975809972012,74.9617313919551,65.89611528432596,55.93760802268806,41.78115236266859,29.35596864644268,23.315580960038556,18.96180667583183,13.601751770584883,8.000102630079477,-0.1142720611526763,-12.728570112490754,-26.22860571049561,-36.46587504269823,-43.595242353466205,-48.99897468432994,-52.341143742486004,-54.65518837779506,-59.91281676883847,-68.39873461441594,-75.5919889307373,-81.89156658755225,-90.35781669857879,-92.65718901264088,-64.81583099035764,3.5698601928886404,82.12312775556667,126.67848727968013,127.3009141600954,109.5825265468983,96.58482911651492,87.6037146461367,73.6572949021216,57.1292549992118,46.19997370099103,40.65264915149193,35.45227680793127,29.69384526453239,24.097450688522482,17.279628521630414,7.382442036565058,-4.805019199664737,-15.696758608212884,-25.55816869926821,-37.84945205973363,-51.90383025979837,-63.893714830697846,-73.02312013788097,-80.25609139977368,-85.55549310672487,-89.70653139717732,-96.15058530397799,-105.70469074931525,-102.34353625296473,-59.83236774508709,17.125786185527357,84.35873719210439,111.0989274673998,106.04437367928371,90.06352641558803,75.20572828828911,64.74424383546204,55.84820539734966,44.28470483014493,32.00186703204661,25.133903759376466,23.597985038652638,20.612868982554282,12.798548782898733,3.121118755067576,-5.245437061778519,-12.977944305394866,-21.92456196117199,-32.44227523611694,-42.675156006148,-50.883740617312576,-57.13467342682386,-62.64947643914113,-68.47184871143162,-74.20376053767417,-79.4217643534997,-86.19329120225298,-94.8175992084572,-90.87366329146985,-51.704050721071305,20.431506469869646,91.96200900455065,131.950249459869,134.55770666103885,115.34911610118787,93.66183643184345,78.37788062849455,66.21777066527942,51.64522182787344,36.098277820392404,26.08154404633716,23.259827320526416,20.78253224506397,12.57185302910262,0.6996915840780372,-9.262955253582192,-15.171780576152857,-19.436447268179485,-24.724899271835326,-31.136113443053187,-38.40070921263098,-47.02480768732351,-57.15439430357851,-66.51979329647894,-72.09860824106786,-75.0284957024763,-81.52227432018509,-92.48941895198232,-87.64256602440429,-42.71322041395047,31.161430919582003,92.09628135620727,112.72113798559816,100.77681938770245,78.76383333261776,61.11114036988204,47.890870929699666,34.35112226207028,21.821536583212612,14.917149005440697,12.01631852632979,7.202247649740293,1.1978189599765998,-1.7360377655258445,-6.0673086582748565,-15.833304474031689,-25.20476175581182,-31.853684127060415,-39.09194246808127,-46.44957764811582,-52.95789382101166,-60.32154604969343,-66.94392412376558,-70.62404763734143,-75.62231327980024,-85.0230817421972,-84.25155409319936,-46.543053650261186,27.546188028599502,96.50540005789802,124.63805427963734,117.98772024411973,102.1100779065434,89.53727662135901,79.18007769004006,66.57411421480313,49.87700777933096,35.17662214294286,28.555827971330405,26.896337363813625,23.443981305543655,15.548491230706441,4.510354735045921,-7.539270938448745,-19.71182914723253,-31.15693985310222,-41.611690897441825,-51.549067859158576,-59.99435177770345,-66.28874558320568,-72.27544895223579,-79.29414372558608,-86.84885344627456,-95.14382684329131,-104.84867213881022,-106.88611332533577,-76.61396675585183,-6.729258022777623,67.11077214960612,60.0,103.0,66.0
-38.376763870536976,-45.24964324731066,-53.224019517098306,-63.11815960415057,-73.0804677055635,-80.67878774272556,-89.68983936372582,-103.80022253061617,-109.44827468280404,-76.7830078302072,-2.5735171019939678,69.65431805836188,101.21820777181597,97.63449378402782,83.59450717044012,72.0778717400558,63.386029751061656,52.18880367715364,37.61435112936048,27.053112625320903,22.137072318619488,17.472440240357617,12.032976217765155,6.083389851222167,-3.355572276233618,-16.786380509999194,-29.593546678587554,-38.75991004386174,-45.32213839946874,-50.20056576906759,-52.96480096995156,-55.714518384542785,-62.2220932197222,-70.74155858338949,-77.31795758783291,-84.13150385677764,-92.53426637753427,-88.80615356103394,-48.65809509057052,27.398344323765166,99.83751202756801,130.63634865823636,122.65589658764559,104.94756472104655,94.0527767563553,84.25873073322816,68.73207896490223,53.19743949008163,44.286900453127416,39.253204801524056,33.787172727997316,28.082253435988825,22.351476828660605,14.781333126779565,3.9465788952769114,-8.198892415645973,-18.487887534952897,-28.771999532625323,-41.900457962388906,-55.70092326749532,-66.768683824652,-75.29715133488072,-81.99065890846451,-86.77212151120283,-91.13665942433266,-98.87323992937344,-107.30356996285923,-94.83653130987308,-39.60783419451766,39.67839529587612,96.47147752963895,111.9174336432908,101.80750897963091,85.37873764939118,71.75675841682995,62.24695497660773,52.85338757308002,40.531035706180326,29.27353282893417,24.393504521878572,23.17779294882037,18.801993503116154,9.994972124556826,0.5300827958926757,-7.449177645042453,-15.384232465117039,-24.844822779046602,-35.54175650866388,-45.27744519953578,-52.85713466309505,-58.73160140621532,-64.29546705731353,-70.17716475579745,-75.733884787877,-81.0678187291509,-88.76164601413872,-96.05885023611367,-83.82497395332221,-33.133850916353374,42.89512944104713,107.53675077140191,136.13407303927016,130.30039171863103,108.68037937062557,88.55527597650624,74.85818274789091,62.35619085378427,46.98815182748067,32.38330206542708,24.711757719431805,22.901545257577055,19.06049971610988,9.262851151786446,-2.5721881018780324,-11.341743519311073,-16.41377004753713,-20.812782094431427,-26.491521920634888,-33.135357111255445,-40.72082025718617,-49.84113530186923,-60.10226992428036,-68.58150592203536,-73.01389475611023,-76.22639914264794,-84.67678923511626,-94.08770499794679,-79.1801211791624,-22.726807886320863,51.96138875122494,102.44221904721296,111.6442847750367,94.54163400391572,72.96960575537769,57.08814322651012,44.10167131386853,30.3993137724567,19.14245772234318,13.952873009262667,10.97589261399546,5.337775018596448,0.030481739687318585,-2.4699457544763903,-8.471403948902452,-18.875667439108387,-27.26465135211256,-33.80281380714549,-41.31814680203535,-48.34997746056867,-54.96713195235202,-62.485585634943426,-68.25214858093639,-71.62533518064797,-78.08660190482303,-87.05307920357001,-78.02269496192027,-27.582220967138408,50.21780456044927,109.35216879372555,125.15459011515638,113.41593038770758,98.04753431286663,86.494885275599,75.9709504394923,62.04591291343014,45.026351450607585,32.393749690497934,27.891918941260386,26.300723305736504,21.614294797643318,12.57054864759209,1.0742450035867408,-11.07098230559234,-23.135285588601196,-34.24978106027969,-44.54636805884874,-54.213219354026485,-61.990386619730735,-67.9460136744598,-74.20123045362416,-81.44941182358244,-89.10979674276257,-97.87644980537684,-107.12936748110025,-102.55022873413255,-59.62315804890687,16.40827636574714,82.76141433281421,109.37072263963178,104.6810320756083,90.63093020553717,78.73296308369726,70.14301452822144,59.43595746829882,44.34701307836069,32.850162397310996,30.604626297486043,33.030575253660245,33.61761618599597,28.611745492555922,18.407014258369717,5.441765627077682,-7.793443936505053,-18.507548010046403,-26.301491169504168,-33.05102022790608,-41.23359832544967,-52.28241634712474,-64.05146886055499,-71.82664214540543,-75.14323651801043,-80.72150446195872,-93.13589968101172,-105.55682730224548,-96.65235161825657,-46.712258835688544,32.362800726514074,98.89614245972197,124.00493477578846,115.0262507024859,96.39972751907828,82.58596166602518,72.01991385527955,58.84288244119651,43.29680017807588,31.1227304347934,24.929597419818176,22.685525455558167,21.187608758526228,17.538337243779754,8.872876143903941,-6.563332415122438,-22.93579637102479,-33.05539212351279,-38.40592119691621,-44.739278931191755,-53.37454948459257,-61.90123478515134,-70.86152932760729,-81.11080056344719,-89.48158539588489,-95.29573394619888,-103.20089261368169,-106.14083367248982,-77.65209395874706,-9.08494728438877,65.26442853722989,105.71814864716956,108.73068690835848,96.6399426642993,60.0,103.0,66.0
-83.55539220236682,-87.93140854196147,-92.87825133085828,-101.80603883491573,-107.19621880117828,-83.43881222124462,-17.141523600322977,60.1098386457058,104.87496617569967,110.60791694164917,97.12167394253636,80.97374024196155,68.69007745383475,59.75530617573271,49.555531049963534,36.852290645822855,27.145387398708532,23.991431106277417,22.44507644104963,16.58409151484,7.151566699255432,-1.906909207689455,-9.6525963952665,-17.92903245061364,-27.886621631615203,-38.54916792422029,-47.69036411764449,-54.67941403684071,-60.31000873085133,-65.97715136030537,-71.85309091215416,-77.21971397339601,-82.9351355071986,-91.43226961447607,-95.69227280108763,-73.31196315017074,-12.268693004050974,64.2999804402689,119.91786276754269,137.32480911536305,124.74323978895922,102.22572894663422,84.06122469993443,71.42477504104852,58.19495534001889,42.373022677387944,29.304191943000035,23.886863432811747,22.340046437875696,16.77940883893853,5.779234090374533,-5.5536220926728745,-13.084243867315108,-17.610215521176958,-22.315903683282045,-28.33213689704224,-35.2090826711804,-43.173659210195474,-52.77441583402968,-62.89876158659517,-70.2682791539932,-73.79087376184985,-77.92534913394546,-88.09373982509446,-93.61347164473861,-66.92703309548624,-1.072024061730691,70.5331185502511,109.10623163247686,108.34114702567993,88.02055448488221,67.7490565300187,53.30600688615294,40.19448626117669,26.64527615946442,17.03670099317453,13.182156737701613,9.643092208456514,3.4994087556144793,-0.8108677013477182,-3.550391321472014,-11.31164116537546,-21.67993801025714,-29.15165459753506,-35.88012475451359,-43.483420428214714,-50.19959603679046,-57.09419935879021,-64.48877011557616,-69.30275397517657,-72.9183001754112,-80.9167919148321,-87.63510737402714,-68.04599874026127,-6.075794842377892,71.15185199279254,118.26727751758668,123.33436977470703,108.68272573550962,94.36219692967882,83.54843552425636,72.44751511099767,57.19494915330626,40.57380671388859,30.362137894991122,27.471392809949148,25.40865950054237,19.399905215171582,9.391061935828308,-2.4060697866892924,-14.601864304231606,-26.46920217106239,-37.272507716934854,-47.443679566258844,-56.709517226229536,-63.8146146259278,-69.64340764550373,-76.22021032682667,-83.62696568094475,-91.45919011565105,-100.74447171749983,-108.37464433535415,-94.78752226133828,-39.55600080067439,38.62004593009971,94.79374491509324,110.20282575135975,100.81643963970706,86.77140164252512,76.0594198766248,67.56140125544468,55.31958054237017,40.21122315335225,31.300411052100632,31.158977678963165,33.60991164963346,32.820818030055456,26.079646984149857,14.855495868447276,1.5025214665548272,-11.222500578695762,-21.006825656658755,-28.246981247910714,-35.164597375164384,-44.14372741341831,-55.80589595989165,-66.88612168180262,-73.03467609957734,-76.17729469848882,-83.63470896034497,-97.41923950087323,-106.34889408638188,-86.7069190638707,-25.29554468819968,54.791643656883195,110.72143542895282,123.8782432889688,109.64902145160536,91.75222783006605,79.49858317903607,68.63091745032636,54.37983915420039,39.190906581713236,28.7651644656908,24.005486587601162,22.323882873229817,20.460280756541508,15.70577802969636,5.019228624628392,-11.620603502672324,-26.618666528158705,-34.82423417483833,-39.95072620887298,-47.09504897148982,-55.916829276149855,-64.33317519839352,-73.77946909885699,-83.88003726041804,-91.25593280167155,-97.23504289135555,-105.5251195154128,-102.30440181545676,-61.14692189999872,13.971890137518987,81.39301752363957,109.6365677003182,105.74373326053947,93.11261573053542,83.31294239055464,74.7281352167772,64.42554846443431,53.3022151117283,45.09100137459158,41.633101155140565,39.61913777051003,35.840659900502985,28.428602300004513,16.343060569414487,2.795240765006157,-8.536740589870975,-17.811145982326607,-27.1697565349963,-37.63574132807082,-48.380185326973866,-57.50393808518731,-64.18064245695062,-69.85225742353967,-75.72223896900792,-81.91685537026999,-91.76000862569708,-106.1497643424233,-106.58074374773345,-64.77058880680096,14.088104724031815,83.65461362402077,110.75646343356678,106.38207596576173,94.72004349387134,85.71997609911499,78.09258429039863,67.32829721585207,51.99352802181732,38.401285211162836,31.841966216014,31.008779829608013,31.061074522993085,25.80945940918998,13.22867839239155,-1.4211276093410665,-14.566571055897242,-26.51001223925387,-37.36506823056132,-47.130398303851784,-54.4868071679936,-58.25171786573058,-60.66526035540154,-65.67686415609025,-73.93006806419248,-82.42252820999278,-91.92876345661045,-104.34777967761244,-107.77847291068652,-75.62187409053624,-1.3399119272007298,78.26839656831457,120.43668569203356,120.67460049352405,104.05225325187061,89.85278167253384,81.36777548862699,60.0,103.0,66.0
-80.24235788236155,-91.27978058112471,-90.30057458419402,-51.08357494910072,21.097910435562635,86.0886152450403,112.30430406297862,103.4233933227063,81.6047975834539,63.092460902608885,49.605660419727386,36.19971767323609,23.238161994741425,15.477876400574138,12.415445705243275,8.023971943431404,1.8545459365999666,-1.4520575253627317,-5.141643113567955,-14.39306535344648,-24.16606924259504,-30.990840834260773,-38.06469518259846,-45.54077482426668,-52.069792753125235,-59.29988437895188,-66.23842573053108,-70.20983587738122,-74.65187553048428,-83.80353931538005,-85.97981453880077,-54.18552068035347,16.85176246313566,89.2966054164874,123.41606950582597,119.91274162915434,104.11111422440734,91.00055783026062,80.58547741197552,68.5259249590773,52.183238159838126,36.71629915896635,28.998445210639762,27.099675996490774,24.153947015392056,16.834961787221616,6.072677222117649,-5.914867104334207,-18.10992091037023,-29.700994966685684,-40.2495440651463,-50.27593745329269,-59.00630883429315,-65.52230924856336,-71.42201483541349,-78.31200467728203,-85.82494509605787,-93.94282963763608,-103.60569542545815,-107.89564100910218,-83.23402887932086,-17.357553143243443,58.769644438884356,103.16287696005621,108.9602599487589,96.66162166391881,83.23947967621976,73.617239274457,64.61158834212621,50.890455984249705,36.651507226456644,30.552231476709935,31.913480617890613,33.90455540818709,31.489911436365627,23.176098829245188,11.12041566504043,-2.3831391810967117,-14.385022937188252,-23.281016953570667,-30.16643936598918,-37.45828621091216,-47.308134117828494,-59.29459608120581,-69.25962739864683,-73.94535736151136,-77.6128343464787,-87.16153658320532,-101.4028391609468,-104.69694887737174,-72.99854862231936,-2.1580585090139714,75.00489081534312,118.72552085932297,121.41780253879138,104.08313368832542,87.67204190598513,76.5244540829517,64.90176704055767,49.810802022220045,35.528800216600395,26.899042541610854,23.344228348767828,21.93901765747931,19.497629824611355,13.36670538146979,0.5963006737188243,-16.517684610244032,-29.66227057070948,-36.32917618221353,-41.71031953974793,-49.605696232353786,-58.385480080001514,-66.87074134253974,-76.78122042542086,-86.38473459954183,-92.87173257324422,-99.50274358829756,-107.02202505468755,-95.06523380427898,-41.50088027383448,36.29449695399093,93.94883813859036,110.76675630735427,102.13466889915566,89.91564393175062,80.89950051365463,71.96049915673777,61.163585251604445,50.45341813502656,43.674383082825486,41.09969790981119,38.784225203272,34.170334971843644,25.35833181174866,12.363038622434456,-0.7762706796576171,-11.334488172474959,-20.427058221439808,-30.082418637706912,-40.790124869899884,-51.26076891934913,-59.65544520028571,-65.83413109206676,-71.52806825841219,-77.42672481757585,-84.14808213952688,-95.79745536552143,-109.0943369513143,-99.60568430292102,-44.207301410500946,37.41855708338858,96.08210366895295,111.52691614544852,102.9995692810282,91.78429705417949,83.55378100848354,75.50513105982596,63.204210841259176,47.53152109838622,35.73310358152479,31.187692006191465,31.198503196185793,30.334701112968588,22.78118693911584,8.93916869946257,-5.387957458511009,-18.12093182573653,-29.75814889571549,-40.31684157063595,-49.600218700394485,-55.91381560688783,-58.91146745710565,-61.70677573043809,-67.85127325877053,-76.44438147640133,-84.89608003627872,-95.34549225661989,-107.33486616350339,-103.21468103339757,-57.58485510492127,23.421626299081357,95.37509644274398,123.93670100602964,116.41767216485023,99.3062787152581,86.95576214290226,79.31555282906294,70.45644741133778,58.05130871310761,47.34070768633394,42.23724614598355,39.585720449523876,34.04022134839848,22.49950641535939,7.424606283918478,-5.784091071002372,-14.908590811486613,-22.31307656367901,-30.706972586715512,-39.64391703846944,-48.38341624515445,-57.476675463142044,-65.90954086708622,-71.70931489780156,-75.84590160182401,-81.72976312691145,-92.6304226733257,-106.63103007439712,-109.09690213075564,-75.19582753177608,-1.5530087579751473,73.26091016249305,108.46099350734394,105.7592381309409,91.73472451186423,79.88033997679817,69.10741310885207,58.01906754615984,48.28812294856373,41.52677650142632,37.643157476292,34.691725542496954,31.021331793543045,24.828690102431835,14.787628567985339,2.706722743010697,-8.274838665050481,-18.00650083962903,-29.722142966737003,-42.454887927553784,-50.33381689886564,-54.614822914138756,-63.04171369835955,-74.54586057233428,-81.20348550894707,-85.49267104139172,-97.90470181947401,-112.29085263773563,-97.30947942674949,-33.38991501640277,49.31964110874916,103.00328766333774,115.89769883427493,106.81186893931186,93.91441609587625,85.27588887203969,79.81606955961465,70.06189195577028,54.757519154874714,60.0,103.0,66.0
75.98035374973125,108.11572650811335,106.26041106530175,92.49847732967048,80.07210292560771,71.25573530651826,61.18434047710376,46.379037735718626,33.85417532240001,30.46890384138332,32.69861538613067,33.81348621062761,29.632947690402602,19.97080444434167,7.252271252901058,-6.1315248577114065,-17.269529123316627,-25.37825000961699,-32.12132711115113,-39.98246344322497,-50.67931251494075,-62.61518664120018,-71.12910709176529,-74.74919898396392,-79.59668184179517,-91.17845711992629,-104.55479594356768,-99.98832730246836,-55.73410649019078,21.562853729904283,92.17010669864834,123.10085550394936,117.29937738432551,98.72555609458226,84.09828486112515,73.48562641959936,60.82539238537749,45.30444481002375,32.38790004334492,25.46407322595483,22.86699177322055,21.458504930826827,18.238809398661168,10.437009483889932,-4.24698778048377,-21.03159482199098,-32.1045295222426,-37.74191230041177,-43.725512520596226,-52.18519276861536,-60.79538693128151,-69.56387166516579,-79.76887809355904,-88.57613804698302,-94.49500193345064,-102.022955271997,-106.93752525140084,-84.03593680037477,-19.61682128429432,56.737297862825656,102.82242091354502,109.7433965895114,98.35250747580987,87.05191648276183,78.4730985107284,69.01270040548141,57.890761023319484,47.95991322125453,42.64668606154459,40.566221520977074,37.758382839597154,32.140620536739455,21.901055999541992,8.3850019143212,-4.102491760940279,-14.00581383488459,-23.101275733632594,-33.09525165522719,-43.929498820090004,-53.95637795789605,-61.60480618357885,-67.4579559224713,-73.2282039834631,-79.15945832807975,-86.83006007474896,-100.14578025363699,-110.15891047487399,-88.46327573366767,-21.208925780259182,58.58469936626547,104.59856017241435,110.31499452985275,99.51623836661962,89.14522177174555,81.41452384615016,72.5269454039162,58.74005576048517,43.431383480388824,33.71366369477488,30.926210386896912,31.326461798397062,29.002916529204395,19.179619056557755,4.649932618343826,-9.205533643096048,-21.593341815371225,-32.911350986253446,-43.17955509038973,-51.81198230366901,-57.03659696331402,-59.54804923492087,-63.06510032206968,-70.24778640372836,-78.89965886331436,-87.54326842727548,-99.02210959916279,-109.06681878050031,-94.95149379978987,-36.28257531947324,47.33814663286032,108.53563041360594,124.29504788199804,111.47584397235543,95.05204951359539,84.49091936489867,77.13530591339887,67.11382202712332,54.474998405693306,45.32368854557012,41.45922526703446,38.4959046483893,31.32993964521759,18.262896184706463,3.224037213390961,-8.80811712082528,-17.05346855567252,-24.604666882247102,-33.297487731321446,-42.17224403900511,-50.96440322275133,-60.09245365341262,-67.88111120884037,-72.95290992717109,-77.18805512264204,-84.29348125305224,-96.69495232533495,-109.58927114648588,-103.96509948583117,-56.979016017644604,22.264235871605717,88.33925424649594,110.45127620456336,101.85755138088318,88.00409500762252,76.79250442451546,65.89504894119729,54.97448943734012,45.9908354343772,40.17510555646507,36.78612493785779,33.7655472928829,29.590496365398586,22.306104712052218,11.358433859341154,-0.6781528649626739,-11.09459013716323,-21.073047226827665,-33.55072174127152,-45.40319439119849,-51.59431505753704,-56.40231303369319,-66.42448301959699,-77.16014992667112,-82.20430430781305,-87.96809178951746,-102.91396660077281,-112.55524916182432,-83.5293108538518,-9.033399007758456,69.22526276017388,110.35356573531541,114.53426667127216,102.9480349020396,90.84755805654933,83.6592394183987,77.73374370372805,65.93142777229026,50.50749618608151,41.218460735537555,41.949096764559805,45.449646821355536,40.00687992288662,23.382978725713386,5.076278530287539,-8.130736281413087,-19.565501497571933,-32.42551718722835,-43.58191176291633,-52.91778581262158,-63.57629970272024,-74.4075651374363,-83.91607556378287,-91.66654736346047,-97.99892299537586,-107.25611479862968,-120.03801468011248,-123.13094414940285,-90.76255965252227,-16.03045351862228,63.442516716029516,104.13965652997778,104.08534858684646,92.06871509719173,87.97478598827877,87.41388446135767,79.97328085212638,64.84232998207625,49.732279476900466,42.29362971261275,41.71386905920996,41.562905348303445,38.05916199702893,30.499579738119255,18.47032363553244,3.064874537511387,-11.313294389520157,-21.55883535642934,-30.62170776641948,-40.753181168096766,-49.392111728744894,-55.89330429936478,-64.06992658667274,-75.20527789739133,-85.78360819172576,-95.48950070616475,-109.82064169206448,-118.93330038034587,-90.34553168738599,-14.400872613232258,65.83038048655543,105.44277777483649,107.04644766648249,95.79492506583411,85.34540931811601,77.68368376517284,68.97310227007021,56.18361645169401,43.75183550268089,37.59205809110282,36.7095644192955,60.0,103.0,66.0
94.70151008006845,84.4520955781272,75.94473734823971,65.90287058461259,54.70810323265899,45.89215415498205,41.909022017144416,39.948519951451715,36.50648123225848,29.700042346703583,18.1442042295638,4.517646303471275,-7.187485347699511,-16.613828445995257,-25.862548095894788,-36.18973566502542,-47.00129554345464,-56.436854920322936,-63.39455872870232,-69.09040483739437,-74.93606983707024,-80.99910857407235,-90.07010661339223,-104.39037151616967,-108.48883850712599,-73.1425391191597,2.94838241027173,76.59612922876101,109.53472084543493,107.80743272623816,96.17473064796066,86.75703405285346,79.18532268910253,69.08059741488438,54.11798549061794,39.84924046692587,32.304943281748955,30.942365941594897,31.228827835263367,26.98055774584674,15.166712343518421,0.4611065515296278,-12.898519322003516,-24.97988397324576,-35.9779320859618,-45.92096027051002,-53.71835354072338,-57.91093761661618,-60.2718509716838,-64.7740020582384,-72.76061387131126,-81.30986025304526,-90.46764393173791,-102.73103816541355,-108.79401776847999,-82.65682094971237,-12.672847973714315,69.18228973483129,117.59761536939565,122.23160427370014,106.36173468438868,91.36298861680557,82.31749129302622,74.68581950209577,63.499648901868056,51.23058819703904,43.793737721373425,40.75759227751979,37.03430601611604,28.082284554497893,13.854937958906614,-0.6935960983687295,-11.484682398262178,-19.154153877758766,-27.014981145412676,-35.89397581065445,-44.685418640268054,-53.59365033765405,-62.59520044364883,-69.59951315909609,-74.11539481141318,-78.77474947628014,-87.34171678371075,-100.90397606754725,-111.06344500648459,-95.14465664470438,-35.76992707696726,44.86264036876812,99.39369965444786,109.81137155926295,97.67212862780427,84.55723102260245,73.70527010283624,62.66392612278243,52.099396337986455,43.971062887332586,39.037941051081184,35.94996599992681,32.75107144303884,27.89122746077954,19.45214827966739,7.835777188261028,-3.8969733107537783,-13.856667549973263,-24.402002290381418,-37.35065496774495,-47.79661498991461,-52.71387921208484,-58.72514310194015,-69.8867446520451,-79.18771795559614,-83.2349260565885,-91.3850319253778,-107.64830750433636,-109.40630036151646,-65.55192642853991,15.613457659294179,85.69799185811098,114.48881680387797,111.92055756701475,99.10151353642242,88.25186860953863,82.18392018281968,75.08166463256053,61.438083153529874,46.81858235730643,40.51989900324575,43.22426825107801,45.18051597358194,36.0638333876091,17.773585152103358,0.7318501614736146,-11.346805623019026,-23.200674956106415,-35.97457545886446,-46.294791213290615,-55.8244754765505,-66.80556164076019,-77.29460448606355,-86.38166123919599,-93.50745736491,-100.17049706558424,-110.84357130182369,-122.9604215170174,-118.48862026560796,-72.63448054950888,8.841285866186217,80.1982161340239,107.27791767422255,100.4966760887444,89.88253594138077,88.01184313372845,86.22302508683309,76.15806534305644,60.039168711231326,46.64067517320044,41.68185149002847,41.88859499181804,40.945775899172325,36.31227462530421,27.48887763584502,14.228911230007018,-1.4322890908629993,-14.666045556098776,-24.096943018398466,-33.494312825680076,-43.542002192475046,-51.35807458370612,-57.9202967686517,-67.08008412606553,-78.49350640520532,-88.45001960193649,-99.0486379141663,-114.20387239424366,-115.94872538521585,-72.20806393203235,10.97999667050962,82.27102010659782,108.68320611891173,104.20527288393055,92.45481242303426,82.9400462879496,75.50737101887589,65.65063738342315,52.213006707808425,41.22018060584039,37.02344503877739,36.589066033306885,33.97398082510728,27.1861090074608,17.105455944722134,4.167919062727386,-9.599940295654196,-20.987306334791406,-30.663000927289193,-41.3610914021475,-52.63465108279418,-62.00677802874672,-70.72424304331638,-81.056168242428,-90.51652918467921,-97.63202355947317,-107.09822271645812,-114.03707340853106,-92.50095410928441,-27.072166829422294,52.94458177156665,103.65259424754593,115.48771300525222,106.59891203226205,92.97188979763526,81.07372027579687,70.05199630716584,56.11764349455615,43.303463729121205,39.437036992347416,41.905648147470025,42.70610634277574,37.99808508663767,25.677492211251455,5.250485176091664,-15.978736745125541,-30.34740217701556,-39.42996159858351,-49.60691090782488,-61.82504184578614,-72.19339746937499,-80.57771078727657,-90.05132661242693,-100.21818240549163,-108.39990764153936,-116.3661722322726,-116.43495031402287,-80.77879239012968,-3.098243621832687,73.3793507778484,108.12347882494795,107.46040162693959,97.6111140563726,91.12673475663095,85.86927721538052,75.89702396267401,62.16164704824157,53.003032643408545,52.93677632221628,55.1216865838107,50.18575868452458,38.6588815219209,26.15188187132267,12.728440203118083,60.0,103.0,66.0
80.26767837718614,71.87894469047374,59.76370997529323,48.448171148570374,42.659665419888356,39.99500983827064,35.105428376289474,24.353627253520088,9.430096614604134,-4.263944325235772,-13.876908504528156,-21.295514400836527,-29.525390356307643,-38.468198864667905,-47.209139549081,-56.25238726757057,-64.91593739356249,-71.08804228234571,-75.28142496633706,-80.70276517273689,-90.86388878738785,-104.94343728546971,-110.35468571002335,-82.38866690604418,-12.57566088392748,65.04147111500004,106.45520882327337,107.3222555867414,93.55445507898256,81.32457581185083,70.57199239191863,59.46599034983668,49.43556945275197,42.23469539376329,38.05852989371929,35.09788861203674,31.60682777630676,25.874263343188762,16.312834201385677,4.309778974437062,-6.932366108726269,-16.66532879939928,-27.994405995379694,-40.93007448570219,-49.6417855623187,-53.94439193133516,-61.577710645615674,-73.16381375056964,-80.6658764885799,-84.6342179678096,-95.69127423118788,-111.26319680411812,-102.15137539882116,-44.126986501368364,39.16734837403405,98.41188203807356,115.95539778344228,108.52866884406264,95.47242346363578,86.1211227446041,80.6262825008913,71.78920159078089,56.83676637272123,43.890045649336244,40.64975086591893,44.44685207159421,43.89028015809037,31.287237550180482,12.326918340754615,-3.1280347391421244,-14.580437942224068,-26.957526853630597,-39.263814476888484,-48.93941026776223,-58.89533577312738,-69.97352880265778,-80.06828397008121,-88.67273813383177,-95.2738022316605,-102.72726180549603,-114.65844941898001,-124.58176840712545,-110.17186370988311,-51.19954262482525,32.76518004319713,92.91280997479859,107.45443881481268,96.73542771867399,88.59052705603665,88.03438898799206,84.26240889414085,71.7908196776168,55.48441590680701,44.32581163426375,41.52091980854897,41.93145535516867,40.01050034721701,34.21697269999209,24.093547983025253,9.75970628489075,-5.700835292607426,-17.653460135344698,-26.664104505082378,-36.45271018875538,-46.10934591774316,-53.19416181302525,-60.19854822523443,-70.31197815986917,-81.61147671954673,-91.12798211245382,-103.15945361857861,-117.61789463085833,-108.87461289169744,-50.400595117568066,35.20415610301183,94.587052601018,109.314556884576,100.87522578527818,89.3553331636932,80.74184931237735,73.10599744139928,61.96513013444807,48.46444642952321,39.31169338476543,36.7916540642874,36.250612645485276,32.40861480252429,24.58438737934394,13.631475232704297,0.10820378131608417,-13.200748324660102,-23.823593809857798,-33.580535697470225,-44.68575393343558,-55.58067175296072,-64.43430943117681,-73.56132226416969,-84.06552897434453,-92.67394790547333,-99.94219471436925,-110.196978459362,-112.07644567204159,-77.68587672407676,-3.234752861073375,71.871877991426,110.47199749010663,114.14959835258205,102.70324297910439,89.2699590547429,77.9911805700408,66.37322082610014,51.86249014413857,41.145742880285596,39.87204904447892,42.57924987164938,41.980367514676985,35.343949694152535,20.4374969167681,-1.261102328853178,-20.95536466509585,-33.228755645366796,-42.048877599149826,-53.09358384934271,-65.13090654270216,-74.68592138854491,-83.11315213589909,-93.06638651448418,-102.79678198191553,-110.63777375795976,-118.19786140175592,-111.02526543682497,-61.49266370208394,21.627916335229983,88.30134085647732,110.36186428474936,104.63873547942036,95.29305463826685,89.77756891309258,83.6267430372381,72.01468958505595,58.658801840364404,52.14593825336052,53.84742609617044,54.63281409000746,47.25248221013654,35.0074499527959,22.511707451581945,8.237586495855982,-9.331234841132853,-26.361759452771743,-39.061708240526976,-48.886570236176055,-57.2926437917088,-64.85867242340193,-74.06635870428356,-85.22151240310644,-94.98719571948224,-104.41022512845363,-114.25156846826256,-106.13637231178762,-54.88324352333811,25.631336048422224,86.2750505491301,103.05375048704242,94.7767635708078,85.39713452056388,81.21510299136214,77.21797968889307,66.73954534226546,50.823196917089746,38.91290767450614,35.39106650480076,34.7865476651045,29.86831784033491,20.060893896037275,7.333207822868189,-7.479732818229033,-20.52903950135899,-31.35338672531133,-43.81996822671343,-57.10444453405732,-69.27976972352558,-80.68544337549696,-90.36225505533608,-97.3455746556066,-105.68140046092842,-120.17240885794354,-127.83748863963176,-99.14001511397528,-26.792542161701714,51.826779980635635,95.25192671771303,103.43482852561557,100.51065924754955,97.90389949744515,93.7497299168065,84.66118430428338,70.6818444566132,58.88622114992382,55.446850837643225,57.30894606886575,56.321534966491534,47.46311862009423,32.288686886922086,15.00995357993662,-1.7974897880390464,-18.586199749115018,-36.421806108333506,-53.732863400131805,-67.12595428937612,60.0,103.0,66.0
52.411629015939596,41.84723270292966,41.43381626836212,45.28224665133809,41.4863996972365,25.948850291886647,7.253363424272623,-6.610231142785738,-17.94979325459433,-30.722996197412765,-42.275193174432275,-51.633449609793395,-62.08548874614784,-73.03616571720121,-82.7301344318592,-90.7663076549877,-97.0974716161252,-105.7263314573134,-118.4253097505337,-124.1930657799294,-97.82704524113511,-27.432802917124757,54.47198689297813,101.50402817408849,105.48151107875222,93.37473097902371,88.04647511151612,87.73266139797747,81.50307787485127,67.07191685874837,51.40327418926119,42.77403659080931,41.626344126683264,41.743979075527875,38.750859323115876,31.758837106787112,20.324847835482352,5.1777394209748415,-9.632422280382988,-20.366498607836984,-29.340863089244667,-39.414159925762334,-48.41517628076589,-55.02032520897135,-62.777152340740024,-73.65864713445711,-84.5131356425306,-94.02331953313231,-107.68763728475693,-119.14088124646014,-97.25459700999892,-26.07325470261132,56.93763916141036,102.87094739999749,108.06761758882321,97.38973764036216,86.5434701278078,78.64859473376028,70.36819373335437,58.03292277895833,45.119124360986135,38.008143342896105,36.72926544471329,35.59555381096377,30.504739276489694,21.729341846898397,9.921768091629309,-3.935181919782334,-16.538832327029425,-26.58530215200719,-36.64334995380133,-47.997176371413175,-58.3161651044159,-66.89539812065587,-76.5555596298354,-86.88515383223593,-94.66933702015716,-102.61747793031827,-112.75489744300232,-106.9151567719517,-59.17076952744691,20.628300314350273,87.43566664860606,114.26629850409458,111.6171289345141,98.69895311322377,85.79171061884091,74.8923329113804,62.365147613324204,47.93198963326028,39.872138112241494,40.645026721893174,42.93357365928161,40.75949628483633,31.97867493841678,14.563009295511192,-7.575725792150781,-25.238924393281494,-35.808302652309344,-44.914646251728016,-56.678654238243105,-68.1871184518175,-77.07239520108773,-85.81596230322829,-96.06850218936282,-105.16063264553122,-112.97492269741885,-118.95018898923873,-101.79663317206953,-39.05236226994853,44.786186047907954,99.1429264990746,110.26296114291631,101.64876086669511,93.37196538194661,88.37779395702636,80.86013598792778,67.94740617239306,55.78083108128851,52.06031767200661,54.66596873200414,53.372041660190575,43.909516741715294,31.3899048660301,18.720939839366885,3.425517573642109,-14.560812254157815,-30.493209245495756,-42.07556959311894,-51.46284780494937,-59.48173083352282,-67.23853817953875,-77.22123182838294,-88.28302392017908,-97.54068420105867,-107.54758730514627,-115.11439058236063,-96.20887235998615,-32.65756557932511,47.21197572283714,95.36699628059566,101.91556697372687,91.56827565355383,83.75681596885568,80.38149910088275,75.03343933051542,62.347379113729374,46.570039382679965,37.125930354300095,35.30612834512233,33.979352723015914,27.412280279409643,16.668448331584493,3.151352883226217,-11.606208442948317,-23.703013322400327,-34.704221948760335,-47.719096180422554,-60.73184479972379,-72.65418856261692,-83.74497164959918,-92.6060949360956,-99.28497875306262,-109.31551294289727,-124.31119518980285,-124.43242568601273,-81.79945677902694,-2.395877293192503,68.88840959101951,100.21330378956247,102.83066584663976,99.69758249775376,97.02802382368178,91.74435035444309,80.93545776820906,66.63533359652945,56.996843289743865,55.77086127935208,57.6663888049197,54.60521185686779,43.5499248498218,27.337629475173372,10.079883715902268,-6.584546562277961,-23.63230035147186,-41.626971360292295,-58.13441729338902,-69.96958445699087,-77.14696430973804,-84.46468721863471,-97.49022061016572,-117.64643043632071,-132.0489832703697,-110.91748916888235,-42.68846606371465,38.524764613315945,88.87636341756142,99.11713021429735,90.42712364482453,83.8198281655576,81.03111417230869,72.76937309265415,57.82500032550447,44.57502517545866,38.78202953685403,37.32206230558183,34.041751569933396,27.77381371518354,17.49871408023158,-0.21114592028899434,-22.100342625511633,-39.49253822621242,-51.491377478799215,-64.81684121157599,-82.61478647671291,-99.6299797290673,-111.4716317423747,-124.40275121501395,-138.6344977124836,-124.78709918837966,-57.40809600631455,31.604333513642946,86.96809007862589,100.04858645011741,97.775479115055,95.98616207734938,93.98172965329405,86.97318069320765,73.44196164487228,58.45735878893755,48.552482972550315,44.74625139842031,42.663885314505144,36.30564097233826,22.79773204683333,3.870815028607128,-16.914751937109862,-37.59516844973436,-58.3583365338503,-77.69350321458555,-93.91302977047049,-111.52541201134383,-132.20497246596187,-135.84318602057348,-92.61167083966943,-11.123009971570589,57.846905282036325,84.12649769727803,83.46328066557116,79.57950724949785,60.0,103.0,66.0
36.664045578853255,34.572828894715876,28.29751313801449,18.622823054088112,6.016330279522097,-7.857396457724779,-19.63085533237218,-29.358938847992697,-39.84703794967386,-51.208556102062616,-60.871086032313876,-69.47728152997622,-79.63581929111065,-89.43693491839909,-96.66282759628237,-105.63797806029667,-114.07110864957217,-97.97882693094304,-37.689620667618065,43.24614735584153,99.36748875893505,115.56991186779094,108.29943348938477,94.74605149996053,82.52432499088293,71.63884766455122,58.11251225242873,44.588833704657695,39.41424029892279,41.52363371204246,42.88131998650451,39.00398199878562,27.845338425086542,8.245245551663544,-13.460082477120109,-28.86738942127762,-38.277880355885614,-48.06547860078713,-60.231346797692964,-70.98334511854007,-79.45437907702753,-88.68450698201593,-98.95263775662389,-107.3869406452561,-115.33712650764934,-117.82609109119106,-88.37686085277493,-14.633441968653399,65.16752245544619,106.09626843891763,108.57942685146386,98.81219327098246,91.78197965917654,86.74537110280049,77.57002175333555,63.92890328851442,53.68371373564329,52.56950256004448,55.109222819442564,51.34937904209189,40.33882450616879,27.80598816914688,14.68839870388059,-1.6533902634333446,-19.59749792191865,-34.22058316939973,-44.92831363378155,-53.92047963775622,-61.63224574786,-69.83429167761051,-80.48869476322133,-91.13668285932256,-100.18136399188921,-110.66193003603266,-113.75738981771606,-82.17565100736286,-8.905575899767452,65.82301918562167,100.73087150300447,99.43895759555986,88.70103788577671,82.53492657062957,79.37992140495862,72.16249692839949,57.65042399622971,42.91570633947008,36.03749962366645,35.250747619778906,32.67424493834172,24.615800894485986,13.049906810124114,-1.169218904378338,-15.456149588090172,-26.772094147486754,-38.27671396077691,-51.598750607361445,-64.25790502278981,-75.97702535238682,-86.61153992504413,-94.61991493251173,-101.513037825915,-113.53470221809926,-127.29559099003862,-117.2055670455966,-61.07161159912091,21.213204088885377,82.26614202977291,102.71567173993031,101.89621914473085,98.97381318653966,95.93081890364913,89.24626608317854,76.86146058237661,63.016136865453944,55.87659861855998,56.37617051450846,57.569636123798794,52.17959422240717,39.1988063461922,22.318681246535085,5.218292708907669,-11.404775960364,-28.78411202775147,-46.71228452170262,-62.12516699167242,-72.38606106539059,-78.96522016310969,-87.45877049733507,-102.74499508912122,-123.54733447672795,-130.88658013430654,-95.3326380149064,-18.26943405927549,57.462038742940386,95.35385819032972,97.35597429222048,87.82846789598895,83.01082598243536,79.52211927320576,68.85523412689058,53.41647348417509,42.11133975484496,38.22810675292932,36.72085964925549,32.4989654361233,25.38356651721148,13.2055746269295,-6.5062190306865135,-27.85220038518679,-43.272510241692984,-54.90555124097249,-69.59995379308825,-87.95580479474495,-103.50461695043941,-114.66999967811802,-129.1056712897335,-139.33654158735234,-110.64540688988188,-31.14806593688788,52.6148908896885,94.0748279970773,99.8378265552327,97.05072549292788,95.64161330845437,92.65119161624528,83.62711732158209,68.91821109648824,54.90199375729696,46.93958598735777,44.24692227739838,41.48431858758361,33.135313385554966,17.7302762243242,-2.0853981798572088,-22.9096121467437,-43.58678365406771,-64.23340304643791,-82.63130668437678,-98.54741298922113,-117.56020531402767,-136.50486977889688,-128.90602146889637,-71.12798182397162,12.384483788849982,69.78039599994462,85.42369773557648,82.04198138866138,79.14685337246405,78.06190087803036,71.54205542759586,56.332247688437796,39.042993462491786,28.882098427686557,28.53067365955866,30.212486514305944,23.05127076244541,5.694526304286537,-13.858941815028306,-30.750930334966196,-46.93973675659239,-64.54188665219927,-80.93588447616271,-93.71516612245954,-109.92574249783213,-130.76226877448224,-128.25802926378225,-70.65513789201479,21.695172294998677,90.06061269742533,109.3581996395302,102.39399916604498,95.50439353642255,92.44438680109332,86.58525819245698,74.62409809312089,60.895046960106555,50.88101579296175,43.546534365511505,33.855974041364306,21.056436356285285,8.064241185867171,-4.797979131270861,-20.96274878378893,-42.25827338191134,-64.53012211231197,-82.60234375622122,-95.97003635832951,-110.84845278742273,-133.63120153572447,-149.03368489145842,-120.52591393022394,-41.08486751443597,40.786547413807625,80.79055441426564,83.80437024255087,75.92174872484333,71.50070863585763,69.90230990461265,64.47364954057616,51.47008640132403,35.358024389934904,23.89265960985674,19.85198014977178,18.141537318048247,11.567494982289308,-1.5864226709195832,-15.807844851911453,-27.364914943501958,-43.241573119369306,-67.3485926860693,60.0,103.0,66.0
10.349262504844686,-6.89620825799573,-24.316641203204156,-37.59941042434216,-47.66197940582146,-56.25472056997988,-63.81721156523302,-72.67619818346854,-83.75129532746621,-93.8011718845199,-103.02165459816352,-113.33391305217296,-109.37114947127826,-64.26994225392365,14.972721016138145,80.74059020667887,102.91874976601186,96.29706460179669,86.31955339961122,81.59744944744973,78.01669407278666,68.59658464567288,52.92847410037167,39.995662028470804,35.50336957715065,35.01008962382317,30.862515999257752,21.55131510174746,9.191853811455953,-5.509905043685784,-18.99432526292304,-29.87642217050796,-42.040525526069366,-55.39313213100227,-67.70816240347612,-79.22456624103818,-89.23923925646858,-96.49199747731251,-104.22596421544986,-118.08456028704052,-128.2869528416842,-105.80852990223227,-37.93507586884324,42.81735246165845,91.9496349318021,103.4789879965516,100.92683775634022,98.25785536769746,94.5251956817229,86.22581941600605,72.6255949127337,60.02044287675125,55.447598067249025,57.0430967107102,56.87209932823124,49.090314757176984,34.522688296109905,17.30547902859466,0.40952465605161503,-16.29736859033041,-34.0068538078328,-51.583899974582316,-65.6576527960749,-74.46181658688657,-80.95275719667276,-91.04569379870007,-108.58832684228942,-128.43740339114566,-125.91641405183485,-75.9449308684884,5.970763382023214,72.94564954437625,98.68155279808903,94.70395691430265,85.77462214497626,82.34742435679867,77.31955889892994,64.49518899748654,49.399392041782605,40.33161122054641,37.87137472929778,35.84253084680022,30.741650691319087,22.581738445236,8.210190956270134,-12.954125500977103,-33.02658608392027,-46.70142118512349,-58.62515924162083,-74.74825735655473,-93.02728829878666,-106.9189538709924,-118.2418615475917,-133.70951136045548,-136.63702340656067,-91.77057113106126,-4.541505166448445,69.6477825095366,98.07971837366985,99.07313745645513,96.5200342242568,95.17018894097163,90.78360486108379,79.75806540103257,64.4612810267386,51.898449660321894,45.797876744864176,43.742638504337734,39.80866244712845,29.345816132459863,12.290479502799764,-8.1082003904565,-28.878712146616994,-49.60136723255689,-69.91049133484924,-87.30284131497078,-103.49078769163751,-123.78098607350375,-138.60444955689903,-117.39536621574054,-47.267096941432904,33.40007582269305,77.9410223190312,85.19164468927563,80.7987566842647,78.91853265907957,77.05615612451949,67.91394287997237,51.09788113513571,35.071173059880586,27.92857498754224,29.351158761765543,29.368912708081744,18.810249491036174,-0.10164333723595549,-19.00990533406799,-35.347933194199015,-51.89312959737871,-69.62521708875629,-84.87253627912797,-97.60090321516427,-116.10792061345818,-134.2927943650237,-117.68605021604587,-45.04008888374217,46.145784722598975,100.27528008822372,108.52973993719422,99.82129939818792,94.48966120327749,91.31758091009304,83.69628020941232,70.52266266367491,57.519125463976565,48.708540456855644,41.153208363564616,30.353594696361892,17.223101955246285,4.438827621405728,-8.950709055538612,-26.667696178737668,-48.87297099722546,-70.31715292970758,-86.8092285226046,-99.68451647653878,-116.68677297111074,-140.32952748942952,-146.73578574063174,-101.4599708909793,-14.931945010030976,57.31924319707419,84.30310005555503,81.66672797930217,74.10188428109632,71.0112597602537,69.02015090618266,61.455435889467076,46.76610424237192,31.304467416970283,22.045723578769973,19.487615274867352,16.953325645006135,8.32257319613553,-5.931639367368567,-19.277951071312234,-31.09143042826356,-49.58370614729309,-74.53921412827373,-93.23463979132423,-102.96260067918556,-113.99617832303625,-112.28038744074064,-62.61013588263741,26.428249140700096,96.65785656180405,116.48998277535671,108.34928418133181,101.65994886017893,99.9852728878642,91.34808134100894,71.01269079557616,48.41891669670125,33.278341590216904,27.755169078017413,27.749995706537106,22.707632912982074,4.948352997382725,-19.58472632166702,-40.11024052728038,-54.442749221640824,-67.69201355427884,-83.12724101528133,-99.08082918815846,-115.58493290365064,-124.47207072642978,-99.20942784644554,-29.810850164272733,45.871065411640004,83.83975913923372,83.79204587984074,72.75556703776849,66.19796399921933,62.100209646533834,53.14298756142611,37.430520206863854,21.625293845663045,12.929584294655083,10.87648378293618,8.46678222723977,0.3717506559280206,-13.594962599548055,-29.87852110252693,-45.955831694442196,-62.26360309878141,-75.80761959115851,-83.14592770697804,-89.82545103085184,-102.55604197763996,-105.85716588278916,-65.5761519410045,13.831652466800882,77.22777447871493,93.74206820809037,83.45141650024239,73.5686198102842,71.1742126355381,69.02701000235773,58.20779390697514,41.93611303776367,33.41484923693912,60.0,103.0,66.0
-68.71524625305335,-76.32138148582362,-83.25837551979414,-95.29639304177802,-114.78152758142579,-131.49629601271104,-116.66820988979576,-53.638950914559494,28.784696482488233,84.70641574755712,99.44394842116255,91.75405495050633,84.31568673147298,81.53449211974099,74.36950646735079,59.928574343087995,45.9458807253529,39.15674623251132,37.524131983585434,34.67260956594682,28.768213328774333,19.24662654882112,2.5691603258794458,-19.287458582894804,-37.58580739564199,-49.97620697057538,-62.758629177959946,-80.11714672638483,-97.66549766868278,-110.05181270188686,-122.3402158069229,-137.45929709340396,-129.6339707217809,-68.93584060146664,20.771179078800145,82.44791991238577,99.80012496310162,98.16841155655622,96.1376734595638,94.44052315909353,88.31724407205171,75.49434632488129,60.261778529618695,49.47631247787053,45.0196345794887,43.07166156550823,37.55400298625753,24.983140531144773,6.573732438555463,-14.140422484578831,-34.84159554563093,-55.6080499683103,-75.31054235275815,-91.828579881639,-108.87921466859393,-129.73108548831982,-137.58944695923122,-101.37899856974589,-22.4600516231613,51.01615328905166,82.8084773398262,84.10083291141397,79.88249828563545,78.72175553072864,75.39049395704058,63.5742607944554,45.93733384111342,31.897836706180343,27.765499897683082,30.05014065794888,27.55186006537634,13.82481480339468,-5.8442117272315395,-23.907641997862935,-39.97677442653612,-56.987484906016185,-74.48005502901353,-88.50971680068689,-102.06473189357209,-122.50793931348159,-134.8518068790884,-101.95356080875455,-17.737839318736143,67.11444308030015,106.386688162498,106.38156231808274,97.6982474634467,93.6746141389016,89.78109339141712,80.286955526752,66.45178168957196,54.54755460953011,46.654279598316116,38.439255436621536,26.64712249833095,13.446568661424225,0.7872916381589046,-13.491383634325892,-32.79325503481722,-55.41170039027407,-75.65528961886432,-90.6627241641671,-103.75779608540572,-123.28530573779068,-145.7106521689699,-139.7789700462607,-78.57183720385524,9.805023262454387,69.71201672093441,85.31212024774244,79.24058635473732,72.74002057873238,70.63282340594428,67.63713428896324,57.77916813851298,41.99678343548297,27.812843172252354,20.816908728447835,19.115256378116506,15.213251245599695,4.552122766038133,-10.154624963224276,-22.536569242798087,-35.44419495071051,-56.57907338019712,-81.12534917773588,-96.50758986742727,-105.85643524053292,-116.43599628606202,-103.84058168324465,-38.7467624943064,51.196762547459464,107.33514807848458,115.35190776576663,105.5946588533552,101.10012561468905,98.71894162015339,86.44827522525387,64.15262039281967,43.05601319335186,30.75043243915029,27.55383215980754,27.344345910192494,18.889504803626387,-1.9903924380852693,-26.231611411571865,-44.72974219124808,-58.12096371059653,-71.95903146362463,-87.74132203399803,-103.79515480964108,-119.86357363648759,-121.92392319673644,-82.85499788168133,-6.131607809228152,61.6802016536572,86.64349925906293,80.6297862487468,70.26274200436261,65.08317855190666,60.27861479756578,49.12291011690664,32.47292369897163,18.22121908462147,11.905155655077174,10.547641424571882,6.811359064528849,-3.16971861530923,-18.24890928311389,-34.54164472751258,-50.661056811124496,-66.71529252994115,-78.5147578174049,-84.69134491579614,-92.94865412763012,-105.98353914366972,-99.79141837150624,-44.67486918053622,36.27474252309667,86.61695637192484,92.03536430172747,79.84485349020571,72.26095675964125,71.01402181848714,66.9724521660907,53.513286850321144,38.20652610906862,33.16227887100651,34.46611120841763,30.286564301827987,21.5504560677407,12.140229638202594,-1.4987113885234682,-18.296498626010344,-32.208332668278814,-43.03728941034521,-54.581824369859284,-66.33139502280325,-75.16691185508078,-82.47090438961229,-92.39871803462839,-99.88004974756605,-81.5098144169479,-21.841819019910066,51.191064441300966,92.3669738487341,90.82061061732651,73.83151494444947,65.25385488563073,61.83605981667668,52.49255015187872,39.158854256118104,29.866944328804085,26.553943695130705,25.35373575992037,22.49255365994958,15.10517553360212,3.476503792394834,-6.9290545359972935,-15.376115869158891,-26.049361636491398,-36.97889806026618,-42.84929501419153,-45.67734691663729,-50.67269838949988,-57.25231654625141,-62.95971590137359,-70.48895500698268,-81.43077648353491,-77.92300653790417,-34.856130202059305,35.24025873897506,86.4073148042617,96.10457935743344,81.17421364883013,64.40147017827898,54.923183996443676,49.7106677808474,41.03999790153555,29.374264634307664,22.2872392936536,20.245996499785072,17.437386077204074,11.815379834083828,5.315020409743299,-2.5384985933394506,-13.739812492015302,-25.593943962721347,-34.7764691939134,-41.914346216094856,60.0,103.0,66.0
79.31232099331167,78.35094484881712,72.94573120310913,58.69819015350447,41.10067694991321,29.620967483739392,28.199909674307506,30.31473219644878,24.702677936248524,8.330044905856592,-11.390340407330239,-28.6181967438294,-44.70935080105711,-62.15961036268849,-78.99047330496549,-92.04528895322986,-107.27214943056808,-128.43680440961154,-131.41663526176137,-81.46203051406096,9.564090994374284,83.85629137884018,109.05705172816218,103.66919726525691,96.08960372522118,92.86657109446296,87.72502177523737,76.47392241324417,62.57809501284683,51.962124017847756,44.563521931290765,35.37787175274681,22.829770933414327,9.746923289961039,-2.9863884876404434,-18.49262952736216,-39.22777482615988,-61.72741496726999,-80.51813756678642,-94.30666484470544,-108.43553775744562,-130.35528614950954,-148.73178367353304,-127.76175472593712,-53.19151372148275,31.820745674828032,78.12781522751418,84.55559873328234,76.90081740709611,71.80936382839023,70.18425694457792,65.62996031064809,53.555931243176595,37.38000440825272,24.97177680724776,20.077440598580147,18.530941416416603,12.8619977824429,0.40176561665137805,-14.101634620109575,-25.792608585057454,-40.58673030327528,-63.937575366662024,-86.8052221315692,-99.2113271843954,-109.12921397653915,-117.02667443374276,-90.54499249846262,-12.553127165488315,72.7648568423018,113.65709001853186,112.82523909093956,103.47667651784111,100.77629344787616,96.52835907237146,80.62154937023053,57.43478907556441,38.47474944597774,29.02001510298563,27.650568813073352,26.200461774462866,13.924399588494888,-9.20240594857075,-32.32177558082481,-48.888036549887836,-61.87177472546437,-76.42032317131121,-92.33739497255547,-108.61144862811808,-123.11470170422278,-115.7159208201487,-62.995819935396455,16.69025546739889,73.54672332536663,86.77533546994566,77.25367952712449,68.29536852046415,64.01223106162564,57.866827055339364,44.59124141231339,27.733589916865654,15.544561322455422,11.326979986017426,9.988730473094853,4.602954507147068,-7.160810934544152,-22.98123722888936,-39.170845981695884,-55.40798811915478,-70.79179589825146,-80.67405861863124,-86.42841593252697,-96.68034564913336,-107.90376428925902,-89.21221357460388,-21.32932347761871,55.78923336088593,91.94887570716323,88.93574812526197,76.77350123245078,71.54969206638292,70.60989521661871,64.0168064538173,48.619908099414836,35.47026466923903,33.50847805107084,34.06889828883741,27.91348085089215,18.98170341007425,8.780919209272136,-6.310240299312302,-22.783323957155368,-35.474440556123696,-46.20213397149261,-58.11667274599744,-69.24121536602308,-77.23378784240379,-84.97759490263464,-95.53366957068755,-98.49916898564713,-68.16202274383731,0.07707355470096272,67.7879104331109,95.54136986411635,85.98995612975756,70.15721296695057,64.35934644877268,59.940175557291454,48.66559907924819,35.81035629811176,28.413173757180076,26.191098986778922,24.82815737627067,20.928712094745755,11.98387864496241,0.13054578351441126,-9.37575275607954,-18.141050379261685,-29.470489391991745,-39.281461317590534,-43.698783768393476,-46.7948262759441,-52.56718810374673,-58.99411324268331,-64.69966400370694,-73.60692359893,-83.2513955003253,-70.0099341993698,-15.53426862877991,53.85259995808781,93.24248808419425,93.12668559447988,75.83567262817678,60.855549826944845,53.33933803762818,47.785329311731715,37.64855669832379,26.617831600347547,21.419873159724798,19.726137695103418,16.039568483909804,9.957811664745385,3.3124116780486568,-5.4434981344762425,-17.318041537644554,-28.54050186177201,-37.00816679172682,-43.6317919627528,-48.3853358152583,-53.2031568471781,-59.35817342044542,-63.87607199912571,-67.74823032320552,-74.72589423141785,-71.7548956847642,-35.47748760585628,29.105330413355137,82.51400410153714,96.07004838899927,78.30819328523313,55.786917896089314,43.524226456754555,37.510776157136235,29.832795494614654,19.35111421642885,10.213625504525949,6.365854009421923,6.6580284371246785,4.807217742408348,-3.7729209940346924,-15.737782765692772,-24.288431716281885,-27.88891412987189,-31.579624600631476,-37.75279305095981,-43.98461738451888,-47.41539107752273,-47.45242376471595,-47.592131958954184,-53.110158262308985,-60.726866927914756,-49.83944135431266,-2.011509854365064,64.56509375614093,108.3900409018111,112.69861652452417,94.44381204180827,73.93145156478508,56.8827008450492,39.013382605579835,18.675473963909816,3.2614665646625496,-2.5029415258477443,-3.1672263902646063,-4.357810101873527,-7.476799760260498,-11.954463411560566,-18.282930841824193,-24.72651084870432,-29.304738232203427,-32.750920061387625,-35.45958805430763,-38.0078716002964,-42.87322416506561,-50.08702664878536,-56.20112662951067,-62.033739905732055,-67.22964287655219,-56.1999306739193,-10.976791932761234,60.0,103.0,66.0
-71.27650059120336,-91.44018060142709,-101.74621914731377,-112.53407800140526,-114.65847699624521,-72.43100955029831,14.303405610545154,90.17437535117374,116.28211974014746,109.75768973557953,102.08152626495514,100.33249156813683,93.24445599031482,74.13579700216475,51.1291476636538,34.72389660872638,28.01065672815236,27.771451144447024,24.069538071643183,7.964100188687062,-16.370738051329052,-37.79347059347258,-52.73148588334574,-65.80275116905166,-80.99946125217616,-96.94053827938785,-113.43005978858515,-124.60437687990182,-105.39279214051324,-40.62267038171285,37.359655304575234,81.44864254866317,85.02137386961317,74.07900809617155,66.78052765660169,62.77931570204863,54.788407178154415,39.726546501832956,23.421366871558586,13.597986222474644,10.999948587718858,9.054085148668745,1.832942625052388,-11.504699527698083,-27.711551336066766,-43.80567271695639,-60.12844879385051,-74.35871820788198,-82.4219541911959,-88.61327651915471,-100.7283472399159,-107.2814118840298,-74.0215085270852,2.8618719779758446,71.44565607649943,93.82366331223308,85.20758599312666,74.40818624401199,71.24421580488305,69.68981645712125,60.206429171257305,43.924965060625695,33.823580529994054,34.06362055746392,32.985653302472805,25.346318043582478,16.360072863263582,4.9396445285182695,-11.248571867842273,-26.89163039295775,-38.56838015635213,-49.51234907253682,-61.58868347568558,-71.8441203679418,-79.27093029413355,-87.80854231793349,-98.18165125132694,-94.19403730308,-51.2957943222975,21.953310760134126,80.71990230594163,95.38974239175982,80.76742585933322,67.51909273770298,63.558949391204095,57.35756698845841,44.70313206825343,32.977011436100106,27.41853102120987,25.88510787154118,24.093135631826076,18.910413367680945,8.583645476403396,-2.9531396442210576,-11.74567515828858,-21.189083162457322,-32.763155991178316,-41.06286252058803,-44.44155623527293,-48.190298987549845,-54.508818460951034,-60.626742242678326,-66.7346817384403,-76.96954784206316,-83.15335825372364,-58.2887605021688,5.1833898323778484,69.66137939330136,96.54903192296517,88.76644495470153,70.79145867036019,58.00301165888605,51.933609766769216,45.38881787398855,34.15653558466312,24.430906619821254,20.864847302095765,18.994790098196102,14.423448311791155,8.08803767065534,1.1312786645784734,-8.655318714219215,-20.82337927574674,-31.2286341600705,-39.10612886275616,-45.17108267572238,-49.632010354857954,-54.92817891117464,-60.956493518824935,-64.79652105328584,-69.5660543507366,-76.01966339728126,-65.32709364496198,-18.349225298550902,47.59562802105313,90.81330544996214,93.03508845838505,71.21662822379368,51.09718651490664,41.57263925073663,35.660648086440354,26.967590520632164,16.340177864123582,8.489317767248869,6.23677431197101,6.664751467270776,3.022628003897599,-7.192907682058596,-18.794371852589094,-25.674483454115485,-28.716403776115875,-33.16347217326156,-39.69621385383735,-45.350173715514615,-47.70675726105693,-47.224596123713575,-48.49598514620449,-55.68398163619806,-60.69342567274308,-39.86229891575615,17.11687013550535,81.09851659743487,113.37198584110648,108.63347044920621,88.20891630352162,68.74114620866712,52.05019222716924,33.18930818484814,13.321117194194397,0.671403566006897,-2.9044606543683886,-3.3145526063043085,-5.093987016282513,-8.61718471568582,-13.600878857617436,-20.273451103442177,-26.240686268823453,-30.370848278597645,-33.619684887360926,-36.12318046379589,-39.07493653234963,-44.856732589215355,-52.06364332708529,-57.751009642492996,-63.95235933976551,-66.77047646638981,-46.81167374531488,7.209318163412819,67.3256320965812,95.86537716319819,90.63757915177435,73.40369309449466,59.95927243961923,50.43462320056448,36.965129924308975,18.948830459399215,6.032455620280365,3.366630951360309,5.731561568142931,7.058509816270766,4.840785808470863,-1.2776939942683652,-8.675136546415876,-15.165355203938581,-21.989786861575062,-30.123710737662275,-39.06434185213133,-46.38203457869435,-50.695922454351596,-54.42109956296099,-61.65022432347827,-73.12976568083594,-77.68866122337272,-54.71910745886145,0.4101057582678743,59.86621680459164,91.64199395692212,91.31568997751882,74.77933211054554,57.82558931525235,46.433275959095795,36.60306735674384,24.31779521859458,11.825551289943927,4.1502958555678315,2.9184405639249156,3.811101034183632,0.3501705783101501,-6.472551198919484,-13.495818619762328,-21.065426948952993,-28.554090680961092,-35.51979476111423,-42.98700470706048,-51.07476660531617,-58.82802973552952,-64.67431188053966,-68.93784384618714,-69.49359442626772,-50.53368580572929,0.8482946850031533,61.74152385334514,93.66420005725273,89.68240806987716,72.02948634588138,59.37607905402777,53.21868888253152,45.17624552176192,31.791287771667346,19.069054379599315,60.0,103.0,66.0
33.18280684428093,34.44111301979594,31.259257265700896,22.741696259508856,13.545619046494883,0.6255377567646074,-16.120785000411505,-30.61107302039907,-41.61637577791024,-52.96020960042056,-64.89113518902471,-74.16900226985368,-81.4128876176583,-90.9171336973318,-99.73367698491029,-86.3844191577113,-31.6008887248724,42.49553173697814,89.62429512186114,92.68351050827407,75.85245359506646,65.80549171739,62.49426165026105,54.14470066630039,40.84400065745674,30.71629671454331,26.77030492908485,25.544074055656562,23.076936061709038,16.41208926232587,5.077899917383406,-5.73690186873125,-14.188365530243903,-24.48003618425284,-35.747566235796256,-42.37302826072428,-45.24665810295403,-49.84248316819575,-56.40865612324884,-62.213225693719394,-69.19487532451387,-80.17126843891644,-80.3323059508323,-42.96920268289384,25.986779407997194,81.98933397143333,96.82353280830357,83.64479119687361,66.27033705074389,55.77580405784275,50.46802735513972,42.508470934997284,30.806957562045167,22.837596655147685,20.443101966511485,17.993694431455292,12.658735175397874,6.201715538807132,-1.3093372238033942,-12.102124338651892,-24.14497414475451,-33.69807503193488,-41.06425205338028,-46.5499547328938,-50.96938795220778,-56.747164140554545,-62.31375459857933,-65.79159241327882,-71.69343959996334,-75.90953990160342,-55.58155789484874,0.5615866886915564,63.9912445968232,95.43011417685082,87.93936672862809,64.4032689136258,47.40894500865612,39.904798385909636,33.522813369973676,23.915486350080336,13.575095760181949,7.272902160540762,6.36368891174617,6.300583328299394,0.6283637441728609,-10.735795735618677,-21.401228829700266,-26.702518827313625,-29.705939096002414,-34.94486020388639,-41.560263783131944,-46.42311659886942,-47.72895929454345,-47.1376232188667,-49.97469227407465,-58.21396654407611,-58.42157297756791,-26.548630237555432,36.905877515745274,94.71142744287711,115.07187947076244,103.31761154372104,82.16136039923131,63.831805954201194,46.98709533744698,27.214850985200936,8.62835208031161,-1.1001267603838514,-3.0614516204300246,-3.6060979380039293,-5.98020668817754,-9.866252556280706,-15.419024989350756,-22.19036468942494,-27.583269315239864,-31.37595553149998,-34.417875785719204,-36.80867813405527,-40.41003394917105,-46.98037977660706,-53.85548295742964,-59.38327416492007,-65.72019818239193,-64.38183650351864,-34.25048605199667,25.984449357016725,79.70862636389037,97.00082860951073,85.91168384522888,68.84093462568907,57.12958729768406,47.22764296420856,31.905090934640313,14.238616187902352,4.3041339660353275,3.8718032142617504,6.3827391485332985,6.8410846622471215,3.4152125025001876,-3.448453921918389,-10.629451877159351,-17.027840809104074,-24.19989324758871,-32.69494319822582,-41.47565757971116,-47.89196340844949,-51.65878084723565,-55.98429086091947,-64.73125452616422,-76.03231714023003,-74.6700348254817,-41.40838143038027,18.880784505727384,72.69407534585177,94.3164201549916,87.38450657044194,69.42611510510672,54.01315732670559,43.707223612998035,33.32606093044227,20.49638789990479,8.943661388102598,3.2000061415939722,3.298883979943737,3.3900034619285493,-1.489415262024992,-8.497268710258435,-15.612683080621908,-23.29891277030583,-30.57929869431473,-37.595095293537085,-45.282132727395755,-53.42284120471244,-60.752882253623184,-66.00491311738352,-69.87930492232196,-67.0030625185065,-38.79702797002021,19.35561190835008,75.07869184263458,95.4774077517105,84.86639651167683,67.47499583821023,57.241279156362275,51.444690870897944,41.722613843057495,27.675008145862677,16.57189156467176,12.957256612078442,13.676771912335932,10.638904699852288,-0.34854247393735005,-13.230965076227834,-21.866618822752624,-29.140199672656216,-39.65866995403971,-50.92913060249336,-57.95708772907388,-61.22436889638645,-62.809450298868654,-64.66518871467949,-72.4815338402562,-82.88622814730617,-74.07788334652602,-26.77558438159612,41.82055736559257,88.56674298484765,96.14424568555239,84.86897970587829,78.14685193060663,76.64410334756872,68.09855680144095,48.955664934872644,30.30906206876244,23.81371429465286,26.663143825660224,28.201624583930695,22.554589677561314,9.736150574868233,-6.588190328575649,-21.21399698875985,-30.69748490908671,-36.665266527439634,-41.719045743910264,-45.659568540325225,-48.58498476970566,-53.02223512299707,-60.47265474630115,-70.10283449483316,-79.3002106325337,-76.82868869625644,-45.66833931287403,12.17288584562815,66.44150003238279,91.35077018629975,88.50071278438735,73.85346131474545,59.609772975061894,48.88598086752122,37.811401409131946,24.443793567619863,14.418870569489973,11.860483832336046,11.077810020928329,5.410743279016563,-3.3197700280348834,-11.818238935873524,-20.129688501974925,-28.534302826682307,-36.67957022593924,60.0,103.0,66.0
-42.86208471261388,-47.817803550455054,-52.458812877781014,-58.55799492761176,-63.42643678702655,-67.04516849195412,-73.84826006146957,-73.67960948655744,-42.5238548482117,20.163218172045394,77.45516116321568,96.58477274343625,81.51592309727535,58.29265085117116,44.58956888164138,38.29012228691776,31.067119705065572,20.785448925950565,11.173134848859089,6.549067398171279,6.579959266364667,5.4170451300845,-2.288941560261222,-14.210080827623553,-23.495329040882854,-27.529028785776713,-30.929828448988854,-36.85306800500934,-43.2683227861467,-47.17702054861349,-47.562260976081674,-47.35107962135405,-52.01360234921181,-60.183185065459156,-53.29233655405984,-10.298537259809514,56.17369647909316,104.9021831590031,113.97752282495269,97.31412331765264,76.44281249628752,59.07145291640702,41.60590163710081,21.30676042306043,4.751937536332398,-2.1858837437017673,-3.1303344840071263,-4.077439677910634,-6.982403547252164,-11.256691314739106,-17.36376629866776,-23.966465994835374,-28.786365872206527,-32.32944741875868,-35.144407852040686,-37.591615869756694,-42.03324073296872,-49.12452503257742,-55.48392083252679,-61.16478523627368,-66.96675870717951,-59.45926774537614,-18.849856154271695,44.15147637593182,88.74213286091538,95.68564350992423,80.77754411581354,64.8324421758133,54.480395848558295,43.483518058433845,26.588027666551938,10.248336021504219,3.4320986668322924,4.600211810044307,6.841405557295086,6.288946942305034,1.6766468501074143,-5.626951805331141,-12.496087966467236,-18.967776466235204,-26.52656773890768,-35.30863698408329,-43.66874089715576,-49.15625193739528,-52.66091295178288,-57.94880037051851,-68.12674764184372,-77.92780065308588,-68.81353029493941,-25.605412567288052,36.73826395999105,82.6056200803994,94.52446412289409,82.56750130888219,64.36411687094422,50.6861439703282,40.946777009357675,29.79815788014105,16.77708546304049,6.578548074928074,2.7817798029856258,3.6797261942871984,2.4776342139801977,-3.485805880915553,-10.509839674045017,-17.79741706024747,-25.484951540328495,-32.57613906727323,-39.73715770678611,-47.62032595135182,-55.70781099465948,-62.48071062910129,-67.25124678883864,-70.38491019835396,-62.313319084242735,-24.248486832187133,37.66322434809891,85.16163296885139,94.56961214377054,79.57801881301874,63.637046231920976,55.51722576858296,49.27645151768183,37.84828473759699,23.829474602463165,14.75542704018604,13.033335159261497,13.547597876024573,8.18372473577953,-4.289273361653938,-16.19304499334254,-23.828011714755934,-31.80045721532906,-43.111824211665976,-53.492917005407755,-59.15208302675917,-61.82766373860843,-63.10411083493656,-66.11320213001409,-75.89060271948524,-83.5360993220542,-64.49549669509827,-7.289174755865975,59.19541595099329,94.37980236747873,93.49510433211199,81.95415287215643,77.69026026751271,75.35267344292619,63.39096808595724,42.82519463347609,26.99698781906261,24.15179377335852,27.634611267858567,27.40046592565616,19.473533866262752,5.16443932728208,-11.221097366074478,-24.500464132854532,-32.627519746061445,-38.177295089056614,-43.02201403175615,-46.52319851929516,-49.59127674601624,-54.87811916535688,-63.081653977907465,-73.06792899040457,-80.57709866226486,-71.30015259652703,-30.729191081054935,29.803965162641184,77.08641031762701,92.74870313002998,84.77329929306309,69.39194617529058,56.23201451355043,45.94852137364339,34.05096672656814,20.869229350449807,12.985479528551812,11.870925125683769,10.010334130382345,2.991654930283289,-5.839286163668102,-14.208904416110167,-22.556030100697757,-30.94035958213481,-38.895864008921144,-45.739703775019905,-51.74812303474452,-59.78736683795292,-67.36702893186015,-68.13991215317454,-67.93559931743243,-76.52903928575421,-79.79175853746924,-46.903883276472534,19.323902437372546,75.79905014212366,96.15756370406407,91.43063620291503,80.41778217915841,70.02361125904638,60.091143649670876,49.17929348713688,37.180565140589536,29.6510144569486,29.626905538727566,30.04892537013063,24.96779732100475,15.956590612570801,5.983354404935219,-4.249499995831048,-16.360106493510976,-30.056090030926853,-40.744783306426406,-47.02314611956376,-53.08682162834118,-61.1677866723392,-67.32126452482694,-69.75119657238638,-73.55604024124958,-82.49879698088019,-86.96400609001385,-63.06506936278637,-2.9107365385199677,62.37928457641141,96.72154173664714,96.71147448328026,85.22268939248724,79.65267093401069,76.88994120611218,67.52686434115805,52.610629187021644,40.82867560586518,35.97095968184857,35.19776255172691,31.5266444359795,19.955302898675836,4.827388974158266,-6.922470062743637,-16.115677328850552,-26.750988212049307,-38.1027298307518,-47.048484839048896,-52.7742405371861,-57.5322961407564,-63.047629981771784,-67.89104751255039,-71.25483210209039,60.0,103.0,66.0
-1.319304652744321,60.58909756670128,94.36473381604034,92.53497579593095,75.66415203752842,61.3841457810178,51.770479482361644,39.149806178514446,21.295438362979894,7.1442067389184185,3.261640723291459,5.386414113578351,7.054513665584459,5.380924395640978,-0.30621450540404804,-7.737273910180905,-14.322059941567481,-21.01013977528864,-28.96517667581176,-37.89959815602059,-45.592100703913985,-50.23735073863789,-53.810544315794345,-60.37370173838698,-71.59862212294142,-78.23939118189752,-59.87957996930268,-8.035744291432158,53.06621194539579,89.47616928953599,92.7060967727824,77.27654282633257,59.76534010422801,47.72168826004241,38.02651375517621,26.074410760883925,13.305523613035634,4.781732598673768,2.8010531132712537,3.8518078124042194,1.1082981149409998,-5.5312832811533905,-12.542375611149733,-20.03001074256232,-27.601820803346257,-34.582270574330124,-41.947059277359436,-49.98370444979811,-57.87881862769862,-64.01956293803624,-68.42970962541757,-70.06194532072116,-54.93179815440311,-7.436448999799729,54.64198693547543,91.76852577732711,91.57567069817634,74.32771062866202,60.557510315698906,53.95524974218038,46.595810337439765,33.72178528163405,20.439094751962603,13.604365516280662,13.322748232718428,12.8777643251989,5.057806195918569,-8.144922833804776,-18.73100327733796,-25.831430781367015,-34.80329357748258,-46.480390494129374,-55.611072739512174,-60.11205305309974,-62.306700427034286,-63.505466887465076,-68.2319468605951,-79.25211577179317,-81.88356246276645,-51.4016941795133,13.06781047682914,73.664538927012,96.960235558371,90.0286352550967,79.83099244320435,77.430743977903,73.16152709752595,57.866228917738184,37.13085180641495,24.890220108269936,25.032252713242197,28.24705597212628,25.92360240454333,15.841282805038947,0.41113804768731865,-15.57360517718457,-27.317252833378532,-34.35268118065949,-39.65387021951212,-44.195941891007,-47.33622348904708,-50.799776354113675,-56.990671395603435,-65.84626462671856,-75.90913405024908,-80.47742856092222,-62.961953346469215,-13.941742585823697,46.19942812681319,84.89392187667754,92.12804004353194,80.48460607306855,65.17265301101685,53.13927222308013,42.83501887309196,30.128297469946986,17.777733687027528,12.194526026250905,11.789642177485424,8.445001424896365,0.44087892338746937,-8.29907220938778,-16.60526288782746,-24.987912620169414,-33.31160788906213,-41.019546281878426,-47.46057015610254,-53.77647378216876,-62.37995786578992,-68.34443011616952,-67.57741126186532,-69.50380060503252,-79.43638613593939,-74.93391603302136,-29.654497465221983,38.61608932272355,85.42259113517134,96.39997544172776,88.34113375141246,77.31743704222302,67.14897346200085,57.12205862053001,45.683605511580176,34.22642616096395,29.03788662915984,30.114914496235482,29.185569807316874,22.60362483559679,13.096002733147989,3.090325123219471,-7.468913203501542,-20.31905186492141,-33.64624460087582,-42.89234488852673,-48.57717800485495,-55.3038459379314,-63.36416474483775,-68.27551664699352,-70.4135547764999,-75.68445754005862,-85.16577537073798,-84.0063427919126,-48.686944930542865,17.398575956898494,76.3678130863867,99.48424859884877,93.43277590396693,82.79751115002699,79.05812796700434,75.08025183925248,63.42376731514198,48.55961159662845,38.74210265770204,35.57794203098388,34.78551169035426,28.988888871088893,15.566026478451189,0.9490952990149512,-9.621348605633976,-18.968795102159852,-30.100603352681897,-41.04004377926294,-48.974363873530265,-54.1193287635273,-59.06009934645333,-64.6160559701298,-68.95030371717341,-72.2832893671583,-77.93959053584356,-87.29773287295498,-88.48781879499312,-56.96063670072832,9.017906353038661,71.21632796000614,97.60196051516166,93.88578058406605,81.38461002213887,71.25600401875059,62.36376590391741,51.130880430128336,37.30135721941419,25.63872798853667,21.53332845296924,22.087263239664612,19.274861437915835,9.883794179223907,-2.1297719727427014,-11.848552992029042,-19.595927879052457,-26.96448461851135,-34.288663180556576,-43.27949456021165,-52.98289740200703,-60.825646480818904,-68.2637349368529,-76.31783260868899,-84.70505400977264,-94.24952061592991,-93.33422381371979,-56.72710753546244,12.080535359248593,72.42753171013025,97.95624029533926,98.40084498750186,91.0188041661173,81.22093828351484,70.90277584841948,60.23787624851764,48.75207724208888,39.64336432909337,32.920240821452595,27.602350637695235,23.818654197533732,18.83139660687843,8.491926365670171,-7.52784204467712,-22.684998223068277,-33.437587444239945,-43.77536885680006,-53.76696363010022,-58.2006202486037,-59.280987464509884,-64.64927672675559,-72.34913568696356,-78.3078194668957,-87.75063874568976,-96.45874901852008,-78.67229255139544,-18.84677169519398,56.1420358655496,60.0,103.0,66.0
17.639947224654822,13.046688231649021,13.60927109959701,11.518995857976938,1.4305289462919255,-11.71688531201291,-20.929969339219145,-28.02914985639871,-38.084755123266255,-49.605887886161504,-57.303287121881816,-60.90445397477392,-62.67005438445508,-64.19569112840942,-71.01424301819188,-82.00428951146489,-77.30604591573007,-35.1471386845899,33.05986773708366,84.69686832076478,96.88027922339069,86.4246345725581,78.51817823996538,76.99922307409972,69.93880524389711,51.81865117091724,32.22697118031364,23.923419709598058,26.148238044616868,28.352658477466964,23.76885726924774,11.749038371191578,-4.393554358121491,-19.537880651504885,-29.713107756483044,-35.952903770490494,-41.083775667664554,-45.22796117212954,-48.17106748793599,-52.25839391771886,-59.32841833301298,-68.73930946810637,-78.37908207680147,-78.50287548648701,-51.75402972732953,3.8714358886901943,60.616086649936264,89.9158321011023,89.92590144876499,75.95343358632923,61.28262636811181,50.21630112624904,39.4614870748267,26.201616505728467,15.317309949695721,11.893327606864622,11.40232268644586,6.4469957559433215,-2.1394063520425863,-10.713669465861866,-19.01449428746551,-27.417674573930864,-35.6316280912868,-43.03039463010894,-49.14364222534917,-56.06682800460015,-64.75605766192182,-68.63593636991988,-67.25516179156273,-71.9696255436252,-81.20103720472792,-66.31156728250711,-10.266242655844456,55.84690997412236,91.83100672833375,95.08260468126811,85.10399052765791,74.30492307740693,64.29493333017449,54.01833401479575,42.13502044947765,31.847088816046142,29.020941217562324,30.388486017703187,27.801315270555722,20.005581374187273,10.208235403981831,0.17008729600696781,-10.909076151855906,-24.34542912691704,-36.85171524580447,-44.708159817917696,-50.2540171757835,-57.676906449158366,-65.2535793471786,-68.9531749451847,-71.36754468703081,-78.27811637938368,-87.03834444131186,-77.99926053363068,-31.45373165001658,37.02584020019525,87.09543976849574,99.68359862879265,89.8848464381911,81.09008488336218,78.4379202083339,72.53098843008624,59.02684507282898,44.98867422621251,37.24410969752063,35.41052285942981,33.923720821528974,25.73773867327669,11.088870736624513,-2.5209153441065983,-12.222709360947366,-22.013066774909067,-33.43747145738136,-43.703217826469874,-50.64825137215544,-55.461462773443834,-60.66416885775712,-66.06360990116703,-69.90243821206303,-73.50953551039639,-80.4235035155841,-89.50459311269098,-83.65155140623035,-40.29022646243455,29.43482842655459,82.92664605192259,98.66815408646464,90.38305513427404,78.11189784925259,68.74889113828145,59.4548486226619,47.28833465546203,33.39466141434343,23.605770364999554,21.572204997871495,21.910794263791935,17.175043423232637,6.3978646211668195,-5.261704547479541,-14.178573535416268,-21.75730641238481,-29.03051000505791,-36.65423845897916,-46.17324867965626,-55.44439555597497,-62.90819694989801,-70.56335884308868,-78.65401449144004,-87.43441587917442,-96.16847531952227,-87.21958562887299,-38.71237395554726,32.280018030831364,83.49042108534488,99.72596499367212,96.63147005512127,88.3748485461583,78.20072852492841,67.95132117686974,56.8868151932066,45.773518200283675,37.55135860187106,31.208404830578253,26.41018182158862,22.68998813692663,16.540924115387625,4.255058756072764,-12.332964529777076,-26.138924733007677,-36.28628863115459,-46.92822846812073,-55.75397909556277,-58.47423499956494,-60.23239026218096,-66.96827774628798,-74.14220017482035,-80.43465397008607,-91.17802023059015,-95.3590629565258,-65.33940732565546,3.3127126756247733,74.20938844109216,111.66182219047329,113.27938499952424,98.66016515854913,86.55527787251071,78.68856509798292,65.65184912237122,46.753414347578946,32.09394974239418,26.641146329720794,25.552777124668783,23.07931029562071,16.900339849235955,6.6657861119911725,-6.603085765902902,-20.207884632791654,-31.742476877804922,-39.4837180305103,-45.525125610676874,-53.34184334202413,-61.405431115736825,-67.67431587818993,-73.32617754511675,-80.89800963395143,-93.3893876473441,-105.52503600202635,-94.33040434277477,-41.83092720425947,31.925976576052122,83.82588633236692,96.44864236883221,86.76052804128402,75.38855145787848,67.40004626769131,57.78140463951048,44.64922609312701,32.99405545791575,29.71926878797238,34.21496794547083,37.93693017389666,33.997423414333575,22.2450617676175,7.547970521618362,-5.402590233869055,-14.480386122708847,-22.282435322758822,-34.22018319485823,-48.79595953680834,-60.3055939754677,-67.65381366687477,-73.08999927347382,-80.53184606439744,-95.30061671014518,-111.98514949880493,-103.96567662425626,-48.453661753619855,33.32040151217086,92.02191408831173,105.77652597862088,93.63328421344528,83.04557493755601,81.58270256800988,78.49717047651828,60.0,103.0,66.0
