42.29558812650017,81.57742010483884,95.97933169214045,86.05758503392653,60.601067929772626,24.507042752989527,-12.905414149500643,-37.731110527103354,-42.68426117641751,-32.273673639218295,-22.55677992671129,-26.280555827531174,-40.26622913871329,-56.8947607825551,-76.86359831612029,-104.75597003399102,-138.1220656871164,-175.29462627248196,-219.6574600673232,-244.53767988883996,-192.34612238244483,-56.620979821729634,87.59641966178748,173.4203401228691,200.4749044002266,200.0886222738209,188.9224429392591,164.01627075532886,126.99391508444418,91.9450586975801,68.02724363955974,55.91886353994494,54.926419375412145,57.770642765704814,50.93471299322345,28.750765331376474,-2.7138340941278694,-39.45288926877289,-81.16016068767793,-120.8348699075602,-154.09142285143318,-193.42062174098817,-245.90333162169242,-272.54102150727755,-210.05191208253814,-64.67723026296035,76.8539552928374,154.30258026912867,177.8725016980133,177.23414552135606,166.02212842295742,145.84240827354012,115.31960964343733,78.69849705812076,47.801395603735905,34.65210208142909,38.3185054883349,41.34366298725066,29.25784566370621,5.976336615013335,-20.833556205602818,-52.05155180622438,-88.12281293066044,-124.83316783797271,-164.04227282533526,-212.84972195101346,-251.54735306969374,-222.8619187601644,-102.7978124684507,44.0722559292867,140.95421595034077,175.8493255979556,178.84531502122303,173.14392188873717,159.77073742544488,130.52041551368862,88.37747597054424,51.2064274791988,35.00676137005851,37.452952454222384,42.711593167835495,38.68687816075206,23.81365445193527,0.42578476690667744,-29.203611923464035,-61.791015485076166,-95.37540311063206,-130.41056352366653,-172.81676238528004,-228.57219933366844,-264.3409174636814,-213.93873088858743,-80.2121919090167,51.2731441710968,125.20931670687754,153.33188363587695,158.69358288489013,147.76623658637,124.38707053990136,92.44593651931018,55.807422756599316,28.19296294498649,23.53000777931345,36.00404140951696,41.47659459026881,27.280969157482694,2.3059362709829867,-25.08866400288582,-56.55860368452107,-89.81270835438531,-120.28360152312854,-157.2396019995904,-204.69444034750015,-223.6115104567732,-159.34904023338117,-24.14067682883693,102.77263906553694,167.00359500092742,180.50751859298163,175.72158248224056,162.3552565442832,133.0869995220098,90.30690827155516,51.48229581724364,31.02906489643364,29.36259320010745,34.01171002209723,31.352721645436244,18.343684503355572,-2.341515235767117,-29.3125645982571,-62.96433200758415,-99.44617491019284,-131.25182958504234,-161.17926233988152,-203.86223486076264,-247.27884705765024,-231.4323785540227,-120.20189364662718,28.004476736912473,129.8150625569823,170.87292346746958,180.82223016133813,177.97321336821324,163.08214971879298,133.63070608276132,95.64925641999022,62.72544641633071,44.971351425102384,43.3270035764562,48.64335055958062,46.6444423362177,29.8551677087724,1.533016810475754,-30.459737242334192,-62.055258358190436,-94.26054530198672,-127.36279264904302,-160.9543406672937,-201.39836782438354,-244.78836427355657,-246.30770655224828,-161.58205080489665,-21.41913787306453,97.13224747374697,155.3219958033468,168.01547026126008,162.2315629992725,150.32109625173788,128.86166565694984,93.49300051195523,55.10513009726432,33.397962049558174,33.97207153774955,43.6747260512013,46.39715429967591,35.62812134220327,14.524231006557024,-12.720019193309746,-46.5025649879533,-82.61799797403614,-114.30151014848462,-149.73570046829718,-198.1700156162105,-236.80853721150768,-216.5852418746844,-113.12035146500627,27.59640402821075,133.5746987608761,180.60286973907736,186.88888403319726,174.20573401570562,152.82943359871655,122.89315010026226,85.0262080236846,49.703674462176096,30.754868715886552,30.244016125670917,36.34177906636382,36.033409767389884,22.18957171553429,-2.2901332514810187,-30.907889730289515,-64.20941887617384,-101.28216357710896,-133.57271073047113,-162.70644280763915,-205.02732633036263,-251.99382154814114,-245.55669165459645,-142.12274046196632,11.551982876462318,127.75287257180347,174.6549510408604,179.11987420158496,172.5512897043143,161.95630451101658,137.14448623872042,95.99540459318321,55.377608722914104,34.43411561942401,35.24642991308588,43.30025826347554,42.0548641960687,26.955244690305495,3.5376687198540093,-24.703219429150383,-58.830397366531784,-94.67904429153714,-125.58499476450788,-155.34337924354264,-195.9929185733489,-240.5439330636083,-241.42000094911867,-153.65606562564295,-8.667415074743378,113.38080381038462,171.7774695550936,182.36231345721532,175.41906200133468,162.78311827492274,138.3895278961213,99.67327438788651,61.06561676761998,39.78218737989703,37.68280873326835,44.05941442719831,47.5687123319268,40.58869296225755,20.913244980309674,68.0,123.0,80.0
-98.81140801419201,-135.51361176099005,-177.17172449958662,-227.17284420800834,-252.78629718862658,-196.18990971860185,-58.90529772571065,79.0891117671507,156.35805365591477,178.5581987528681,177.65964679622942,170.4539808773027,153.15768301958633,119.07598934848411,76.18681772725485,44.072332814205765,34.38979756637716,39.42056811255668,42.736785196241954,35.40642327334811,17.83590125766453,-7.619858716727209,-38.45817449793769,-71.4109419739285,-105.2524443555122,-141.42058808089072,-187.88309330035403,-243.9460477440638,-260.70687951867046,-180.80307683606745,-38.06613109909524,78.92677948454575,136.73127468299094,156.6909474964564,157.11506883725323,142.04497195837888,115.96960137860367,81.94534894930594,46.10171648779971,24.23847406371498,26.29853573589864,39.34575646410344,39.27560941261337,20.580623448683866,-5.394723726922486,-33.66481099784548,-66.32049319905192,-98.79350784204149,-129.62336144191582,-170.62220674986793,-215.92200774470126,-214.8780084499462,-124.66476911492819,17.04922954737861,128.30742737041314,174.51338219810205,180.01920507639946,172.97767821472885,155.8002978800806,121.502869448767,77.82777782953089,43.38136424338236,28.975736394133854,30.792531367299848,34.34110486605277,28.56304118044484,13.036941940193161,-9.469686845849553,-38.381149887940694,-73.56347442703897,-109.32986588438581,-139.48928355769903,-171.7663098124044,-218.30722976170895,-251.83068135345414,-208.29383229390297,-76.79320781277073,64.36744187159991,146.79228925396225,175.69645642732004,181.05979371469596,175.08877699245386,156.0211554468245,122.98891081366966,85.01735446718227,55.8119438039792,43.054029741276025,44.781658436210634,49.362815868363015,43.34504816828863,22.516200228471913,-7.638272668814451,-39.641788572170405,-71.21946464654198,-103.80557350220889,-136.89170057157108,-171.55707040359687,-214.78405282095954,-252.31088255054175,-231.0379255100683,-123.42774430736013,17.99927884034831,120.20626940613937,162.3319531508502,167.34220683312546,159.34489536162184,145.46204696621035,119.94127195332209,81.81446827023643,46.44190620924729,31.603421630973838,36.65070962919723,45.693093943576464,44.66471749035047,30.325691544428338,7.249291093905226,-21.80788347368847,-57.11399578862329,-92.22561996472311,-123.42789813985183,-162.62992197482043,-212.30961930154683,-239.14312576860289,-194.5970955264858,-72.76493358508557,64.04819092279998,152.83304358027536,185.46905283082242,184.48552148675995,168.77527428359454,145.1722223493921,112.4989428846211,73.8828484177152,42.12196605735544,29.06917079518303,31.978640908570135,37.36916074797566,33.506731268306694,15.84967584348364,-10.248746529408216,-39.917494159302,-74.84445351493564,-111.43183529976926,-141.67465048781844,-173.02207507991756,-219.91506142552603,-258.7638895673626,-225.43655934241238,-98.75240152725691,51.910112693566305,147.8899169265101,178.58618195489416,177.5297199339133,170.22636946119275,156.70676104939207,126.4901084251773,83.17783950494002,46.81185703503922,32.8559609362001,37.67825694500247,44.38311461420766,38.96256112156975,20.753145791740216,-4.089127605788386,-33.98030108531772,-69.37912064046112,-104.22634843454838,-133.77745317483752,-165.5994666064717,-209.83066224304986,-248.0832983611264,-225.55414890358094,-114.16886007938662,32.02520405483578,136.88177887675147,178.27231842285659,181.1650127243314,172.4276163256455,157.33585786794683,128.33582694256884,87.58362502463388,52.700799603898574,37.55433613005518,39.21882100970686,45.77633305503802,46.8599159778131,36.112500877008415,13.419102768626125,-15.695021989931186,-48.001359279834574,-83.2519059575557,-117.11790401726162,-146.1343839011056,-179.94233202752585,-226.3703248447011,-252.18310400376805,-197.1026310779066,-59.53610795430986,82.57710134088059,164.5013050054261,186.3830929438724,178.27712749963678,161.33692721052657,138.1170046435671,104.40444459290686,66.46897897762194,38.01401747041257,27.213208828159416,31.899908539812127,41.30460920561798,40.97480253921834,24.600278548274176,-0.4906191065230487,-27.54293249148933,-58.60399197417184,-93.8484299310971,-125.28013016401485,-154.53822858829108,-195.17534131519508,-237.98159121534312,-231.39654508574904,-135.5385215457493,8.941683370828574,121.3713683576436,167.89325539265099,170.3439620076059,161.2839456960209,147.5601138289053,117.46830248963997,75.84610368815183,44.74379906731574,33.72283337662175,36.451523618702666,44.7542878213845,47.793660668740486,35.644535446285296,11.655223113760874,-14.918430037656972,-43.77399332306137,-76.69186440680366,-108.45346101070606,-136.7657606086319,-172.44602274407893,-217.5341673416114,-229.48223705430436,-155.0722547846699,-17.832686936560076,101.15704649232192,158.92115803137108,169.4521705205226,68.0,123.0,80.0
28.358043940244496,32.33857836511405,33.805184300940546,24.945757215879,7.166126894398163,-17.12177105951365,-48.021799378937175,-84.22672518120336,-118.63778361423638,-147.82587989147135,-183.83750404514583,-232.0113493457152,-249.55988863161105,-177.07064389993843,-32.69743719227673,95.222832060429,159.17597546909164,178.71561305944127,180.44292900987338,171.10127569612706,147.7162244183788,111.8988506155867,75.1670145411888,50.331688695943754,42.41630793450284,46.49175078252029,49.12520839504883,38.74088889847294,14.385196387405294,-16.920753770841834,-48.759442855849535,-80.4909811455984,-113.39046236766987,-146.47482608164663,-183.00482064973207,-228.04602999439206,-254.76055744480777,-207.90547113924487,-82.31904026415894,53.717567182290416,137.95726444387006,166.27109670064044,165.70490682656316,156.06435691928397,139.59605188530819,109.83678937806677,70.33993398670836,39.64141462148956,31.57787185332953,39.640224019061534,46.790931198212924,41.76554533023413,24.311454266216117,-0.4865307103458846,-31.48620432483258,-67.70322847717982,-101.35637483438119,-133.28046319050162,-176.67854269515448,-224.67391952106968,-235.23184309159515,-165.60115432220852,-31.177518518235445,96.0456935814012,167.21334055860322,187.582314192847,180.93309512643373,162.7498140306286,136.7211038506603,101.53185266346797,63.31199228148694,36.21585591369591,28.79391568580559,33.89485493186737,37.585379314286634,29.744842497469847,8.812956719197228,-18.438602840915614,-49.415251175889445,-85.6732026974849,-120.92271727578935,-149.77782725751138,-184.9151138074955,-234.49516155667186,-259.2049539312791,-196.78553995553273,-53.338005293147894,87.15107928128056,162.28045988654472,179.95811557409405,175.6070283312303,167.4617850853162,149.94850742221993,114.6125325686303,70.97895018306775,40.25972917918079,32.937863531213225,40.2456265063486,44.348646972103346,34.75485488164354,14.041930040281368,-12.114712297171327,-43.78124543715654,-79.87621023256115,-113.233348623711,-142.11758045349345,-177.0877236061869,-223.4831860190122,-250.38850939166628,-201.59691130968187,-71.63154884074463,68.82694074144456,154.7540745898129,181.56793542232634,179.16474739632955,169.00061457897897,150.649482729397,117.17282467553653,76.01670038768859,46.11455155567212,36.78762537606791,41.14199833403614,47.01421939410564,45.12199032635004,30.59169482835882,5.413085909550362,-24.701529740960787,-57.96440631013055,-93.47982123001029,-125.86328305237224,-154.6902737546035,-192.49285037648,-238.7010684426519,-246.52236130134935,-163.316208070806,-14.936496499595343,113.54235161745504,175.7751317497244,185.8356158334528,173.85595734980544,155.51557739529608,129.44997939851277,93.28525552057374,56.72778645863432,32.98148816775154,27.31759601270036,34.76685878856366,42.77594765951326,37.750410648943095,17.7898658152709,-8.154567796743654,-35.91026495400126,-68.6453155877128,-103.61741343837407,-133.3838109061836,-164.7146602221598,-208.92987661537862,-243.95620131310895,-212.77950944902702,-95.0783811034694,47.549212935962736,141.34757376178587,171.46284867636825,167.97625440280905,158.2648629718561,140.8862368594141,105.71600230995325,64.92754305570651,39.62691222925349,33.47491328526201,38.66289160347965,46.749191343268684,46.00136084470853,29.444197079259503,4.033592741703241,-22.844679443089927,-52.97524537342902,-86.30456699463912,-116.7286164113553,-145.68790618276233,-185.39893702066075,-227.35561987965144,-217.76302688941132,-118.4731554947693,21.61690749764756,124.3070911613415,165.42026665933594,168.09615027215483,157.8076520274037,141.49962095202352,116.39980509856498,83.06875457282945,51.01272047678614,32.828142329828594,32.258911630898034,39.60754888405086,41.61530663764685,32.54346119617029,13.01301642564422,-14.387365503936525,-45.99779899850438,-77.93373975899195,-106.42081585382061,-132.16670687682927,-165.19351410603704,-212.393743525103,-245.37731451250463,-206.6565483464068,-82.65399826499576,58.777237420462505,144.98425694346255,168.90578568660928,164.8323161890856,157.15169389591688,141.8054875712504,108.44659349094287,68.01496683483556,42.71405012110159,39.307521000405885,47.217980252957,54.076171601442525,51.76296162031098,37.23277586297448,14.109877066605558,-13.168537194991005,-43.04477559222593,-74.82144397858607,-106.18803399583351,-133.78771653262422,-162.77229454056064,-204.09520855280522,-240.1188362039395,-212.76702556479944,-98.36117471439142,40.57780493333118,132.89627372331958,167.03896741258194,165.5451591123705,152.02685121058505,138.05789375517384,116.88776020153554,81.63337186515506,47.43551876216736,35.19643336279709,40.695532162141895,45.16570396259566,41.45842678254611,30.751435663800027,11.703372594402259,-14.403045958238204,68.0,123.0,80.0
9.588636232852814,122.9495189665713,177.25711920397669,187.51596122827556,176.4964087057026,156.11283203822958,127.44229083230974,90.24727718629087,53.70678288594406,32.076733942532016,29.605187210374655,35.660821850743595,36.786855047448,24.815329614670734,1.2926297129808335,-26.895590859072968,-59.43057194792925,-96.42794640399507,-129.7178671490891,-158.40399943808725,-198.38479953856668,-247.23512830173541,-251.84617823150094,-160.74023755045704,-8.381801158696623,116.38964953525876,171.71308241409494,179.63734211442417,173.5443004816736,163.93515072922287,141.55794622642517,101.95009307264694,59.94443163895654,35.800686269426926,34.30483035410447,42.488327910760475,43.070465861496096,29.59918073769678,6.933667199664121,-20.610283401534524,-54.012098008696306,-90.1042392230898,-121.76548648459497,-150.9793121072587,-189.7958105588282,-235.75418119799082,-246.0038491248065,-170.2398082753898,-28.30420534794595,100.6061678812354,167.4644553410845,182.50960565948364,176.68230740347659,164.9390202636096,142.58192342963744,105.27546231316086,65.46883976027382,41.36765543575114,37.1909816508508,43.16498061862198,47.58100089999452,42.27922830829162,24.149775018806395,-2.9649031068233676,-33.96166598973895,-68.1622907372658,-103.41740981160959,-134.1922922343882,-164.0583472573317,-206.11978965236867,-247.93097376804366,-232.63961441139978,-123.61695622592906,27.64999282373021,138.53034584171533,182.61864868943644,183.56334460581562,169.02941569326651,149.0562458378915,119.83408325842197,82.11265412389105,48.11646471545612,29.527475011034397,28.566402759507792,37.69880494941345,43.06911268142451,33.191066039380374,10.526772578814107,-15.903409682282522,-44.74697513587573,-78.93009122437992,-112.82759697396179,-141.55489685365902,-176.21056460484525,-222.2276158280476,-244.15363180004263,-186.27235981978774,-52.47128063378561,81.60634054588431,155.70122766278055,172.26242094514336,165.32163151537145,154.67822970759295,132.52656042993823,93.42682233972843,55.45553794299468,36.18282606650924,34.155575381957526,41.154987759976216,47.98229768660316,42.76787151951095,22.509341077440407,-3.625946416790064,-31.06398728866968,-62.50368516162119,-95.61778123382435,-124.77528324560706,-155.6308527431776,-198.9287067417579,-232.80664055658897,-197.83150111415446,-78.26764394693042,57.49224995136098,141.9877278777095,168.72450288101152,165.80631573719546,153.78775175835236,135.2719182297821,107.36612459726786,73.07030600728764,43.9117252559646,31.059225084354306,34.2220196726418,41.16938626612199,40.167909919658335,27.88896676926216,5.7488831796351905,-23.24853197882028,-55.38256843177042,-86.62528650915768,-113.88833593979841,-140.3333581358992,-177.7250618528119,-225.80902188114987,-243.75198274558701,-177.8346936566575,-39.50079007382876,91.02178314170949,157.04713294310486,169.0122625922151,162.67748148592383,154.17484862209207,134.01887879897228,96.46104444433811,58.40544012232877,39.75671439582072,41.04983436684688,49.74184976457762,54.608595435373196,48.7648881192613,31.185423608208534,6.542943440171446,-21.561361788559125,-52.07694399554278,-84.10853574954338,-114.57813844046545,-141.45683442519112,-173.3001583917926,-217.1638629709759,-241.35061399968964,-187.2752931730463,-56.74958228566924,73.70468156353363,147.9711582187926,169.11046908738015,162.03396724696458,148.0258221480474,133.25808266389848,107.94627673532179,70.48352309362387,41.24369343789093,35.81664263292748,42.72446227424496,44.88931450819983,39.0939555339492,26.163857854110283,4.69335180818612,-22.659881413860372,-53.04374902538825,-86.24536702316206,-118.00316351387725,-146.5390310175407,-182.83637164186413,-226.29464557328464,-233.82068461158877,-155.17148887230215,-14.926090953028684,104.06810863606353,160.18883454661747,171.8222806602828,164.73110825588358,149.90712121275516,127.91065286384112,97.13118643226412,65.12270321749976,45.176813629963306,43.348883330424215,52.619782785703165,57.34420961239527,47.05901881977942,25.373526635039653,-0.007088391003379213,-27.296857153602968,-56.83558475370097,-86.51406342039944,-114.76894796115795,-143.01891387878067,-178.57565397394103,-221.96899649695467,-235.9018906484626,-169.90002083597508,-38.92404209161751,83.05801704414097,147.00508453604934,160.3051960736093,152.73729805729226,139.66025973529906,118.43890424623952,86.95934987376367,55.802791445650705,39.569984712393456,40.47161976547338,47.3979223680422,49.79167505594269,43.42774200562814,26.03347561928444,0.04062200356420276,-29.693023417322603,-59.38493542231626,-86.00796623596122,-111.16980902109118,-142.24441107718263,-184.85687941979748,-224.25746779203135,-215.4982140642075,-127.47880200168692,1.947223188782923,104.29044934739002,151.40056892425824,158.40005553990073,68.0,123.0,80.0
16.94760810328857,-11.622337955993649,-43.50316292480001,-78.48895338903625,-112.9133733159274,-142.34184205347842,-174.6135417304009,-220.10524302321716,-252.28682292614099,-210.21291666139953,-80.1667797423174,66.38995972699747,157.59587678599462,185.86708312867458,180.13005880912647,163.8540322076163,141.7828736203858,109.413337519754,71.261952907796,40.85955818225724,27.60917739320006,30.700675493545447,40.312945839273446,41.97401464875081,27.516975133244458,3.0164655918366554,-23.81056745404355,-54.11356507244891,-89.19705841631341,-121.45978675510874,-150.23945042778092,-188.967695823366,-233.72336484683822,-237.23554457048553,-152.84731935308685,-10.00114832587503,110.17612043665684,165.0458362184614,171.21945123542585,162.58186619895037,150.10915277903786,122.54257978642804,81.24787134751038,47.70548616484894,34.20500193820976,35.58642487353626,43.6696825345873,48.14685233505359,38.17088700940416,15.135115544691125,-11.330632358621319,-39.6668299403743,-72.21000272179286,-104.50733473896088,-132.89392447764783,-166.84050362043658,-212.0235411326195,-232.19624173378588,-170.1358694530086,-36.771621694886825,88.61001089741218,154.6192692050388,169.6371881132746,162.89170655236103,149.25567402367474,128.2167747833034,97.73119917619572,63.50276164950438,38.25301807301534,30.72004852766815,36.490842382541054,42.000649500220646,37.75210546907759,22.403363347212682,-2.0921346874640254,-32.37368628320948,-64.69120751901565,-94.94631550978467,-121.20805286803605,-149.47257466146712,-191.4649870380504,-236.85903638981407,-234.6308483907066,-142.41099994304648,2.782667623176406,117.36106913759849,164.44861300302117,167.75047524617509,160.54310696147266,150.1906539956899,124.58972874475006,84.41373352339707,50.5748993946056,38.55193334755473,43.38632797999527,51.91991180035492,54.21091291903509,44.73863432966818,24.564771962586015,-1.2940952299553274,-30.15457254009031,-61.25289000236191,-93.27117487138752,-122.57972290702654,-149.51380202726736,-185.12086591913777,-228.86740553563183,-235.58097444627955,-154.7856469111873,-15.3618911715037,101.68303052133675,158.5067660270186,168.8565873094671,158.04156031112336,144.09851360905182,127.51603613264808,97.80072168858315,60.054790339302365,37.26838081828848,37.493952906585896,44.23344989601857,43.930436640220485,36.1676874843427,20.81811718883549,-2.8064824599419347,-31.136897460881958,-62.42039132271673,-95.85681946527406,-126.28942174976271,-155.65995511205622,-195.6865005072376,-235.00070561876117,-220.76287535621609,-117.5522840640231,24.934612081662326,126.64268915693849,166.72253311437365,170.95955583436432,161.05896005549576,144.43780510141443,119.80829260693808,87.4162303867957,57.6219455610936,42.850704444815044,45.504491703790464,55.15294852351937,56.00370470593637,41.55655653502578,18.22036640577301,-7.648455937521744,-35.658137650203464,-65.5045006489759,-94.83862880086637,-122.73585480572923,-152.11161178428202,-191.06709992633213,-231.68650988785748,-226.1317660439089,-135.87234850417053,0.5022643626847432,108.09464206762385,154.7362741210273,159.14158143858307,149.42675634366978,134.64709145978185,110.17694066136141,77.1933523697062,49.15133743069735,38.40585222067977,42.456890629011035,48.816704385116296,48.98600346851667,39.54556495173952,19.17551414727749,-8.343679240030935,-38.44039465791591,-67.4507853059785,-93.18391592371279,-119.1425947900673,-153.43442805396774,-198.0950795762576,-228.9809923167096,-197.95736422296494,-91.10674199082005,36.62425851294742,123.44260678394835,156.37631588851625,156.56602826482347,144.97366365515708,128.18122617229787,104.06047864722622,73.36182397974994,44.57887725103038,31.245283190067244,39.051467499520754,55.19460106913866,60.299402863888,46.568835733112,20.850969964733668,-7.308868353418406,-37.01915198326018,-67.94346957256504,-95.62063794570001,-121.31876355708661,-154.2284915106651,-197.55805326117084,-227.47624338583398,-195.19381144176313,-86.86468906941215,38.62235961769697,119.04144433883421,149.2538366139182,152.1585716031326,142.83729182064906,126.26010231161081,103.08475294048245,76.07956084818089,53.151238157005764,44.309496173344456,50.03321577191415,57.635331027095425,53.3685449997707,33.90404882928133,8.212566679953634,-14.954279710757858,-37.60155585014338,-64.22838353908912,-92.63627821149859,-120.69423943493874,-151.75432066856015,-191.05572497978946,-228.50516852634655,-221.54210122319574,-133.31096856408053,1.117856112937963,104.18994966042912,144.81702330479442,147.45244845893455,142.19679350778728,135.8572446057062,119.97240088198288,92.19461256590382,64.12511039411382,49.888182688514746,52.8785018415764,63.7452450688609,67.38677150166555,55.67535036547291,31.463300384621277,2.894386262430718,68.0,123.0,80.0
168.86225809249396,159.51002847440287,144.10897464021554,120.31676809091614,87.72601800649882,54.713740335880104,34.16917648956711,31.561790945814668,38.70009887474359,41.954996794070354,34.39618156219344,16.142184567447508,-10.414224460076845,-41.675749538734024,-73.81588598195027,-102.88260280658348,-128.6255006114345,-159.89973341457414,-205.82156473393093,-243.9192807627773,-217.36765369656635,-102.19898466194087,42.110879537202706,137.61870717663695,168.1593024499072,165.8143570060598,158.3010088838363,144.82215483075754,113.7783543682114,72.9436093544358,44.72894649869802,38.799531200997905,45.99912660431773,53.55463886429942,52.78320747000504,39.78844902021962,17.494099255341027,-9.370130109118007,-38.93613764030889,-70.52931662815617,-102.18888752929912,-130.28354019366978,-158.34342402494227,-197.981882643755,-237.58865950452486,-221.86027058889275,-116.98815768657624,23.760530784208648,124.26760102545634,165.1257490856788,166.8805492504382,153.91306033821317,140.04901403109878,120.55359698725715,86.82442550315479,50.9994474818251,35.417157699212524,39.66829286546825,45.04486090624686,42.366650817952376,32.61846240650791,14.73607952161002,-10.67677972602116,-39.844805470631236,-72.02925874568173,-105.16758872454824,-134.3783572532439,-165.82644223547786,-208.82630988118333,-239.1563735661286,-199.58091228232686,-76.42397874426285,60.8825676420499,143.74751128700436,170.34727997485007,169.01024767977768,156.88710267119734,138.29133933156606,110.97300236322218,77.90261125382906,51.45000671242599,42.06751710301065,48.28890782366028,56.881770422268374,53.281558266490855,35.32511651254445,10.905132975249046,-15.472768677479236,-44.19314081436119,-74.11679767683192,-103.02419204547925,-130.76965427828438,-162.08599605614197,-204.03854397973265,-237.52872813631987,-208.6580217322747,-97.7333660822691,37.17113587662651,127.67173252068532,158.90125894289068,156.95458220355133,145.79349716511894,128.7735547910793,101.10491713391184,67.84681014504346,44.05911516781359,38.550829624930685,44.59219651645892,49.681466802141806,47.37925455735147,34.70169423502062,11.723930954966221,-16.93658774931088,-47.09518431375796,-75.19846821082514,-100.34356114786965,-127.83677218802771,-165.66890642146635,-210.4067923818397,-228.304588832405,-173.52161128098678,-52.970336276141545,67.49642705279057,137.86808237943123,158.64341702363475,153.8570989417484,140.69304662839218,122.06624589113912,95.63999427527007,64.28195681265422,38.584890504631716,31.55121815170784,43.79026324032098,58.45465357738213,58.195287727556135,39.836294169350616,12.769399403771292,-15.644893755681096,-46.004488704600604,-76.41812211212644,-102.92440217331831,-129.6548137440867,-166.04715936084534,-209.5592652786811,-226.51670950958257,-170.2469469883065,-48.78903791485282,67.80453905300882,131.97767565702716,151.98179812585508,150.36074992036475,138.73857730249068,120.20688567969978,95.42694301240678,68.56197147304947,48.83495164579796,44.85010417722229,52.749608564427824,58.032594173619565,49.08575516449948,26.577556899048172,1.1438395156927021,-21.260526462284123,-44.86468956703568,-72.44445588523038,-100.7252786893873,-129.09840812230735,-162.17564597264618,-203.35728514265162,-233.47256172115797,-204.50794101959906,-95.72500107597682,36.87838055065109,121.92244820637352,147.8413046946635,145.95803819214424,140.75216965387483,132.62323669717574,112.87777308002487,83.38773389937751,58.177977462363714,49.18145764157882,55.87321001528144,66.12614174953003,65.62429395285255,49.650962974565,23.261670844246115,-5.021167451844678,-29.938947277434654,-54.68177059388882,-84.6021191067678,-115.03908109274582,-140.27122603780515,-169.22724112374797,-206.8436670998724,-220.2918910717623,-160.33762392769404,-38.197179828829576,73.58317099564862,129.89253324227838,143.2828690194193,140.332246574345,131.27104269399243,113.95989180037641,89.4433183411623,65.41311838043838,49.941443472213656,46.53525624896907,51.36760823783776,54.50758546012939,47.59476301629102,29.677252640101777,4.587621727249415,-23.05221490439476,-49.04992079307685,-74.49306194925455,-101.2315172801539,-127.28049948491835,-157.4251969037203,-195.42939929535413,-217.67719544703314,-177.47354408342795,-64.28850141827405,58.521740279154756,127.87134321521661,144.77229888418924,141.47149683656858,135.57871027666204,123.65321618201175,99.78970236813026,71.27398086777066,52.898813884501735,48.60359669576199,50.85493343648522,53.68531518134307,51.67049570450033,38.07761576182018,13.982953961528336,-12.76810201925371,-39.2945109023843,-68.16469525610601,-97.94338945661795,-124.31527412648965,-150.28150915986956,-186.24810911672122,-220.65827650709647,-203.7491213870685,-105.03203599646776,26.42601590259158,114.23980891384684,68.0,123.0,80.0
-18.825109780915582,-48.81392082219941,-81.76096193937299,-114.05621440179017,-142.59696730026607,-177.2022116227392,-221.21286297906744,-237.1702723369455,-170.7344111088941,-34.15135435464228,91.73527903771652,155.9779916042662,171.7583997981716,166.23547165510848,152.22965876290877,131.37429474033195,101.57972289013202,68.95745332963003,46.789196190647104,42.67003808182993,51.28632137758521,57.496349593692955,49.281903585083164,28.593331925101296,3.4653848904680813,-23.51344899896628,-52.83545572739958,-82.63026869209185,-111.08452496352922,-139.05146985251307,-173.12250647099336,-216.62562511372946,-237.9280099462524,-183.6950059461801,-57.55128448157619,69.71162831356258,142.01441345118897,160.3393474048053,154.15966664615468,141.7273912146374,121.9297676263918,91.48422969216271,59.33889736218801,40.61301055227962,39.699754334534326,46.588008247809235,49.91449676888333,44.89101465042593,28.956796252625495,3.811340930885732,-25.65467358339889,-55.56504537198473,-82.65155303662179,-107.67383446377524,-137.4560798762603,-178.70380644307554,-220.62196722800763,-221.16127925949644,-143.11642281677373,-15.005586356545408,93.80453176932674,148.00756106624547,158.84406135383804,150.55436550898395,135.9905405106117,115.25642618695387,86.75667185704442,55.64488175541251,34.23673957153335,33.60446209330791,48.72814434511298,60.36467042276931,54.48459261216042,32.39763538647263,4.649245561493854,-24.174866519614163,-55.02153462870784,-84.49726515843997,-110.2008635196552,-138.86873458869493,-178.6870528730614,-219.49712043050715,-219.03394107330936,-139.34193988387156,-11.338431789835402,92.1717375349883,141.17158372120358,152.9991636836352,147.77998007430776,134.08074931457924,113.603992350939,87.55951176200226,61.631473501950566,45.93074024450457,46.46208712792509,55.222424388084384,57.15588505785888,43.59069870102918,19.047141301299988,-5.5856011423756655,-27.686628703158817,-52.51562896940406,-80.68902701695855,-108.7875838321816,-137.8822200231105,-173.4235980508784,-214.99161447087096,-233.34524278111562,-180.1794145008374,-56.044826533311465,68.17589214830348,134.42439459238557,148.62617282208734,144.3690728715013,139.12517088424647,128.3329144486711,104.8755126362224,74.95761431528064,53.67511201063182,49.86384701483393,59.18518087617961,67.53312733914522,62.50321501409117,42.73623751550795,14.921434978731307,-12.590921543102434,-36.78409920694954,-62.76464243250311,-93.7858134747522,-122.75089077907577,-147.6206887407185,-179.77208694819328,-215.70229214882707,-211.72281178745118,-128.71872514647168,-1.6074424850500026,95.81314680379147,136.84055692458602,143.276614941833,138.34916950151393,127.22929182744596,107.35810992335888,82.04402900363631,59.794684604930886,47.73020178728517,47.45947368154023,52.92305570618426,53.738460841076964,43.41133070196049,22.97455293450659,-3.3652690624174064,-30.810987203798565,-56.28515760857295,-82.16341154661676,-108.82700505674377,-135.14204312865908,-167.95925612116355,-205.40479062497172,-214.32833191463808,-150.62191624601041,-26.041203899803335,85.21508488407477,136.77930912253373,144.6310491668776,139.90188674233707,133.16576519547834,117.95852097290813,91.35608508696836,64.42253149306785,50.45508357321637,48.93603109272734,51.79123571521149,53.936444731528134,49.10262978790836,31.876007636712984,6.223615459110418,-20.35649908470753,-47.333404680495974,-76.88473329286465,-106.01491151128994,-131.39719859176972,-159.39231908826426,-198.00372216323,-223.56714521377214,-183.01612999472968,-66.59362527257821,58.53100299520779,127.15532710182083,140.85279015292673,134.75748474515842,127.77105149673687,117.14934651918634,97.55280938640543,74.70569056812674,59.83584403871221,57.063320326342385,60.53011066228342,61.48409557261502,56.10185573626315,43.32143568419437,21.56949034626326,-5.685796159427643,-32.21153338918531,-57.726803283726554,-84.31907612789293,-108.8874631594355,-132.42297544027127,-166.28033221687795,-209.02338846829974,-223.3858758701464,-163.66233779874065,-42.63604841221998,68.82873495321017,124.41040105129335,134.02391994653786,127.78735489751318,122.03672934785857,111.26364448730355,89.36306303162529,65.8681311505808,51.20388488268284,47.735009782096775,53.847769506178864,60.38462656746118,56.127815932409355,39.46861753360371,15.625491571710308,-9.0435851612075,-31.0124179725353,-54.49212544194857,-82.56510866002282,-109.45483169278683,-131.88604824791923,-159.65266915388904,-196.10154209240548,-208.72560941098274,-154.0933862151981,-42.792124457737316,63.596147701866094,121.13995629604307,134.62562430557998,130.07035999809156,123.46375661042627,115.21885349277417,98.80474309874131,78.1875644239692,66.48777115848009,64.38660800465951,65.09313538261917,65.72661593235789,68.0,123.0,80.0
157.54185619672765,146.82063518167132,130.78047454684193,107.74624969221495,77.60475606215779,47.8143691130826,31.743733391081125,37.08559808001271,53.32576391776003,60.70423634347299,49.34716731546041,24.545345264419108,-3.5150115173921965,-32.921028021006215,-63.92144889205209,-92.18557867164402,-117.70520745235756,-149.1283483428978,-191.66396407911193,-226.01356089436743,-204.38855911754882,-104.06439257895022,23.686519681076255,111.641278827452,147.2915735261961,152.6777316276348,144.53550236737226,128.85937569186208,106.50310886758952,79.66667652037933,55.574230793072886,44.493405118622164,48.809675764373964,57.078427476854365,54.88866941078757,37.127376994000485,11.579341179104654,-12.037226542404253,-34.38868636743242,-60.48098886061931,-88.88407661741677,-116.90419111483556,-147.21777210867143,-185.38591266189619,-224.88514176628357,-226.8958003316751,-149.3406045533515,-16.492485708232973,94.12957843803693,142.4107555581831,148.01224434806338,142.86097603411991,137.04638463871987,122.87949626867965,96.26611367138199,67.29968306438784,50.72247264857712,51.71332068592751,62.403892984426285,67.7375505642901,58.10122490527427,35.13689221053931,6.643631851487969,-19.81834474041091,-43.786267431368515,-71.36786490164636,-102.75876967622482,-129.99294221720035,-155.66804673202282,-190.96487395554527,-221.2451922810574,-195.95725531741405,-93.1098097046244,32.091425383769874,112.98571853185706,140.92936525554097,142.46357042881507,135.90056527951427,122.4015478347267,100.26514568894056,74.91365750072032,55.06200960632603,46.556994728436685,48.89550860131511,54.06170465644203,51.980649299651645,38.36838486543765,15.776751064339042,-11.407494595079376,-38.35103928069221,-63.57649921440701,-89.92781111269231,-116.30604226617652,-143.59417317661837,-179.1180382913173,-213.13175201857095,-204.50345557554007,-118.15916617897861,10.831703915446367,106.44242139137202,141.96770846477284,143.6085310908679,138.288297761463,130.01137528488198,111.20183024514066,82.87246749458848,58.77056986144285,49.10328850913983,49.59227171218013,52.68611976762382,53.61025102678044,45.42069554913739,24.94351159458852,-1.5506125232190549,-27.956439044949654,-55.63591119838721,-85.57718178792017,-113.69825547216107,-138.65106129636408,-169.6209254570332,-208.94738867658037,-220.64369812016196,-155.321968809316,-27.46545818662189,85.3788829608591,135.26766321922477,139.7611759654543,132.68089506695927,125.44097853451086,112.39695513908975,90.76498651995357,69.20042368009987,57.894738813038565,57.84479781689298,61.35652708369114,60.610313108758184,53.262098506920104,37.94260393075528,13.947353739563708,-13.586783705616718,-39.53751985216665,-65.3417174282065,-91.80825591597255,-115.40214729591749,-140.65897306748508,-178.65887365819395,-218.5047086377945,-214.77232533246007,-132.3427486463347,-6.260782085229039,91.05547732810135,130.5774690053757,132.6841894596165,125.99111102140105,119.96644546729016,105.91169988866997,82.11177918800792,60.51721552847954,49.036948108861715,48.75273548186565,56.27744432561273,60.55938199923759,52.40253270428779,33.05149910739833,8.297768551985767,-15.606979914464983,-37.361145756767705,-62.236654191389015,-90.82027709466394,-116.1785031673883,-138.76679144134803,-169.94678943972949,-204.49719104838022,-200.81505547529488,-125.46141579497491,-8.719409534236839,85.86848256419302,128.439110907892,134.13993135100418,128.09120063112314,121.54336554852884,111.47454397063353,92.67796291876614,73.51114455940551,65.24637404080507,64.47147094985489,65.42151712442217,65.25644537497898,58.17565183926544,41.96093589369819,21.01359874751788,-2.0692589644839106,-26.823270199341085,-51.58290130420211,-76.47042909203202,-100.37871727012617,-120.4829949928961,-142.90613822376685,-178.30012286301167,-212.9197867861646,-200.07438086630376,-113.54870251938578,3.934228887211968,87.72419699835501,119.8928400630167,122.21896967109863,116.25983704066482,108.3961669333869,94.78797008920016,74.7876707836589,56.80414837096648,49.76256066087842,54.75508616175169,64.0024928913185,66.69205357696185,56.46651083133215,35.61617189189853,12.888276004291692,-8.70463479001662,-31.80333886230891,-54.68110451724102,-74.01932130524033,-91.57668686720073,-111.45858143976722,-138.6565619019364,-175.22489931586205,-195.86148742864108,-153.49353930440037,-46.50587174935195,60.57135173958248,114.37260129038536,120.23111885949356,111.5245310893833,107.28217702237808,100.74870120172379,82.03349279125973,58.72140021314941,45.20870993857358,45.834245699830404,53.326265032426164,56.78139781380335,51.84515005145318,41.179867430864874,26.68089851266733,6.783182593872679,-15.766479675337637,-36.76562462630657,-60.21325187619039,-86.82441781048442,-107.37133641365477,68.0,123.0,80.0
-1.4121926893248025,-26.780787658174845,-51.13524938399871,-80.37272986772133,-111.29197241986577,-137.0133439208076,-164.698698654115,-202.05863479302755,-221.96167861343343,-173.08082205133505,-55.565695442286206,61.608087561791095,125.50882881025599,142.90342146068207,141.10551649161178,132.8845697301475,116.79170898388752,92.88271281490755,68.26406214206125,51.317385260168784,46.345344318271884,50.582105974044964,54.55236025858302,49.20775571357377,32.57277046174159,8.187488414537976,-19.40859109870389,-45.70241096845074,-71.00869824374037,-97.6848184444978,-123.78080606882523,-152.85403419993136,-190.39572177814443,-217.31327293258,-187.63305623043559,-81.79480395812904,44.48430060822229,122.26922835159648,144.36228390551437,142.1815871789895,136.51039208175217,125.9056031421748,103.54727313854576,74.76897663418323,54.44491814412506,48.60982831662696,50.43343380153541,53.43120932010491,52.49910054333981,40.63287964386138,17.512721816188478,-9.249725063258769,-35.67182240275974,-64.17165525751687,-94.10370258695593,-121.02429734670933,-146.42612643328144,-180.84830773474698,-217.74467703945083,-210.79458765731044,-121.89198159033405,10.141831340588528,106.4616980975469,139.51198245083927,137.89208205384074,130.70869836468114,122.5980945909098,106.83273573367116,83.9755446907912,64.62117358397786,56.95659946111428,58.92220179072405,61.77849598849441,59.18558594603492,49.762364605439004,31.78642370164468,6.028005457626383,-21.29515255272768,-46.857928238994546,-73.0638108257384,-98.99051143508868,-121.98064307135363,-150.11356717854824,-191.46900163837134,-224.3163453385001,-199.03227458038216,-97.08199846139472,27.33688689524518,108.1041138632677,133.59069904635714,130.7520019041503,124.39827324048521,117.15854586534894,99.62760975502188,75.09617861526277,56.057430942948145,47.82055625933437,50.49059193264253,58.424166791526915,59.607860435030425,47.72332990929462,26.175746199997633,1.0738082835835192,-21.931008416365927,-44.00900737547016,-70.36329933275604,-98.74558953059194,-122.56763145032517,-146.46888619431718,-180.82911641281217,-209.67107483646188,-186.41014327373637,-93.12760712990845,23.222947016456754,103.46440812825804,132.6190562737019,132.7827109964329,126.16744977218247,119.35558547198471,106.88258108748168,86.48809747532502,69.88674367825247,64.6248874783942,64.66933892514541,65.6949373890866,64.18085771088111,54.298747394697486,36.18318262523376,14.561689713536145,-9.118800535843189,-34.01985916332647,-58.72456889859596,-83.64670823345143,-106.55983685495856,-126.14676064090786,-151.66409310665222,-190.04398947648332,-216.31663549207533,-182.0544490091082,-79.54509658445954,33.53878558881137,101.72230777674744,122.42439365651158,120.77761101668813,114.25795847286638,105.26406115010154,89.42703637841777,68.90065528277314,53.41145814154307,50.17176776398274,57.485089359094566,65.86346123076244,65.15565705325794,51.17867378844758,28.908197273467913,6.648678429799009,-15.178353150210231,-38.63849808070066,-60.66173711737732,-79.08736191281764,-96.91148664586527,-118.2737234318178,-148.62524813868413,-184.92240017429322,-191.66782242213202,-127.18420564861071,-12.211386715762456,82.39060987020997,119.61038983152463,117.84348834016758,109.74834786256487,106.2893386135984,96.61366337215553,75.06110848123028,53.36411137501785,44.07817332653118,47.81010528563067,55.109888651214575,56.17887477785258,49.1809821606834,37.4326194582447,21.515467182205462,0.24965949306877888,-21.960380065377628,-43.02323755563785,-67.90177058216565,-93.73516393729555,-111.84586511404578,-130.20687128113494,-163.438688615857,-191.39536104270542,-163.1237803233554,-67.92483223676646,37.12774705830243,97.32129180077993,111.31098605675109,105.47639771269056,98.29230028855665,91.76125844152455,80.57574322028302,62.23212585407256,43.72229532061795,38.05789218207344,46.211166503970304,56.65724224564137,60.54883866364029,54.6370282933814,40.82917689705902,21.85861769152806,-3.010081243022776,-29.85534964467331,-51.55936520974252,-69.26219255004682,-87.99758777378257,-110.25768140627508,-140.01944099106834,-172.83326683020618,-179.78002125751243,-128.7287353841944,-33.357730786042175,51.998608310010376,93.19411100999815,100.10900775118893,96.53408040484592,93.22097734780054,88.54376412628912,78.1579184820477,62.756733210195975,49.21618709204136,46.30508851943577,54.98092094588139,61.414540556454114,52.81431267812086,35.756746103751794,20.83491299502719,5.964795769452845,-13.217561792427238,-34.58682054002218,-55.45289287355903,-75.38845904245835,-93.70057056362894,-112.70815200039091,-139.49066826641035,-170.38448623637177,-173.329176640254,-115.7352586508884,-18.98725902762334,60.529524735080464,96.06348147359621,100.50696793870674,68.0,123.0,80.0
121.84716654144357,140.9026983818618,135.74986577719622,128.73328445400728,119.05480516540862,100.59461781215175,77.50200945950166,61.09355087383558,56.87086010743949,60.05278255740165,61.70126610339492,57.206559903881995,45.53295387435588,24.930423136294497,-1.997116268907051,-28.803808703603195,-54.26538293622266,-80.791873346097,-105.83169997741187,-128.96353225598963,-160.8928887280995,-203.809132547881,-225.0740755764517,-176.2990308702253,-59.87194739025796,56.84393976746568,120.28171896570588,134.2743161596053,128.6940524781082,122.82984700661555,113.37270950375867,92.68689217331276,68.61502582665322,52.52031266833207,47.550580953745055,52.727021830943436,59.96048752481578,57.48829467076751,42.2330772003601,18.993991140206308,-5.918303868154381,-28.141672456561544,-51.07598587514644,-78.70627960453017,-106.1953215815939,-128.8940635019456,-155.23454482582093,-191.5250267070352,-210.29168589478377,-165.6368605628671,-58.79775117804151,51.800886118757205,116.5289639932995,134.41076945016133,130.97220030634958,124.31390835245924,116.67745446868507,101.50031926180948,80.65204874399303,67.3343661701598,64.40261832166232,64.94666573529825,65.78844753020506,62.3535482993732,49.69672370026845,30.15085774387496,7.936868643881968,-16.280943349106387,-41.17458111369593,-65.91213917066531,-90.66088987499646,-112.37007640474886,-132.29802626396702,-161.73427884254372,-200.9962852414239,-214.36375914569157,-157.80553371218815,-44.70203465761476,58.97026690710962,111.58182700963778,123.17135073876759,119.03395149196601,112.10140624670349,101.50399375787055,83.61468914365436,63.456752037489025,51.1039582027963,51.51757426883586,60.307488326891914,66.92460048813454,62.44639568162638,45.16580376544732,22.275412737983277,0.46189123043730046,-21.839400624670414,-45.34396205632317,-66.29727492348782,-84.10761923691884,-102.52735803546636,-125.86274579618544,-159.35085432317183,-192.25606396281825,-181.03532475431152,-96.25096977567468,20.07764228223544,99.01060644134975,121.51310913805409,115.09975642089263,108.52855921125632,104.72689829933378,91.34136161552274,68.08265246907108,49.13246145921807,44.1049733648684,50.08608767963531,56.30999843110698,54.86423916994863,46.14710567016339,33.36075187049066,15.844414763018708,-6.345163068521323,-27.984222986420544,-49.66974889574961,-75.73776085198075,-99.85674497528743,-116.25853959978464,-138.2146521553736,-174.18743266448044,-190.92032061747273,-140.90070343137248,-35.34407952100908,60.191313281741344,105.06092865409568,110.5221929624859,103.1798223708859,96.54551151047878,89.23180474053096,75.93047239837978,56.30219822835399,40.359712021109566,39.41358080037706,49.51585454905294,58.68755032398035,59.85912224455603,51.27707062966824,35.87749829443407,15.275337872356625,-10.936850014760623,-36.804175412353864,-56.822889036988684,-74.43734975759706,-93.93314312469819,-117.9284477116521,-149.97233561847406,-179.29267783760628,-171.5688257711412,-103.6165809212128,-5.2894010985927995,68.69714587812653,97.57086373968986,99.35861105831528,95.46973253051176,92.23341061329438,86.23491518859068,74.01415767066227,58.24342742275686,46.983144720356826,47.97762848791003,57.906784242348024,60.55176911901631,48.11119115720843,31.08561589732021,16.837874910442718,0.8686718987848256,-19.338448202398833,-40.70638814427389,-61.32869151460028,-80.85870085175196,-98.84732369993283,-119.38289066325291,-148.8536278004372,-176.08346031966968,-163.24377436159313,-89.34558338761903,7.874222091731283,75.2660491057262,99.47887949129576,99.29126681152303,93.74378502267935,88.85058622311396,80.97951317285292,67.45903540909792,53.829796304889214,47.70538833920611,50.178205161861484,56.11965659323428,58.37765980209354,53.164551727794525,41.29860433355637,24.852587196070335,6.428720813110982,-13.709687497100488,-36.78030900861255,-57.88065067016881,-71.51979116759493,-83.73113174103499,-107.43142185646344,-144.75993469231247,-177.78245660615096,-171.63234203752558,-106.89724073056217,-14.188450686250157,57.36528424476041,91.39005211229349,99.37203540621655,95.47742374601287,88.66208082329453,80.08106619389478,68.62496256179489,58.29262138811475,53.54212556394256,53.80443401534412,56.15889420475419,56.29255081592128,51.17554652438632,41.00468200823015,27.440461798626988,10.837121246522488,-8.755243399329334,-29.41698889146872,-52.851455517172674,-76.94092489514576,-94.08536534565629,-109.46458123973302,-135.86813108573068,-168.5967187417765,-173.13579610394913,-117.82812746391238,-23.999151116199265,52.507046949260335,86.550664790804,93.2519155602834,92.31056616165607,89.11913584030248,82.45462073096994,73.37490202522442,62.12183919242844,50.24429488660879,45.025598031733914,50.078884165680066,68.0,123.0,80.0
65.53798546238696,59.690103062408795,44.50836682635743,23.933899186649032,1.129166500454192,-23.495484808806886,-48.29933755752639,-73.1385085986715,-97.39512671834277,-117.9366673802462,-139.30171495945777,-172.9094503033555,-209.89380817682576,-206.12816052270816,-128.4126434002921,-10.86992973516241,79.7422344379946,117.94190033917434,122.7087080396427,117.15320298032943,109.66025799320334,97.06119331308055,77.57552459540574,58.7042206631474,49.92815454834309,53.60691765945121,62.933786649176824,67.01397867317506,58.59682121691661,38.68751559984745,15.80957940234696,-5.781138633417505,-28.643096635036187,-51.806678006007054,-71.63527511715193,-89.18777813472347,-108.52706657773959,-134.38679134680837,-170.3134180112927,-195.84271615580056,-163.679928249536,-62.47773015945525,48.82295837214978,110.59439780368483,121.01399854307087,112.54346066163211,107.65741611220398,102.25755863214539,85.12781058289114,61.511920105392285,46.15110350421224,45.108526257072,52.35815554191839,56.80592929179458,52.922249753481225,42.81120341170771,28.893949282929913,9.723535282951554,-12.83781519458859,-33.969446228274364,-56.78279965307856,-83.42155154069218,-105.16103795875662,-121.14524638610848,-147.72740216104927,-183.48396698961466,-184.40816658328947,-113.60536953560621,-3.8303625549873654,78.62726802094276,109.43517336152507,108.77126485154784,101.0497993978651,94.76045924839812,86.17246504184781,70.67662449720652,50.65655417630378,38.37971632551799,41.74604542909094,52.69160912671968,60.02430793762953,58.31548634328154,47.35954923082818,30.52315485323927,8.15869046472956,-18.83433395886609,-43.18242853037256,-61.891887079587484,-79.79048204532225,-100.21226517726515,-126.36471931048206,-159.89654929057752,-182.60791152640897,-157.90621006553624,-75.77803786384705,20.465418851991316,81.34188545315874,99.69145324325956,98.25248124358961,94.52207994482129,91.01390890630594,83.35891672713063,69.53809887273896,54.10177979363132,45.848132242851754,50.509046876241015,60.16007084030925,58.27053856218635,43.065881323408234,26.74915544707663,12.666597809399422,-4.626744809731368,-25.539737867081236,-46.74979407211975,-67.12509412582375,-86.16514518940129,-104.17062257274968,-126.91937722103036,-158.26017180621923,-178.34263546441787,-147.57637573113283,-60.906339860517,31.917028549254443,86.17616862404051,100.87947424703337,97.72452000734292,92.30622667621394,87.1323548769756,77.5564580568945,63.13731737131924,51.08486388254187,47.680295391385805,51.85786480765209,57.4247532276624,57.662084194620064,50.33087113251044,36.91224956963289,19.633413233384125,0.8847559708143408,-20.142674357087934,-43.443752716768905,-62.58892117342093,-74.61005880250583,-88.96368892917745,-117.20310854130577,-156.08512652608917,-181.62646727141092,-158.5795226189318,-80.57552338645928,10.194868511821745,70.79397501602816,95.67737358873171,98.94214000045599,93.61262314934311,86.46395439815672,76.99988650938052,65.245071043772,56.290509840566614,53.20706972335104,54.438570179292455,56.62221982235447,55.39602157380938,48.689731042658366,37.36976964950158,22.998110386579224,5.39340245909372,-14.627555678048209,-35.787889115929076,-60.12925730839393,-82.72442354496293,-98.0884745509855,-115.61659709579476,-145.70248665947688,-174.77740429243661,-163.59875325818948,-92.25265817993368,1.9799185549725469,66.52218777597369,90.2185166015153,93.24910991913573,91.68329837055327,87.54224366486157,80.0217826409753,70.37642315234251,58.51530736446532,47.6980610490548,45.569471739413984,52.59136256523918,59.14823237068591,55.377392790132674,39.40814560916172,18.462864657058038,-0.03959764628543028,-16.099758008508278,-33.20404356307132,-54.49869275059508,-77.23368249044053,-97.01517737118267,-118.77308010277949,-149.5598664160284,-173.7194026208469,-155.53294130898124,-84.01559229339863,3.161108950275777,63.86136780927021,89.43005792941779,94.28082255222965,93.00924501829094,90.05143504874768,81.89459518491688,69.05532057336082,57.60380280878146,52.36667610714038,56.64178277962384,65.98819326085861,69.04992510770184,59.935864374989464,43.50332565509193,26.598615348001935,9.68402342554838,-10.708588559953789,-34.488875228105655,-57.467500305774166,-77.18732122770865,-94.87926168208979,-116.44578748033369,-148.33348141485072,-179.04323931083908,-171.8698158077306,-107.25698587075966,-18.620779076830576,48.31588345987739,81.41675415854965,92.49224665203849,93.50840923775688,90.29050739901768,83.20747529806924,72.33045880523008,61.00595892760433,52.41220130441348,49.254015902055855,51.71383091955574,52.56262131254129,45.19384255000636,31.428178456003348,12.14465992107295,-12.220392489326144,-33.884918031819346,-49.094826525342974,-65.52790366268104,68.0,123.0,80.0
-109.82038522125633,-127.03516786337524,-158.36171649653085,-189.85399752940478,-171.34360560071997,-82.80147036271408,25.04322978914787,92.43061430039893,111.18447608380046,106.55261209165235,99.12412529806369,92.78138279982534,82.49429549945896,64.95985667761359,45.685083163169885,37.841748324972265,44.71965976439531,55.51868535389206,60.57642645980234,55.96744649860152,42.982832781963744,24.710563810036923,0.5901063240371774,-26.474008177106032,-49.02093172271171,-66.9217407167229,-85.35369777179548,-106.95417556827863,-135.56172506403206,-169.08677821459852,-181.78459596157344,-139.01663474553328,-46.72784333204114,42.92914619205358,90.22552944196259,100.22792762172648,97.06381876296568,93.6357943219317,89.42940451382981,79.9192880994788,64.89738169699265,50.57273938631494,45.891840596590825,53.53953158431657,61.325560191036566,54.76027695720214,38.016647067228604,22.670439982619076,8.171743991618866,-10.449691040926938,-31.742181911362724,-52.721643198029156,-72.81261688638847,-91.33892567317652,-109.88170187921517,-135.34409326408758,-166.91884363576165,-176.10478222278394,-126.78905524622634,-32.024462358392825,52.39840993104679,93.6390231877172,100.85387791988184,96.0588659199514,90.94352331814792,85.00964174230614,73.66792519586296,59.02144132000051,49.11990420142638,48.319594990645854,53.66073105837343,58.2480951842692,56.28840412699435,46.991115509854126,32.193125774098995,14.323272764490854,-4.849838087226118,-26.82810173846125,-49.736103496667134,-66.60204047850758,-77.8736464726768,-95.46740014571012,-127.99706619687647,-166.41075934134773,-181.21637637871174,-140.54265103232453,-53.20142566671336,31.75422448062014,81.12477597807266,98.18427590181476,97.83161278059951,91.65530591404695,84.06568508127916,73.67921075720616,62.1202978133551,54.813668506349714,53.23830223470236,55.165056752435426,56.78075314991182,54.02218184879724,45.812312934470846,33.49808988357232,18.277914411584387,-0.26699324052525536,-20.54580170083581,-42.49269777902532,-67.28156292822499,-87.7684849063851,-102.26062334929878,-122.98540239198347,-155.66962905336052,-177.4771777670926,-148.57656386698645,-64.65588638952345,25.134702400196073,76.90952073959761,92.21794054110103,92.97350763763808,90.84814242032377,85.65967360216499,77.43330233015439,67.16918704538733,54.948935039613744,45.935557372865055,46.95494161864684,55.06235404820654,59.39301625952328,51.834808503717134,33.425990959758764,12.736743664887085,-4.802524350506982,-20.7483513172317,-38.90123843894923,-61.19788434326518,-83.26145831181202,-102.62164033596436,-126.8280476185157,-158.6899037587953,-174.24058324734924,-139.4298940269054,-58.12342090243722,24.49036092633066,74.42713733732579,92.1745978171227,94.1258683071365,92.4162057878339,88.3843738440789,78.41596133065185,65.35977386122293,55.25776571762946,52.60416449996159,59.29006278302099,67.98499500270533,67.623985041021,55.563203642678886,38.50780214812779,21.85579815843211,4.266397539329016,-17.39235666064418,-41.38737967425376,-63.51673612557106,-82.3467410434293,-100.33446709849012,-124.55841623701306,-158.63425008018652,-182.60321522599628,-158.56394547133164,-81.72346397235523,4.2212336769652286,61.027925284726734,86.2343864542032,93.44925599207926,92.91193334312194,88.70023044827319,80.34886042733989,68.93446249188426,58.13060165949864,50.82303699585737,49.57136794921995,52.55905321567921,51.324847430828854,41.716193194181336,26.515254162424142,5.399105260166547,-19.16138569715202,-38.74256587411835,-53.32320574892297,-71.34151008585667,-93.32525385142571,-114.95448010936882,-138.39490423924536,-156.93719239920188,-138.87356131787317,-68.66752951076441,18.015134287516435,75.50097646360139,95.15925761572998,94.82632611417675,90.17405362967816,85.62514179354605,76.84747985518479,62.98582014544427,51.622796745950076,48.855979935689284,53.0783153310361,57.1308813056505,53.442271309445594,41.50860249687243,26.21272255684428,9.880855813583146,-7.7919716970841035,-26.723403209433727,-47.443330857057106,-68.25475310776098,-86.86091597219796,-107.21225048718543,-135.58376414596452,-163.31914173611352,-160.23413717025252,-104.98591635343546,-20.721600960126253,48.31118564528038,81.70607133674704,86.98489613192427,82.01183756782231,79.22538373561791,76.71750302774514,67.13855703180117,54.317266026967275,48.04126098757643,50.664727733136274,58.18100896036871,64.41078874516106,60.14026053698539,40.79891203103786,15.757330209206538,-4.544605779796312,-20.798499317168638,-37.90770325555811,-57.78662706761862,-80.14152906424735,-101.51561993435682,-121.89263280307146,-145.61917971797723,-158.9694881924314,-129.11988618735222,-53.14391480308363,26.056112217105603,70.95913662282148,82.18680784973539,68.0,123.0,80.0
99.91457340243589,94.4474629049726,89.54660649012447,82.37773721473638,69.45665324706145,55.33305466506997,47.96797929412499,49.49629543476621,55.39518788232667,58.48441199994589,54.286460960412114,43.19224396505784,27.213792288057444,8.940337871341416,-10.8449894596455,-33.64362090171558,-55.46620908161471,-70.0540915509757,-81.6877227166398,-103.34354934766533,-139.42348497882114,-174.8217573110323,-175.86943389868833,-118.28082977526722,-26.179544419179805,50.06123483953892,88.70877814408942,99.26419564634317,96.2837037730135,89.62788249552314,81.40546437935318,70.22364362084525,59.39054922445894,53.83680867742188,53.57020036966796,55.872453121325876,56.548156182604984,52.178162256218464,42.591422497937415,29.404502413338886,13.25489415023845,-6.0603742882116665,-26.57339439223061,-49.5257926967953,-74.03122026638893,-92.18980079605072,-106.99411567542268,-131.56352364775265,-164.8886678983952,-175.68728052072208,-128.5216751135165,-36.63439055113827,44.75180887093431,84.12826324028869,93.09754094130727,92.5483752133005,89.73711975747713,83.51604794296885,74.69365217005394,63.75423604049164,51.6283381923914,45.09064233472528,48.990591090138864,57.19374425700729,58.582901219820585,47.32599748442447,27.281957951412785,7.328933083248932,-9.424978755886215,-25.58465857842819,-45.00398499829849,-67.86503729341143,-88.97675298409297,-108.64750935712676,-135.7356814912077,-166.56186117268666,-170.27009767263885,-119.10996659644431,-32.239588964784026,42.831038610751534,82.2094737299757,93.64119349041307,93.74234893688785,91.67254446540143,86.15726197575768,74.66265437083162,61.9281807680296,53.53530375832,53.69974533993396,62.134398495218356,69.16147304384374,65.14765128493146,50.79008366017047,33.598829138478685,17.048996125956368,-1.533705602365305,-24.288498559694276,-48.10628640597785,-69.26930740499924,-87.39845452199702,-106.31489340527166,-133.66383900589682,-168.26729644610575,-181.9077953835308,-140.4508879173803,-55.50559454622066,24.349221155856846,71.00759967243073,89.59197645206793,93.79550934224365,92.04690413004073,86.74712945413503,77.2118335439288,65.6029922450646,55.54198512833187,49.76597127558522,50.30448871269014,53.0152347254395,49.32157049562218,37.820243527225244,21.08445368997333,-1.6959324279327352,-25.61604373366088,-43.10407904153117,-57.918457865737324,-77.52721520410196,-99.64846896854934,-121.38209261411309,-145.2977276466675,-157.03900477977479,-123.25076235201101,-42.89344620068993,38.83605255370448,84.4679393879578,96.23947698842507,93.5016888118979,88.95210882052878,83.74587284208553,73.13572965041801,59.04452341091789,49.87280790483667,49.59549983295808,54.66462429728001,57.05645234948885,50.652483429822325,37.23588461381453,21.61297058855946,4.907130585849225,-13.115543707926566,-32.5243394961848,-53.609287001734465,-73.83011166837314,-92.21417497731161,-114.51655737700382,-144.6920004975808,-167.13499993666764,-149.53086938256828,-81.57292168981607,2.3487133303642884,61.67439493802949,85.37557275349612,85.82900086834749,80.7852627721885,78.86972500102412,74.78780162264142,63.2867814065763,51.544196370815506,47.99902408289162,52.56850911602261,60.46179901882229,64.68529663464452,55.92654140980975,33.52384300860804,9.227450879332252,-9.412168434857872,-25.511520226261162,-43.33696761692099,-64.08902508181552,-86.58542804142826,-107.26928940197365,-128.4381141679938,-151.927215005062,-155.95723846768385,-110.57798631344723,-28.312316659117613,43.22880474738241,76.84444105694472,82.12296463407134,79.9057330313229,79.68933717204109,77.85454705235021,68.56005308550631,55.566647306989495,47.892075568547966,48.52931917964082,54.971292787741305,60.55719553435593,56.05908339337401,41.24565728298741,24.234602178601065,7.37667728434653,-10.335170022328889,-28.879982020906674,-49.93246144369031,-70.99211674195766,-87.00630831282821,-103.25801899515596,-129.2413788376595,-155.92178228881568,-150.75522946483363,-95.34035053476353,-17.49861873497089,40.16994898526294,64.64217702772343,71.79014598464445,78.58110165497098,85.79186722674508,84.68493745096804,72.6679603050662,60.135291568297035,57.34036123760524,61.21061572144485,63.21782250788518,61.3161521844469,55.83458239805423,43.326728367659385,24.68325668613292,6.375256155754142,-10.100887821067712,-26.112052171524613,-42.292967512469026,-59.89033301038009,-78.8208147984547,-97.62268408555778,-119.2476161622874,-146.23710775365242,-163.00387028127034,-139.249224431169,-69.90784500739971,8.25455854225858,58.816603920747795,76.643369399525,76.66890145929655,74.62637655495189,74.25724835883403,69.15359011622711,59.46502965542141,52.98594343643401,53.51475044662117,59.24951369940885,68.0,123.0,80.0
51.41966778315915,58.71568098102512,56.648807247134165,42.04112742137446,21.199378203076982,2.2251587581765437,-13.989765275404892,-30.715096375044503,-51.4470567509668,-74.34315741077708,-94.48870709817733,-115.3759519812671,-145.17649609322825,-172.17495170436916,-161.3445881268802,-95.59154236410801,-7.548844132303268,57.963546159798234,87.61447267715717,94.22029017831092,93.25512957444978,90.65328764550897,83.35924438984058,70.81449486451358,58.86491838466093,52.54768474680485,55.56741742432373,64.85937733817214,69.33584034312058,61.75584310382877,45.817463278534156,28.790548979998036,12.068557202677693,-7.7289069372345836,-31.27313112441292,-54.578417415787555,-74.74493190097016,-92.47904147687038,-113.0412169950101,-143.58755175257892,-176.23478572566535,-176.2494132330725,-118.41191276115234,-29.90634272924099,41.45982168355622,78.60724851511904,91.79428848556542,93.68271022655989,90.91252402247807,84.41098270271503,73.89269156440098,62.41217915841062,53.30492405230267,49.283483565851284,51.26232597296932,52.87165917562313,46.63212630506736,33.53873638755333,15.092654604203277,-8.918978340994896,-31.43262430110844,-47.21047111448826,-63.006982070526064,-83.9249209316382,-105.86698045078919,-128.11359436410206,-151.38125109659978,-153.0886196564254,-103.36279038238278,-17.087140156598345,56.3277136875635,90.50953734838822,96.16956274190223,92.10464714958428,87.72542793983064,81.35611132817347,69.08009747376117,55.554250208388666,48.91678521540501,50.8124963866914,56.01811276676236,56.183058323185186,47.2565188609137,32.81525488289145,16.927542834712465,-0.18088319470351627,-18.5451950033619,-38.49512626447421,-59.69313814982756,-79.19653721937904,-97.89244487596717,-122.62179018331129,-153.30241821594754,-167.45898963366935,-134.25950355813967,-56.8008864371414,23.13029781171315,71.91046011839815,87.07367292483198,84.27796621629369,79.92984413810001,78.33473585244016,72.12699145048052,59.41392024350867,49.52518674605622,48.661017117765304,54.75592534905623,62.46891370642373,63.81509949213609,50.46568938025598,26.133585865350216,3.2557634877657695,-14.069795986403177,-30.39453207436549,-49.017420787593416,-70.57006751560704,-92.82427420603969,-113.03938740610114,-135.36843225653655,-156.71682244569297,-148.4753172048597,-88.67911276823078,-4.559117514512706,56.96131253998727,80.29998204183431,81.52780422518003,79.61506046095117,79.66784766528984,76.00150704055515,64.75657802965907,52.517374194637945,47.27049636105803,49.98596885091055,57.107595561248296,60.57486977585568,52.50165225068051,36.277237005892104,19.429030408106414,2.3242684529622757,-15.546801345515318,-34.66946742053932,-56.30972776169996,-76.1638475021903,-91.15528329906836,-109.62419559396514,-138.03765154843103,-159.2499645936533,-139.53294270320384,-73.03950851502611,2.5562016773754563,50.28013425495126,67.51613540661506,73.42340479026923,80.9668314105376,86.68035518549979,82.08511889760352,68.46016238092383,58.200300346148886,58.191866005771175,62.229576798941444,62.99607374557371,60.20633724003653,53.08368860618026,38.28905171630039,19.154133419110057,1.5026977352550137,-14.747780047425938,-30.72484829800191,-47.182104981872016,-65.30116112863115,-84.26223519919294,-103.31576248770645,-126.70822852810115,-153.43651645711415,-161.40783131756072,-122.85589827300974,-46.1457216283099,26.526136415914525,66.85979315671115,77.6635650515028,75.82723957245861,74.56933751939842,73.50795813818296,66.51319170925902,56.9535837547062,52.431869244647636,54.78628258311936,61.31689692060677,66.80007633756333,64.2511390613243,50.84545166235813,32.581067315263,16.172383963649093,-0.36893847610941377,-18.94128211111715,-37.24899966935573,-54.142886342104184,-69.69890643444221,-84.78097639172394,-103.26818096830593,-129.488890309921,-151.27557966040098,-138.51371819122207,-79.6293319074823,-4.4728919715043,48.8092635823633,69.81485067357609,72.87445440042545,75.91264653406168,80.48632590843191,77.860946675818,68.75350925561847,61.493604252599106,59.11547379309431,60.85283875847431,65.72044912294149,69.12523987013692,64.34105083445614,49.094060356447144,29.420604859270107,10.422536576758098,-8.476259334166715,-26.014957319891682,-40.189071464137285,-54.858541749800914,-74.2356262791285,-95.01408626548616,-115.7463914060281,-139.62853561766033,-160.92556554399,-157.61345685298116,-110.62891078731228,-37.4957800117583,22.33412293013505,51.418568267888425,60.45958284385242,63.41853092332247,61.83012972748108,55.11495795556054,49.72627678104832,49.249615969897285,49.41820706893458,50.97478685678697,60.36614744764721,71.85044765861396,71.65610276318314,59.024554313254974,43.05565096019261,28.30008429560517,15.19690346868473,68.0,123.0,80.0
-68.60656302036874,-90.37206224497676,-112.0651268765678,-135.12574875955923,-155.7649383222778,-144.48090351213932,-80.15072691679117,7.443583691244099,70.26088303258916,94.14418687504757,95.35682860730844,90.76160531348232,86.35285193677676,78.39801892428812,64.89334440476654,52.694460089251,48.71604770186775,52.33180206518177,56.920019736288644,54.48874330087296,43.40057036117556,28.310695406958953,12.13257667857172,-5.369036640328389,-24.106840394225095,-44.60134937313118,-65.6044320752922,-84.44316575863687,-104.11134231062069,-131.39578189314096,-160.62404965738875,-163.57461932442098,-114.98088364147813,-31.913872038629755,41.07828295926029,79.22781430243022,87.26944834414707,82.6853138052052,79.39967906098471,77.36738902702211,68.8244259905385,55.81387590901833,48.32158575935039,49.91836060163206,57.09315280217464,63.96547109338969,61.621337351838065,44.014331989599256,18.940979509024316,-2.186977390317139,-18.66564342426162,-35.48495236347917,-54.95973519286996,-77.12734744586085,-98.82190511096015,-119.01826818569675,-142.43993465184528,-159.01671918932377,-136.2830156585856,-64.60568199164564,17.044872192724217,67.28135522504834,81.90669013920616,80.778233978836,79.56354684464435,79.32503590771606,73.42495522063004,60.865013863447984,50.110757051791616,47.334969775267936,51.84353418607834,58.95081319669769,59.53273254587101,48.23122907916962,31.32974757196312,14.593015445783058,-2.7929275039907235,-20.84479205288331,-40.72186197704379,-62.53852294181288,-80.82637701073811,-95.59860233122755,-116.99539726719001,-146.38678282770542,-158.95523323907778,-124.05355814258665,-50.00538439014991,20.017008451200773,57.695633567043465,69.50190340454773,75.32135481489196,83.23153470988518,86.63646413765,78.63626372628701,64.5808407229851,57.22709871907476,59.383005658312754,62.91034380759425,62.48842165878816,58.7678932789749,49.630596849667675,32.866773802244445,13.808071330452522,-3.256564701498678,-19.375306632073514,-35.36961272350856,-52.22749376701834,-70.78972554251251,-89.66016168976853,-109.3950547832327,-134.61270826116444,-159.14479080665987,-155.646672093605,-103.00576018549079,-22.854781609877154,41.86847273782008,72.35405185912296,77.65527131736748,75.13838966989118,74.57904460189965,72.17240595363822,63.63071730584636,54.91424906719064,52.47844344987803,56.4193615157195,63.3159851358331,67.15900627741446,61.3906379385191,45.64544660409979,27.586797233620704,11.607818051119187,-5.604284898400427,-24.350667434942515,-42.281597125936834,-58.76054913921171,-74.01827049033751,-89.49222885598454,-110.1032487344652,-137.43180346384997,-152.4007898108675,-125.60879429667344,-57.60400802563217,14.259724498032549,57.8733585807078,71.60232307389465,73.28973751688665,77.47240261086942,80.7090023121412,75.53754728378874,66.1745335711337,60.34397459108469,59.205036838791386,62.05679409008049,67.15287945755952,68.84293092021589,60.86691592299735,43.510090373341285,23.830754510598474,4.9870694326467735,-13.837371995639456,-30.40951898062452,-44.08489897099631,-59.990589413822555,-80.32101287886549,-100.85588319314297,-122.2875582406814,-146.7315145993668,-163.73861557494226,-148.59179337012716,-90.4266658130541,-17.404593730455897,33.790254449178555,55.287304531506685,61.652413133896424,63.56273636979164,60.23903772127089,53.08227625624339,49.19232188469381,49.42296117325267,49.400781602806624,52.79096806071763,64.13095926717247,73.3852063811059,68.89363066865735,54.42797490677977,38.60231420463777,24.388267341553078,11.463598828680897,-3.1826013617845144,-21.98262851786009,-40.834315057878115,-53.13132344565511,-61.489011679263584,-76.34031755547284,-103.08081222582284,-128.2780981076207,-119.77578981755448,-63.846598105249456,7.837768486139433,55.498427226485404,71.18943226833186,69.18917184911061,63.59100597245321,59.07468581422729,51.69901145563238,40.61079899078759,34.326023461425365,40.72185132168053,54.42005467058051,63.322532043539034,62.10238265098831,51.49415984435095,33.60410578124011,13.04473172687576,-5.3712460220596245,-22.187084109513254,-41.89005480937878,-63.87243266731574,-81.35868766527963,-92.2529380372778,-103.8940233221283,-124.39303989773897,-146.51449199950417,-142.92876270784802,-94.01438981320223,-20.33114300035201,38.22699398572882,64.83904174321594,69.95463034707286,69.23397123015333,70.03829191204176,69.68770615698736,64.05911645286281,55.69776281841197,50.08104100048023,48.752194243942405,51.137325487646635,55.62588869250395,54.86821781853467,43.51479876216438,28.102990719659413,15.27229779637163,2.2325032102161355,-15.11234250646623,-35.33414901029832,-54.95477928504154,-72.48022268368858,-89.60737467178079,-110.93609568874203,-132.93516128295454,68.0,123.0,80.0
82.24550067415124,80.12948298123956,79.64810353904002,78.46691208386679,70.21018672188566,57.15200936163237,48.42222056014004,48.02285843764362,53.95959644009731,60.229232301706325,57.394758394471104,43.507519206018024,26.458042883229677,9.676272777818827,-7.948123916109567,-26.295931019289803,-46.99466830430432,-68.43080321167471,-85.10367782669486,-100.65025931210043,-125.23869804647813,-153.40368867840954,-154.3934014051437,-105.02965599788217,-27.44369047703873,34.51449906159938,62.86623389478095,71.08630009068993,77.50389846283137,85.11950640230022,85.54645992791926,74.61693574577171,61.34537878285036,57.133795243837284,60.657636203630176,63.20720606376031,61.73965098145449,56.88653847086528,45.467039368384384,27.269083264451357,8.675144289581384,-7.9500969221650895,-23.987970135325035,-40.084303154006236,-57.43706859984387,-76.29359086521244,-95.08203181741665,-116.00179987753033,-142.63603118033478,-162.49378936666292,-145.43830520151118,-80.69752711804297,-1.0615685620034658,54.159268515917,75.70063981642518,77.04648651482776,74.72277051939156,74.43670152994146,70.23134648050646,60.73849646806031,53.45165340959061,53.07383891413047,58.316919846948934,65.06979395954484,66.67338524000847,57.6281784754687,40.280067787535884,22.839101584320268,6.899763016241213,-10.984941069728643,-29.67434848172239,-47.18966703906453,-63.27215493183541,-78.32661585774453,-94.63327269677362,-117.66196481705998,-144.44643589499503,-149.81336968839932,-108.96907015537714,-35.31678058924235,30.402043423138675,64.31430625159061,72.4062875220041,74.0642325202903,78.97874912553037,80.12605421189689,72.84069813416781,63.95443074148197,59.58735244346558,59.63136109634188,63.480788732602775,68.30806573387775,67.70778411504087,56.54952616851643,37.77225223025911,18.34588765122581,-0.4842533998529246,-18.998981575607914,-34.509401042276394,-48.18854075693706,-65.55880735534807,-86.3669299039733,-106.75623476656551,-129.16861650288314,-153.3373043640998,-163.7867624319982,-135.65842709230012,-68.92668044150048,0.6294334822784255,42.60733495132099,57.93930265189216,62.5693948079743,63.24440971068267,58.26953988143738,51.37951843955238,49.05419715144335,49.49631507032767,49.64940291659143,55.40286060312876,67.73612734881995,73.6366716100269,65.2744186863168,49.769161500030286,34.29779074179319,20.604783034345843,7.588118379336997,-8.218543606571036,-27.777438004606392,-45.18696357175122,-55.5387214940287,-64.65982471656741,-82.96977525422116,-111.7586679449486,-130.68853604959733,-107.85735824068125,-42.623905587508276,25.115591849602072,62.86269242007711,71.6819290607368,67.51826173247522,62.25770270578648,57.45052730913236,48.649819214368776,37.793942571643946,34.821443951869185,44.48855663112801,57.90266543795084,64.02667760356547,59.93173932465128,46.929524369795075,27.6729377326989,7.398115750779788,-10.208358307638031,-27.43308890153749,-48.26935827320362,-69.66071441018218,-85.0113817648492,-95.06746349402563,-108.79875036633877,-131.54135188546564,-149.52614802671116,-133.3781314281077,-73.43119022638962,-0.45545676274516433,49.08003072348645,67.75084163211066,69.81622352155546,69.26971984460813,70.32332968146328,68.62831965459763,61.65897900256939,53.62965693258253,49.287693838507764,49.07045397892124,52.418649327906415,56.373205168083956,52.587359965333086,39.02566541315323,24.098493448067593,11.788850806873175,-2.2980329387664025,-20.826809901753677,-41.1806984712221,-60.230750784264366,-77.2917065295485,-95.16592213747434,-117.92434494531547,-136.26512934751884,-122.27429323080845,-64.59901614209053,7.769220257981175,57.74206500465661,73.77983535284034,70.36856576769661,66.24759645017153,64.9143582952425,61.685760834792845,54.007547109376226,41.22721707179539,28.548710775004366,27.471075390054015,38.11762681307619,46.69134016171273,43.06635734256359,29.077884023762035,12.459458408368883,-3.18298420083384,-19.196161088340318,-35.95471335645409,-54.056694914116115,-74.47150379083011,-95.87518611152441,-118.29397061602329,-134.09447570246252,-117.27366394816465,-57.92438755582115,12.423129073126256,57.37397415957063,69.63586276350722,65.24985069333468,62.54022320047656,64.26290065428142,60.57635630302054,48.236058002654275,35.821936525961696,31.04127146105415,34.5271499714337,42.377093885333615,45.25479268936082,36.05809720621712,19.849680643895947,4.6477863098335375,-8.709646375302924,-24.16512397694164,-43.180920583452036,-62.153949017450906,-79.00618826457348,-100.02002096422508,-127.34199369822153,-138.3305174597276,-102.88107031794596,-32.13751674691193,28.824406571255118,58.40534751326645,67.66820961574167,71.21631078676978,73.2340574652339,70.2354646986659,60.59468185340413,50.38220373579973,68.0,123.0,80.0
60.36230505843248,66.38947426354206,65.24250977217496,53.1180014470052,34.96797895936511,18.26081769436446,1.9772664168497969,-16.430385898393777,-34.886754779737544,-51.97596285184335,-67.68926999594115,-82.70599301160567,-100.37743017169309,-125.71914019418881,-149.69327980699936,-143.06745508651832,-89.37831865479758,-13.842403927986375,43.67533030749072,68.50861678527185,72.74757253517387,75.25123821670498,80.14016715676088,78.7411454271355,70.02483239724516,62.167287869512286,59.18654258218609,60.39339444198174,65.01459503188272,69.00640713198877,65.62726197495239,51.56146849915687,32.03669539449139,12.920076440369808,-5.964540561035067,-23.876589987148467,-38.41448970303819,-52.65142060224418,-71.45203466713238,-92.30810599934499,-112.84463215735992,-136.304431425133,-158.89622893292565,-160.43456903102074,-119.2070867028215,-47.25181385366,16.1188113311649,49.09597680654529,59.78804589305529,63.222132937927825,62.399787002738705,56.11161438232652,50.13296335414559,49.16325200999737,49.45454610054445,50.401084913769516,58.691284334954844,70.75891123949918,72.56743350569415,61.0801660999728,45.15212820846267,30.155094192726516,16.899084527640525,3.4648422537690524,-13.625568103489732,-33.39102577766354,-48.86101954277191,-57.811217959154135,-68.65428948681087,-90.6275036496846,-119.73393950657275,-129.37849940248336,-92.06844625350867,-21.273195554133885,39.62632301460749,67.72708802839914,71.12747709227638,65.82881158560716,61.012518053471844,55.43912974601604,45.36290854992984,35.6703667509155,36.485204728806956,48.577725482912705,60.70749958517496,63.8549794719434,57.01500273106199,41.81785123221064,21.66645133076028,2.0211422752031223,-14.994753222703501,-33.04169592785511,-54.724732009977394,-74.88740941410136,-88.15788356262861,-98.2058489087298,-114.59382093671611,-138.42884831872732,-149.55431647482672,-119.84321123978025,-51.73092700210446,17.230925559047364,57.206987500638874,69.29597682753123,69.5266427363657,69.50729292661255,70.35862507447553,67.07490092127287,59.16733725761215,51.909269163746245,48.83797341603909,49.694883656674044,53.807867954708314,56.42528538386044,49.39766764916158,34.46762001903583,20.381486001334256,8.135644313625846,-7.241585021886039,-26.69288761526221,-46.901648741435736,-65.31807903313,-82.14824289678764,-101.21831273567429,-124.71541040901771,-136.7816839414992,-109.47619563485986,-43.295078816061405,25.620566711654295,65.59017373613555,73.79247100659732,68.7711843302192,65.77520126929589,64.34453482088263,59.98150477476578,50.798417811211024,37.05408214629202,26.6667550284822,29.82747719413351,41.46405553402207,47.03470103124254,39.75716089411935,24.25299693885242,7.857066625643952,-7.704452631363353,-23.984708862445803,-40.962149553769514,-59.75181456463655,-80.60442773528887,-102.23723000162423,-124.44833697450609,-133.7847674013551,-103.76388709208884,-36.74532387852552,28.95707258866413,63.84493483223817,69.11321894846081,63.798032011290836,62.93022596437665,64.17394644591336,57.66132018084552,44.18249703920367,33.51675934812822,31.29210135858751,36.65160649180027,44.218875601433986,43.834830720594546,31.659111204319856,15.160435715000883,0.7472863877604308,-12.795617399805225,-29.375358798709446,-48.88423857616803,-67.11602122320149,-84.25347650289005,-107.71813160694143,-133.81143053102306,-133.46010409104497,-84.21251852126017,-11.743676812559695,40.47887000883673,62.37347310157931,68.88513290129323,72.03031686809713,73.08503426698228,67.99651728247758,57.31184662925815,48.47585442037277,46.875435917014755,50.1842711428607,53.72103185986105,54.37945799088348,48.26478021227052,33.39009355142746,14.208348636354684,-3.1651599789058014,-18.189868848244608,-34.290780596642676,-53.60195185931307,-74.10382415212544,-94.49633764213856,-116.87858541147595,-138.98542177784825,-144.093206671678,-110.52585168632201,-44.60018866703941,18.867274111458784,54.01603079991725,62.54673627249122,61.759504130070304,64.01553479549673,66.99889915174184,63.14932182763228,53.380358741209065,46.40643318053063,47.14524519218367,51.609775811206184,54.367849781313524,51.7137243077529,40.853044544448316,25.314768942130367,10.43158102240814,-5.143589972185799,-23.914471658840963,-42.30003376229912,-58.18596418369567,-73.74616655665189,-88.31595635760337,-101.98050746562974,-119.45373206405733,-128.60787192074923,-98.56578168500663,-27.278022099567607,40.32118149507544,70.84765635578663,74.55184362547762,74.64974436269188,79.45097101062503,81.91604205616682,74.27244313923563,61.8388407010888,56.73647179477897,60.68535104013471,65.04656338954041,63.89155074166785,57.84216102790027,47.39992528779472,31.94256204722248,14.871302770422659,-0.7140857215500854,68.0,123.0,80.0
13.195990112783742,-0.99581171999202,-19.309806833003986,-38.61074152347935,-51.903816963521024,-60.23733706516172,-73.6602744501552,-99.05450839214379,-126.12459960000929,-123.82436956823388,-73.24635636286187,-0.9335203348468726,51.16889514771594,70.49714374578022,69.89568171124108,64.2582427955932,59.72516687106576,52.980518764441626,42.06208263800498,34.495690778759474,39.188556689764056,52.64280026707058,62.69852314519256,62.84173450223577,53.39060182310966,36.27082757261923,15.727227801690743,-3.090358274148103,-19.870297060855144,-39.023241053992805,-61.05378452651277,-79.4685458923812,-90.98851756968834,-101.92493709983312,-121.17040095051053,-144.34095946225432,-145.94199413166908,-102.82073310298084,-30.038389895017307,32.25874226989574,62.91340116308821,69.89373488069636,69.28896020715506,69.86740225659499,70.00686349272883,65.08980362281851,56.748047561954486,50.5699637130836,48.70822567969071,50.618846746690345,55.115923311593804,55.58628332038263,45.489004105389164,30.052019486497166,16.864174625209642,4.181955973324078,-12.556856439908023,-32.61187993849395,-52.4566392935266,-70.24644171585672,-87.18431497971751,-107.77513050908655,-130.67759461571424,-133.79110898844297,-93.14807768724147,-21.819209163488893,40.84353325920081,70.63290746179437,72.7339507944179,67.4738080887714,65.44532057621792,63.50626260934307,57.8726806514401,47.1489617554431,33.12516334564966,26.04661470861378,32.960606048767715,44.23799117667311,46.22224312043906,35.744649019443486,19.400359112272724,3.349942931986821,-12.31078144682831,-28.812258423518166,-46.13038448509681,-65.6369941259767,-86.77169464899451,-108.73932060459703,-129.6729194411629,-129.96277204398194,-86.87130751020531,-15.770970527791382,42.69163016372351,67.72462727205888,67.73788044577778,62.85311651088574,63.55547641277607,63.34404703831955,54.09608511521836,40.40582355496415,31.96115946634672,32.1958945314478,39.010082369107,45.34912235744389,41.33565130964776,26.917072629078383,10.704343272567238,-3.061901813935979,-17.166375756676853,-34.866926996897945,-54.449396019513685,-71.91532072537393,-90.0988360325793,-115.84834133762239,-138.05445877783913,-124.10994632931282,-63.46913490219251,6.66789094259018,49.43280492358895,65.10080869603831,69.89801694161498,72.71007368630326,72.3859319240095,65.23257841383102,54.201351027120666,47.23595515452615,47.5649889273062,51.331594174142516,54.35302849326974,53.492198997988034,44.79475799074816,27.96490833237144,8.85254699606425,-7.625007420101335,-22.56817005360114,-39.559928720633984,-59.5436465940996,-79.94189728843483,-100.6772350230416,-123.7041740743417,-143.3329169030045,-138.8646474200357,-93.51713287267016,-24.388143961165486,32.35823328076094,58.55938562408776,62.48342041701279,61.933397156971914,65.19089480992591,66.76925257365734,60.61490953245398,50.684472527050104,45.86958712685466,48.347019294432236,52.742625314268494,54.34050040796688,49.407919224184646,36.53696719903793,20.863517484151274,6.2060948975522585,-10.304880737447679,-29.47535200313484,-47.07813278989958,-62.643144144272625,-78.18498266074018,-92.1316847257884,-106.62576417891104,-124.23463705511143,-125.08688254585911,-80.7992164057264,-5.062518247136808,53.186073371634386,73.53588303885475,74.21004629386167,75.66540938254691,80.89365270189775,80.8073188089751,70.59744503403338,59.24025710565069,57.24515203994305,62.310341810975174,65.33657759075142,62.55706730827788,55.342759866549905,43.379300116650846,26.96413030049523,10.19235609730749,-5.019533731791043,-20.832597921848695,-39.749030028249386,-59.38337558635912,-75.26739538189297,-88.55144406581462,-106.33843052146398,-131.62455832294003,-153.07958250468974,-146.39887344183666,-97.89630279112514,-30.087978788773032,19.399239807489423,36.96124525106345,36.57196500066328,37.66244685973278,44.251098239037354,44.812892930215206,34.28945640127281,23.988259011836394,23.473719929338237,29.893141278510985,36.947118049997805,38.499033312244464,32.19383444637299,23.361302765105208,16.3526640305981,9.87363532648206,2.706511164686481,-4.659690380496067,-11.262455631637154,-18.109939260221733,-28.350336690293247,-44.81162495307888,-68.03206427543384,-89.22828170720088,-85.77887848346512,-42.85189917100224,20.272862218706074,68.43807081466835,89.27771211749726,95.555118240738,98.74640511505557,97.83570692489525,89.40372300910012,74.69473382959747,58.20003269991997,46.74321595559228,44.74105330054061,47.17796370253187,43.77899421370961,30.611323408384163,11.930384303313101,-6.753296872128963,-23.86810611945132,-43.58756353427478,-69.52443607859989,-96.3161738588659,-118.81350435239906,-139.70964896837512,-154.5590220232323,-144.98679349509115,-101.1706954237372,68.0,123.0,80.0
-135.03124514401443,-126.8487587985421,-74.05987059407504,-1.1997027787189336,53.11358899720875,73.25167369493633,71.14917744439286,66.55365119692325,65.10862157926273,62.34271663387822,55.331626370133186,43.14615326059305,29.790760385469433,26.73728806410148,36.479738855135025,46.1538642266252,44.2969596860173,31.25177696568943,14.622504179514975,-1.118258124734549,-17.00627900759659,-33.6844859986997,-51.50411347746551,-71.6621671802475,-92.98398139076157,-115.30583104595455,-133.23561033694895,-122.20699423421,-67.44387037869744,3.9719555827391457,53.43079428188522,69.4371379232308,66.0272108278664,62.50811651406312,64.11475924570182,61.65125305369604,50.12542700216075,37.123886248622085,31.16171521642096,33.67720298706093,41.367591804271534,45.53228807748768,37.89921139492788,22.0678098647768,6.505094143787969,-6.898345953458744,-21.875391162466535,-40.539635039679666,-59.78383058746086,-76.72338329134848,-96.70552676384308,-123.87707619166602,-139.12783296210534,-110.46053631542806,-41.95675329285569,22.487591021449315,56.0336086937913,66.98833507060881,70.81478010667522,73.14887991206413,71.062225784223,62.103855637712115,51.46831626006389,46.66306421040421,48.53366931015885,52.40668887178276,54.67524273652396,51.92530597571347,40.594717654025,22.35788607293018,3.7656474731849894,-11.941761998040292,-27.13596412258579,-45.11268196085395,-65.49380891539212,-85.78795240041607,-107.09589899038336,-130.36885515471653,-145.6658231207673,-129.95031176075827,-74.38025457662482,-5.359822708635389,43.10818564829601,61.181754601103165,62.12037998025599,62.532938934792796,66.22517431959164,65.8145749210212,57.72570493601346,48.47134199679182,46.0011726689537,49.69072579360323,53.63871278919129,53.76105805711114,46.37943761013624,31.99877831666913,16.557108235381108,1.806529142245659,-15.737433856237715,-34.86651222667965,-51.66257146106702,-67.14221871396346,-82.4574663184491,-95.95717341773347,-111.71474103865377,-127.7233597960687,-117.46531967368935,-60.104858745903464,15.432432577460043,62.59810629292439,74.59301671330218,74.06666337130612,77.08258125627954,81.86123007505056,78.73918186233239,66.81542374398565,57.52972965272627,58.39102123310798,63.716868031481596,65.10150237297267,60.87604003717293,52.4445688983984,38.948090597892644,21.97933653552384,5.671526222387041,-9.367944473344949,-25.972281912886235,-45.577657351015816,-64.46416109288617,-79.11333504969609,-92.90832806109317,-113.04626840230667,-139.1517790950079,-155.15574417490058,-136.42162294020395,-78.49209229603974,-12.656956890209017,27.506587132040803,37.71538892183718,36.15102428627249,39.35917138733431,45.59133237355904,42.637730383466376,30.629492350917843,22.778312273453565,24.904343833745745,32.13436340324427,38.21112054665793,37.3603029108995,29.588531757157423,21.13788736214968,14.526057186709016,7.869708753733392,0.5554794180848821,-6.666577648995573,-13.089799443510321,-20.578202785208127,-32.36973008760977,-50.943260329993436,-75.15986326111737,-91.88591210138647,-77.28606610376099,-25.046947900045595,36.91963892257785,76.97404176745222,91.83873439706872,96.65165546287727,99.11999033193868,96.20695061785489,85.64376238547669,69.85044664846284,54.04869478279483,45.21839058293551,45.4399672415526,47.17436600250902,40.884869655460626,25.507762837889853,6.352109710487503,-11.768830838688208,-29.026675304988807,-50.49894611539911,-77.57272870440654,-103.21275180055846,-124.91634656589119,-145.2502741228706,-155.19849021810944,-135.53383083998003,-84.26393502961224,-25.535900491388613,18.17130502695499,42.37986449662605,52.00597708476847,51.45682740221619,45.61506113085652,40.55874742354789,38.262503249858476,39.50800793071212,46.33770804807321,52.30636215733115,48.87919317395484,40.49412244239827,30.615743222053737,14.682879732115374,-4.922024222376173,-21.909813184581687,-37.63815214967833,-55.28564544236181,-74.72305950294252,-98.13090427233664,-123.72775239987841,-132.69982511840072,-101.72399350382642,-36.124696815011234,29.628790011119204,69.30754810633451,83.46506398514579,86.08221265690653,87.04038418928333,85.3867074566055,77.15643861064304,65.63933450974442,58.80756746150144,59.967131966066496,63.05211192394684,59.28447850891319,47.71705777314487,33.08434287481887,16.048277459921486,-4.516340516067148,-26.273012572462832,-46.14639438382093,-63.92388243966624,-82.49428191893486,-106.34758140203591,-135.62360475331417,-151.6547158938279,-126.35308532632783,-62.35560201050267,2.5903361790789283,40.44967506755848,55.63536619375613,63.477798826302646,69.7660080364341,70.98001952147793,62.81580268578608,50.4770492945181,44.861805902506134,48.12347125644407,53.82012957026436,55.81843162034321,68.0,123.0,80.0
49.27466451729967,46.691013921642345,49.650262166484566,53.348562038634284,54.58822708854517,49.6016450813154,35.776707691995696,16.750890401909693,-1.0380756312480897,-16.210311566870903,-31.96450169763583,-50.88801292602761,-71.39985756271157,-91.71484329021307,-113.74997779690646,-136.48812941656396,-145.31876339462644,-117.42100708139414,-54.075384897484284,11.763273026384283,51.15835251335319,62.35645137714629,61.811639405159106,63.49346586901296,66.88063399329424,64.14053808991625,54.72738504788517,46.89510976347821,46.686156505090246,51.027993921076906,54.225082964225976,52.52569675592465,42.71657586295982,27.40999611765932,12.356940583657007,-2.8742424210424735,-21.325170014712732,-40.01495442092529,-56.13655869796372,-71.66757018996095,-86.51423883738167,-99.99480921327476,-117.03736936637655,-129.01051257420903,-105.50061125005533,-37.749469253930066,33.21578028431227,68.870389380834,74.67770890057626,74.34859546701759,78.70478923745125,82.10214851421745,75.83239392461881,63.28785249720835,56.774379663531036,59.922736062278034,64.73706222648246,64.3754877798422,58.87464325162699,49.09959700594641,34.202370356405964,17.082464820145816,1.280660562951978,-13.854134917382506,-31.407264871679992,-51.345977675897196,-69.13728826342503,-82.85427113239005,-97.84703666196242,-120.36421895657281,-145.91427657526015,-154.19940976475178,-122.87901696270444,-58.423793981211674,2.402403424443035,32.957996285439236,37.503232289774175,36.26917502939686,41.394356717917496,46.06029329167112,39.59705536001569,27.388493003760484,22.48269205443656,26.75482490444049,34.285643383686136,38.85481241240678,35.589075150781724,26.96404008037259,19.10279915382889,12.678172601070758,5.804692532353002,-1.5926487295236162,-8.5827709706503,-14.998626613504241,-23.41088706015168,-36.97097565837271,-57.6266732397271,-81.76563265965305,-91.80891574064552,-65.3740480872552,-6.4076485511657335,51.5078910041497,83.27508369028894,93.63603749172927,97.6349979095349,99.02809587334671,93.90403454641802,81.43449438091463,64.98517174536713,50.51196184956377,44.52414439349342,46.28359111671113,46.42791014990088,37.190857100331286,20.09387309314648,0.8952157015686217,-16.67206191447043,-34.559672294557714,-57.95959003914413,-85.45460003919511,-109.72694113841892,-130.99779052401217,-150.02237157451245,-153.23652640434017,-123.22785816959015,-66.76651152477561,-10.843283401127946,27.006288281814257,46.42405046564622,52.727773954218584,50.024997098399396,43.87799470009186,39.63499038551052,38.1272735650457,40.95919808183896,48.68910064493241,52.326135283238536,46.587013478443986,37.96560127675444,26.750944762106407,9.043005190607106,-10.197913609743425,-26.373711088256943,-42.51992782356358,-60.69895320647744,-80.93112624893237,-105.77291342134326,-129.2558648179008,-128.39369525427955,-85.08258216895166,-15.503674146282721,44.21236073792123,75.47848765858046,84.77735892219128,86.38478411327478,87.06568451081345,83.71449864148695,73.81963926698346,62.87676321011114,58.420675839103104,61.105624554402084,62.9114553437377,56.540898657807105,43.65542191486361,28.50567961859804,10.425039606595272,-10.837599959339277,-32.294639148105816,-51.40945955071744,-69.03340118140876,-88.63866431832204,-114.61743640204277,-142.9920509909358,-149.36660072319216,-110.53415230021993,-41.84969343261842,16.65139561199276,46.425518229610624,58.16458129931784,65.48975115524051,70.91123670260602,69.5944002323438,59.163443743584565,47.828319743199465,45.09636127875087,49.854664751393976,54.95593445784889,55.23539302447347,48.68323530185184,36.54322894527641,20.81712995379146,1.1328687371758999,-19.06361493560169,-35.3848876831915,-50.010626459203735,-66.7885978253757,-86.89032839299159,-111.37475553228207,-138.0393036999108,-147.9804326531286,-116.08419643916461,-49.48512539272267,14.39243882521855,51.950691614414055,67.50601758048485,73.78200412113989,78.18262916877289,78.36114651107432,69.49760336995024,57.080951821405876,51.95063352633045,55.02639772144656,59.589554348463025,60.98987497714385,54.521377753484245,37.00424846604121,13.549646540705407,-3.941902220231548,-12.352675470402835,-22.555776221739066,-39.82126358155486,-57.310079754232454,-72.8617274956562,-90.98129123579722,-114.72547514264917,-138.1723655687823,-136.14181105589034,-89.67616490164373,-20.91556604259805,32.22394048854775,57.085546678294875,64.05446338754638,67.60956071802067,73.27705422590479,73.74857358451315,63.21149777522267,50.37973461183139,47.58758330877127,54.44916689864851,61.33048849561013,61.260894768196025,53.29389959993795,38.65395415273439,19.3802677632776,-0.7754511631599932,-18.370381535181583,-32.91850940161868,-46.657051614780656,-61.40781221885632,-77.48235461996448,68.0,123.0,80.0
-3.034749858919293,-18.56593726650016,-37.08025398116496,-56.91585176021651,-73.41222031692911,-86.69100115528998,-103.48742782447532,-128.05272643055253,-151.27183123046655,-149.72577654605303,-106.32226654069974,-38.75348046615551,14.702198205473422,36.13146950536821,36.87016649298993,37.06717286941519,43.423464339043875,45.463576277817765,36.01511566692213,24.860672321344328,23.001315982168826,28.869495666353046,36.19381203665144,38.7829042451976,33.33986431663577,24.455740924612595,17.202480832073125,10.774414892020832,3.6920892862124948,-3.706195490769081,-10.425506443020254,-17.073772617398376,-26.678829159357477,-42.191763882553154,-64.70573455898536,-87.25602215986136,-88.49017112498777,-50.50643437344404,12.067622722221122,63.677245519413376,87.72496080976072,95.00426374447069,98.45355251259869,98.3597538142697,90.96014021943431,76.87947603406622,60.27065376814331,47.73824305406141,44.542939519107144,46.98280441643068,44.82076952565859,32.81716645586196,14.517926516981056,-4.383872265762332,-21.571607314097264,-40.60385565707145,-65.82263372656173,-92.9882975184832,-115.98034952253417,-137.00772544724762,-153.52596959076112,-148.30797196250722,-108.5538603248553,-49.405051475638984,2.213494769155299,34.27277314501124,49.39402468389948,52.68113101893036,48.30096047023021,42.34540929728647,38.92433596878845,38.3475804116842,42.9125713820715,50.670825693587425,51.44687412083071,44.12774681362254,35.259741959896154,22.255386532606824,3.282773786942586,-15.148385823785347,-30.853269992450194,-47.59467370518858,-66.24434127129588,-87.58015350387794,-113.44267384866419,-132.73541535718326,-120.27247588523053,-66.09662882532196,4.144270128325749,56.238406685137804,79.77167376764305,85.50624884643705,86.6868574792063,86.74850237448767,81.42772565796722,70.38270154919755,60.70393724164215,58.69877386239026,62.165889423436816,62.01289775728186,53.23560855470954,39.454244611385185,23.673130536068992,4.50985543722184,-17.172094884341487,-38.09345914398628,-56.534021653843425,-74.29512051244734,-95.35707884576338,-123.25545598213975,-148.5428465494881,-142.9969292520894,-92.02807077855108,-22.380870948845622,28.093282303247342,50.897499010050446,60.41202908726669,67.39219444438403,71.48127967636746,67.35838168662755,55.424943300676574,45.98605385776684,45.99591755176408,51.59304680911553,55.67034289157454,54.05936316498831,45.617102309847745,32.367848622176425,15.51029387427215,-4.932464548217087,-24.202964894585836,-39.57454515754757,-54.54106632441703,-72.23693059830674,-93.4430031538223,-119.28355674104861,-143.94041983330587,-143.62595055884074,-98.97142084556732,-29.110584624477784,28.16164631171607,58.116555751508784,69.7936702947936,75.15730362155551,78.97376846400235,76.73432557376594,65.74769363189898,54.541593944775386,52.27405171532032,56.449508467159816,60.49292572723655,60.164380937518416,50.567199752123464,30.35083696067443,7.41747534275704,-6.978244678872508,-14.579764620176531,-27.014510511684254,-45.16145440791129,-61.834706134555155,-77.63735640970964,-97.23397206080766,-122.28554930742823,-141.60296997201883,-127.13108601370163,-70.24013823933419,-2.771042976118373,42.104582466709026,60.245415003740405,64.92565173494881,69.16501220193763,74.41737400760245,71.72928690493559,59.069276294814564,48.265747368427945,48.94323821255635,56.86830572532389,62.15737015309507,59.72068609474302,49.68990495929292,33.42239301806885,13.461077445492597,-6.214108099741537,-22.815293585984957,-36.859851769511685,-50.77578498325203,-65.9278204237142,-82.41053711104801,-102.16488624013553,-127.6463707906447,-145.01694060214234,-125.21230277322702,-63.54403263704351,4.213758117202007,43.4431764385523,55.49362538750517,61.11926772617058,69.62710563973505,73.41485541811049,65.62106497252815,53.88711755980562,49.61400563304633,54.505164246029956,61.61249517664348,63.99228846341546,61.54777966147709,53.44424946444661,37.23546997053169,17.16454882203605,0.23688230044564534,-12.302648454896694,-25.28129901347693,-42.716411035179895,-62.036295695848956,-79.4849847814772,-95.69976863503769,-114.7940678164951,-135.4815225564623,-137.8144021839817,-99.48219013944917,-33.2009777629717,23.93026996993282,54.16425885212282,65.54833998360027,70.47637167285252,73.33228904288313,72.06310661358212,64.52350850120976,54.867140185727926,51.210662315985815,55.80604086596539,62.66538490690361,65.03752175720412,60.98479531215269,50.01494750587953,30.62956031541724,6.853497889644727,-13.237155432502997,-30.735294976216313,-48.915646674623964,-60.133855325989586,-62.4397302580483,-65.72625271996846,-75.67716451800553,-92.38457189865917,-115.14848811830431,-131.81178501913934,-117.12360689766894,-63.15387220224879,2.357439516203102,68.0,123.0,80.0
-92.1783816104187,-32.799900551236156,13.53532616805493,40.11963590195709,51.390323401238376,51.97157416174133,46.45887324455943,41.063904349549944,38.419053238453586,39.022047676106396,45.2207737310124,51.98519820502173,49.818423478778755,41.640673479862485,32.196184811221706,17.18028504311592,-2.3856924227829586,-19.821288082840454,-35.45557955253662,-52.82886539607163,-71.98421407541575,-94.70305990594204,-120.68933224423108,-133.46227120173089,-108.38316173825427,-45.713485105907466,22.084143890819306,65.73434797178123,82.56980119895529,85.93147663062703,86.9544946629146,85.94854845479882,78.60239682777578,67.06731671903802,59.23372980197367,59.4885199309683,62.89243906381104,60.32095568953394,49.52444688951581,35.128698468019834,18.53100213478525,-1.6313201350462505,-23.432964864122944,-43.6565430963433,-61.59215987920927,-79.8219922175419,-102.7278166229587,-131.84359194322477,-151.43242837806463,-132.50204949879281,-71.88169893277309,-4.756689450288817,37.0619436676876,54.309856865422695,62.52719491747641,69.08927607714567,71.32697775634027,64.38199402159773,51.9267373580971,45.0182504809705,47.37839540902911,53.178066961207776,55.89505576869595,52.28555934737644,42.15761989178078,27.912850873243613,9.851050317919201,-10.880659260447583,-28.963365426370192,-43.74062030547336,-59.32068762147027,-77.9656180847316,-100.41475795775162,-127.24684138152533,-147.75181037683538,-135.25600233497485,-79.61164084785571,-9.987696712282167,39.480720878002614,62.75815782604573,71.59733781667282,76.48215040808816,79.24612890318218,74.28176589886111,61.97238963716225,52.850090333883514,53.1561865903832,57.83343692879316,61.04751653498704,58.54232867090001,45.659079887552124,23.431709377798917,2.104665917012951,-9.36081165131065,-17.31031761861715,-32.017627161413344,-50.29769785740344,-66.26666372969783,-82.74623287959601,-104.01520452517848,-129.53273379593497,-142.0742395938263,-114.24356026513213,-49.93250456461313,13.25423534281681,49.64685684611254,62.2867243844644,65.84294781723099,70.89291347827165,74.83865866494764,68.76208789039491,55.10264064789413,47.22115311119233,50.9405871371562,59.0253562145695,62.30124023404109,57.54552389019646,45.55678174202451,27.869786601152718,7.574377524229821,-11.372027493223493,-27.031832505035705,-40.80164985523194,-55.007764888849685,-70.54749765495988,-87.58522978633584,-109.07598699298121,-134.7393485471598,-144.1743600424535,-110.68069772042685,-42.55731763931847,19.142050501525674,48.841412185079854,56.98529088604759,63.389387085167165,71.72729878104592,72.28534254247356,62.02870493108477,51.59526579073373,50.27562446249273,56.74679005615256,62.89723351631986,63.716637128935695,59.95193254923636,49.56278528939537,31.477563385044256,11.752746487041144,-3.7049782204068724,-15.729606290280195,-29.855148756959196,-48.32898158541997,-67.33324380111955,-84.15249359937843,-100.73603154954452,-121.08934727640762,-139.34524490226545,-131.21183789269753,-81.61171085687607,-14.342284391716072,35.394219312090435,58.74294867617054,67.27449680827095,71.52309367167553,73.55589601123309,70.48888370453028,61.59265626448197,52.90476258065899,51.84765020754237,57.91441386021081,63.99565986442272,64.51458191880732,58.60676842943067,45.27234705688741,23.812458098114682,0.4763364405579522,-18.255352530738158,-36.08937686109145,-53.27359657526905,-61.370476623336366,-62.85024924758655,-67.89605908226196,-79.7869431157097,-98.53020489543368,-121.60924288130333,-131.81348833927257,-104.90963129476854,-43.65558365395119,18.18041900195219,53.74663371180175,65.00164947897545,67.62496996307136,72.02575954425076,76.76504595905108,73.28276362341444,61.82166434773926,53.05596435577885,53.411689858533066,59.22266419501831,62.97918361238827,60.76299329578147,51.73562205427905,36.777290769929905,19.59879772692827,2.3052930712796833,-15.236876482650695,-31.156303405349657,-43.933808644900104,-55.156502649824205,-67.30859498225995,-81.8123560129051,-100.75299892352237,-125.38490679920567,-145.2541419640738,-133.7516660116293,-79.72443508981296,-11.402474594071158,36.8698198668743,57.84025326115573,62.942109769646876,64.60846124014277,67.43326280181248,67.20196553166582,61.501544442117904,54.55156221907414,52.227904506168606,57.0174340078781,64.12739938625138,65.97791539110409,60.4341314525672,49.30714677687061,33.87461607423932,16.408084486522228,0.24985914674347343,-14.840233488492624,-31.19022987141037,-48.60772190779246,-64.19923797962146,-76.10133580058033,-87.21796828958985,-105.04267465371694,-129.876858037491,-138.9806056268445,-104.55792937611335,-36.800407030522784,23.129620999574453,53.2785164915907,61.458903535403095,62.90195477107227,66.26364001677631,68.14612148487433,68.0,123.0,80.0
55.57654642591893,49.94107927016251,38.37899034573536,23.13818829963226,3.9210684592334366,-16.56265199267977,-33.41092101686883,-47.99467164064175,-64.3690697577426,-83.99680350667002,-107.82378370518708,-134.8318333035088,-148.69789094438852,-122.96070713492577,-59.06033217691941,7.222182156558698,48.49674055467871,66.21980103928531,73.12582322940453,77.69610632951421,78.82497195610293,71.12829311126207,58.49887697568769,52.04255642283477,54.39138184688952,59.08203526275561,61.13951008396318,56.012970072761966,39.899144112793905,16.58535539282177,-2.2546476719525557,-11.414904026636993,-20.730323074487,-37.333964365191406,-55.15818207873641,-70.74474628713376,-88.27296183462893,-111.26797112217291,-135.81641762541432,-138.92803762732666,-98.03542299022435,-29.838914533683287,26.82613162055442,55.143157041953465,63.596360358367825,66.98474228719601,72.58409133540016,74.32994607610155,65.06997549869132,51.684841431819585,47.24466554581841,53.30915246023299,60.733216230116895,61.747565392480205,54.768649311760456,40.93481523990181,22.091535256777107,1.8147502254275627,-16.230054583332997,-31.085091454528012,-44.79148167524644,-59.360835043692234,-75.2665915612877,-93.13161008456277,-116.4974859601171,-140.55637568376216,-139.47426420229962,-92.9967413042272,-22.23968392613935,31.116895897907355,52.388328627600565,58.462289651425195,65.92518170216697,73.12082599853458,70.1393177395115,58.44089640045664,50.14407005823905,51.636938046230384,58.93586589066596,63.682137463436824,63.096117591579294,57.798926442589135,44.97546367395033,25.58770183159241,6.747219626105528,-7.322917672265938,-19.357874082983038,-34.844511955214806,-53.97063533480692,-72.41515521580595,-88.77744081749505,-106.14520414114872,-127.37056968820124,-140.9580116800474,-120.82703032693655,-62.185329940085985,2.829826535499535,44.516420798239686,62.108416074222006,68.70562944354177,72.41953395718119,73.33793537634385,68.37532119799998,58.66332985205304,51.64453644079808,53.12673264769811,60.01014616714677,64.81971739196564,63.46388020610705,55.61612207760536,39.791287887938445,16.82771724034628,-5.4171971925921145,-23.22859655787217,-41.48486841619774,-56.765381544454584,-61.99569618899194,-63.628614226560686,-70.65265776847981,-84.46605617296176,-105.15065912687496,-127.0779804995555,-128.51000753829112,-89.58089509916536,-24.174696971308226,31.58509633352792,58.84521771794774,65.99346877889592,68.5361929020268,73.72550522321475,76.88296891366676,70.40255884835825,58.530440593957074,52.220572113479406,54.86912849602181,60.79263979381095,63.00983268261596,58.86951664348179,47.89587361042461,31.8692294411338,14.623445726436453,-2.769722432763639,-20.125707275566256,-35.151739919833915,-47.21432304188289,-58.49158642726094,-71.19955776491906,-86.6997576055704,-107.39540204880197,-132.59797419457888,-146.35491871698926,-121.90774219437817,-59.60878004879537,5.504593095679393,45.38196753584063,60.32107896340052,63.36702598295092,65.38883461049684,67.92277502317648,66.02680745404645,59.344294902488805,53.18898832435372,52.943666953090265,59.20899497770736,65.42863137686122,65.07663812747882,57.71467089345185,45.2417149901518,28.86851934750121,11.523177124241244,-4.1058701294631925,-19.373252260932762,-36.21307511372531,-53.44043322054185,-68.00379831070424,-79.10839060847351,-91.35507231219593,-112.01807959898652,-135.64966881722728,-134.03829832774107,-86.73183415839851,-17.01326252868167,34.94174060733007,57.186787492699096,61.99763782465111,63.58455367434511,67.37087724910512,67.22978857180479,59.75297167753379,53.3177576311407,51.83102182524783,52.557042295811335,56.626075960254866,61.624512929208855,58.96355956844578,47.06043711023303,31.110748743216003,15.121281712857295,0.6521609309956811,-12.5017474140333,-27.96848806429353,-47.23265388659444,-62.5581973526895,-69.08034537439278,-77.6097599456374,-99.65203349042781,-130.74438501662496,-149.93207136152424,-130.32732185330704,-67.2844511255833,5.741728722582607,52.48016931542412,67.00332197245534,65.49750683169745,64.24129962830888,66.14489962894118,63.67150555731809,54.52009722405118,46.52568346867362,46.048535890290566,51.579186213176015,56.7149485853697,55.81207440078944,47.451780172390805,33.99921511462237,19.367625094064714,5.181365175373527,-9.646201653487092,-26.179876977748766,-42.91835453721281,-58.11937119624849,-72.07561731751018,-84.69752184327477,-99.18755139979439,-120.97182720387876,-137.2778913049148,-116.86410928936328,-52.494855685481774,18.721985494409964,59.78167978320269,70.8234600532514,72.35253016853575,77.39831808370724,82.64828478640707,78.95793975466827,68.02965435593227,61.201126317695994,64.10118234572191,72.55022072528331,78.47779728669676,68.0,123.0,80.0
-80.11431207762679,-99.18009793517824,-124.15852639613914,-144.25614262855515,-130.65164673012185,-73.12735349064957,-3.597557492376801,40.174043257511514,54.689961617042975,60.19618084357425,68.50422134368266,73.56794781021104,67.17931356583917,55.19265542629111,49.580552965106605,53.520749287220525,60.859650688583066,63.992754169262376,62.12655522716273,54.98471498102794,39.7863908133531,19.771712579861976,2.189199352806214,-10.746544541015142,-23.31870295325361,-40.1752507890746,-59.52708183895632,-77.29353035521231,-93.47417710604398,-111.97565927937653,-133.15558818772098,-139.60072912214176,-106.9214560405084,-42.2656044826752,17.823743115320585,51.54095269055017,64.60674010745426,69.95000373837433,73.10814850299138,72.59588759805844,65.81502175827295,55.96809743205118,51.16586631283235,54.8860869109975,61.90461581189404,65.09623529232778,61.8904339101651,51.94913492140992,33.64639901815731,9.935533710731404,-10.85268261661709,-28.322621722923135,-46.67478796947637,-59.28858316885774,-62.3116202607147,-64.92888310363513,-73.96664245376422,-89.74537680709484,-112.00855488829644,-130.8481941302561,-121.56889579578103,-71.8700546386206,-5.645137690459498,42.40520218040245,62.23159154613818,66.66243310164037,69.754266823939,75.28683332121788,76.09375237540728,67.02140940995719,55.76812168202718,52.19757262102307,56.608333849963756,62.01363680192631,62.501903195684235,56.391326141808925,43.61204102097463,26.888189958425187,9.642205745998,-7.865847922541617,-24.803354167495623,-38.87880944529099,-50.43056875127614,-61.95691786344368,-75.30990951421504,-92.03105949043741,-114.52063097265297,-138.97433794727647,-144.05768245146157,-106.62247173846569,-39.33261396470373,20.08153994302483,51.74313073795869,61.82636589468482,63.774229450065135,66.26616260468951,67.99835429753742,64.41068346172248,57.2337956121449,52.348508078972436,54.26186690011422,61.39474829666115,66.13010339020381,63.57654717512951,54.58158037794221,40.83288817017487,23.77943804433851,6.818357891691745,-8.429709992642847,-24.06198891930697,-41.28323842782074,-58.034674128800525,-71.48176327441307,-82.18043622166917,-96.27268596235506,-119.43491295856595,-139.28054001872917,-124.9243908295279,-66.9079976033187,1.0470658875218821,44.10888376819028,59.644795525450625,62.32210780664231,64.54696455474979,68.13109515066193,65.58809953962314,57.377569193068396,52.50560281541161,51.846136230330124,53.306341342958035,58.3469048672789,61.924022652348086,56.290403882015326,42.625369557659724,26.40085913733379,10.74359860780279,-3.187693966271188,-16.526673922157748,-33.321842953978155,-52.53240520586182,-65.13946536592688,-70.62642633377939,-82.43776813116574,-108.35723984695726,-138.75720654804823,-149.18511399331302,-115.69586408331654,-45.20719242548961,22.841563464748095,59.48879097162052,67.33122709582867,64.67972234058306,64.71533668665542,66.21893345118772,61.48102133894423,51.67932799343277,45.53508746239881,47.26792136238471,53.415794972057064,57.22063051190482,54.12064643637765,43.909758713240464,29.754965378504675,15.234971841984796,1.0451751262818276,-14.266303935902307,-31.105820854822042,-47.482250450921995,-62.26345780119864,-75.85109920444474,-88.36961555646141,-104.75667503745109,-127.5298030666555,-136.3653194026132,-101.7919895185709,-30.449181374770856,34.404405277382736,65.23563172976085,71.3685699205284,73.30822829361803,79.35359969705834,82.7254422046187,76.09250773798195,65.17217860087173,61.08443281464591,66.29936546348475,74.90870396501525,78.52860619504642,71.31302796521021,57.516334604918214,44.68625684983271,31.44237694204061,14.013114173450486,-6.135056887758477,-25.46273908670494,-42.01093164573654,-55.82227135537273,-69.19473822299129,-87.95802281200993,-117.64872146238905,-152.509347743344,-167.53285737945558,-135.961258155002,-67.21665377077953,-2.2199561762017073,31.087967996961098,39.70056642360838,43.739934606693005,47.030478967083305,43.90611039286984,37.06588415761262,31.09934186341687,26.489733902639998,25.77908159257305,30.44170932517865,36.03180191783747,36.62967745744006,28.709488547138456,13.820376825878634,-1.4366709154886028,-11.113307833446477,-16.435431466800296,-24.75954175289782,-39.3844028386898,-53.701614396650726,-63.085901473622044,-73.53935539929778,-90.38132410866291,-99.19685789069639,-71.12381777153715,-7.1123772678261945,54.826731718179126,87.16379349189512,95.3422684461969,96.65154995345337,96.83894177021571,91.71974281977477,78.85107753662666,63.3136817354114,53.4836079336774,51.85761661089477,53.821856534419936,52.84403947161339,44.2959590500811,28.289497665706705,8.059417580774124,-13.206569369775412,-34.72170440842305,-58.10092160413674,-81.93075929292874,68.0,123.0,80.0
11.16637659703558,50.70551189047647,64.34106608334682,67.29006437945225,71.26160267113845,76.4418474678658,74.36960939989753,63.44634241195847,53.72458451809891,52.89088271068286,58.41918264509886,62.788764749614046,61.44174721321635,53.33329133284627,38.98983169343927,21.896224869176272,4.630659294093819,-12.931400239502839,-29.21755513251965,-42.37987694854304,-53.652155604838484,-65.57964605737826,-79.68704386801552,-97.87443022985799,-121.94647417279442,-143.78418936953608,-137.91952972978487,-88.65074376124687,-19.871987198582815,32.14836702336531,56.27283761045193,62.68282083833977,64.30451394606557,67.10481252346915,67.5742274932452,62.46808398794998,55.324164245553085,52.11644332367445,56.06738550685582,63.35432338911884,66.17818940463322,61.53816775866977,51.058572335641074,36.126073909968085,18.711709562077857,2.2893106587841756,-12.79549340051727,-28.908718229380895,-46.320557536258626,-62.33020456044751,-74.68809148280864,-85.52366091461292,-102.0739300979722,-126.74371027091874,-139.90641551271628,-111.80752549790134,-46.26667608264242,16.76755706934203,50.87346005741675,61.05634748568335,62.67733226212448,65.70823062677785,68.30786175455155,63.393530029035134,55.36775553716334,52.06228730368752,51.99083896171419,54.416537746722526,59.97371022021686,61.37377510907183,52.92089741532826,38.00081950087383,21.74821151906166,6.522128312438677,-6.946838031084068,-20.875411340239282,-38.954835326289796,-57.21414470830041,-67.00442257427508,-72.7530822789362,-88.56591655722012,-117.53815127441509,-145.12217880724387,-144.5505778341312,-97.70765294565453,-23.435999186689386,37.082889700916276,63.992817899970525,66.82470088547555,64.19472225254655,65.36460216615983,65.69395248880471,58.80925307432233,49.1841430179566,45.257891463462364,48.8767961717038,55.039615333068134,57.119538642953465,51.812553654141325,40.03393570722597,25.504439351608124,11.144845432462732,-3.1922093028207,-19.035193859285688,-35.98575833358679,-51.89547411452696,-66.32483971590432,-79.49302646769758,-92.35701939749259,-111.04332814578197,-133.02383489843663,-131.54931644186541,-83.35181029569378,-9.088783933742667,46.96090080942578,68.56896305023022,71.65852151034194,74.72029914418549,81.08978974447314,81.85877138798496,72.82927752200625,62.95808885365527,61.80203168917476,68.7914279548979,76.84450298342877,77.59173936864352,67.57588291304324,53.584675923889385,41.14306578229556,26.866603620539834,8.31046463607352,-11.93684082742352,-30.55675066978702,-46.23881829824464,-59.542288631657854,-73.7347763190779,-95.34536471976311,-127.93024729390116,-160.3765895372926,-163.70162219048154,-118.34797923346966,-46.211561200591355,10.977228866875056,35.129255916999185,40.75743589760584,45.059874193213645,46.865893819291045,42.008550910631556,35.207749963671525,29.579926720136783,25.722387169708107,26.670891544427377,32.24730118439197,36.93565164614969,35.269100324740656,24.895640974357775,9.106860351712621,-4.920374921648554,-12.829106989304169,-18.19747598427624,-28.485148065099217,-43.94331660223783,-56.828912618150305,-65.57833442767345,-77.87429220555127,-95.05609917250487,-95.78293726660908,-55.00816741147403,12.826915454094891,67.52047253087382,91.18857689313982,95.86920815429085,96.93064244379106,96.12528170015288,88.72571208738117,74.23928740295749,59.61112443418834,52.28079534002726,52.34964937992431,54.11073115868537,51.24806983371359,40.3150620359523,22.72130421362854,1.9173048252734601,-19.338310393410076,-41.23784474590209,-65.14287962003958,-88.26046128812537,-108.27390454691172,-128.78007889417813,-145.9817223221281,-138.22141796116756,-90.67623109776133,-25.660012371005198,21.9919218009155,43.21237348493704,51.483871664317405,57.29497232414904,57.369402694520296,46.907498323829046,31.63230184330118,24.02407002911773,30.98330209821125,46.6768410102229,57.482615679496874,55.23349207281181,42.69986527352728,25.837164870071437,6.04255449030652,-15.550396817110583,-34.411771231647606,-51.758840379608934,-75.73749205797817,-104.25523436118453,-116.60538661330462,-91.00725997161584,-33.55003354146458,23.420886155238634,59.44151544110733,76.86187081589102,82.83661426628063,80.54297877345418,69.7119918463284,51.88354696353731,33.92725415962923,23.421716834303286,23.426221477168298,29.935128254894646,32.94158303808481,25.50947280187893,8.543164363609145,-14.218583514389524,-37.37037629113906,-57.295770048573374,-78.35674986441586,-105.12107286928054,-131.37233864690603,-142.6081569339,-123.24945111153613,-70.37097283350303,-3.7376113907793114,47.53179444975501,71.62749183816331,78.9619991097535,77.78684242308242,68.43538166754342,55.13768305266364,43.5589722709297,37.39059636925021,41.0108962068453,68.0,123.0,80.0
