19.308541446611674,-50.25735423858566,-81.9820411314372,-92.4650210397241,-106.75967851187855,-123.91100315780066,-138.70557373871466,-155.2894993268618,-173.49672145747843,-186.44722046261379,-196.39969472187755,-215.0809344624193,-243.04050896866488,-247.85893208331677,-183.98989397222428,-60.67806279786953,56.511350566758146,120.9724149535284,136.75284398078114,127.85307205571318,110.59214338962579,93.18587987897787,82.77304393496338,84.6113019293598,98.09177838687471,114.45185017067361,123.27412802732816,122.08638071108864,111.46272505439026,89.11614255280033,58.07738654747024,24.598414803815814,-8.000771473498075,-37.779957590792115,-64.97485811839132,-91.02647398980224,-117.19020616276588,-149.32451702197181,-187.1646027277619,-198.0706276681648,-140.08418974324638,-25.811112261421826,80.15738870578572,131.61912858931603,135.34648460788173,124.80747210845988,117.46819314726017,104.76004747471754,81.85031644517782,64.58638540864435,66.27862001002188,76.17386899303,75.83207212045389,64.1885451052256,48.759419855864316,29.707431952939366,8.359014640034161,-11.748781419816059,-34.04953959071093,-59.97721196470514,-86.14232733697523,-111.15097563899356,-132.17793901686522,-150.39298431579675,-177.58250852409174,-210.62469934882074,-208.07922358181517,-131.83738896759806,-12.718655773241178,78.8217638682545,113.55887956129659,112.985681921147,104.6999501433757,95.03067891604894,79.96375267620937,65.0720707549364,60.24142088284165,63.37224567991463,66.40513045873575,67.87624038822834,64.78835953307127,53.15728957666242,33.2215772217416,8.020298531420355,-15.242954238603527,-32.629890892856096,-50.1703390980195,-71.40599575330117,-92.30382202539836,-111.76349016909961,-131.03549773390588,-150.12931388086625,-173.65405814102738,-196.2555221478682,-180.2834410880752,-92.48471675478429,33.47074367967365,128.12671288148366,165.79015928731735,171.1801405654964,167.5856192967163,156.07331306635055,139.75802209834993,131.35946953009392,133.1636536613426,135.7003410722941,133.06417332260773,123.94916562331387,105.22204999990723,76.61167588159556,44.87873570651734,14.062994722159209,-16.499522340095506,-45.95514534589221,-72.6328514111772,-97.01592972678377,-120.47702794343398,-144.89308489569035,-171.06230261042603,-198.11088384799717,-227.9192318129135,-262.2553367733843,-276.7360024672195,-221.38532810667533,-89.9090796045108,51.67471173692846,137.69219036033277,160.2923432370687,149.57230465626537,129.93206258951494,107.64903623643795,86.32463883528986,76.23756466911752,82.8479567499498,97.17857430195855,107.02789088194018,107.07757740174932,94.93958187080787,73.83866659279522,51.07994333624451,28.06459044261983,1.7467396298325986,-27.35904944671257,-54.03282627112106,-75.4976881922361,-95.37523672928766,-118.2239212057232,-143.5587448790465,-172.10444049539538,-207.42978563253638,-226.66392451876067,-178.17544517690203,-55.818882871167766,74.74668879305824,153.23023446028185,173.87530273365275,161.4046646304675,137.1855764332786,112.19602450717547,90.97760207733164,76.57923058608723,72.81383285002272,79.88256582942627,90.29059445615286,91.157819511748,74.24344585666572,45.8712022241965,16.90874910568875,-10.751252417661249,-39.293601578066436,-67.24981852291242,-91.89783317965713,-113.45178173951616,-133.5801936785703,-152.95458248552552,-173.9397048795958,-203.82214157068074,-235.03294938980045,-221.44696642794415,-124.56339557590704,15.409283358626709,119.06433746407201,159.26957131811352,164.50611234958987,160.77646726440335,149.97180197809635,129.51165243499295,106.04261109741094,91.19049250082954,91.32622346264777,101.44851889869766,107.38332848906566,97.94012809259452,75.85440613381905,51.1884239056479,28.073136625043837,2.9175322838253854,-26.264487145277393,-54.95958065602759,-80.87930785555615,-107.31612238488052,-132.4399825950465,-150.26652917922527,-165.50579446784965,-193.11157969411977,-232.86630053896636,-241.87693079260362,-168.39300621171725,-33.09448392966361,83.01280941372917,135.02569525843046,140.99295442448806,133.40037433608128,122.07732225277555,104.310696087072,88.07076550692388,84.20334000545466,86.95101840532026,86.81878800392525,88.03797651525491,92.00797230080096,87.14708114251488,69.43489417767074,48.19065539766634,27.505435027262724,1.492979639176252,-27.63272067052649,-49.81588920134118,-68.43237520795576,-93.32431034496209,-123.06320678677591,-146.64427963990485,-163.16878967247928,-189.41729951452442,-227.0549337233872,-233.22380912182342,-160.88054201421082,-33.52554954089797,74.3643505273242,125.9121121618622,137.05158721355525,132.84169509885135,123.61484691050687,109.86131600218546,95.46534899875535,89.11454299026612,94.22206451134649,103.6151171573508,107.67162499654836,103.51754110790336,64.0,124.0,71.0
-137.33629775362024,-156.82537211774658,-187.6749944109194,-216.0077482353692,-193.81379354790838,-98.66394161160211,19.090995886376028,94.37240133656567,115.52204284526188,110.66749110214855,102.25670658966193,91.24180059280033,75.11498558281369,62.44000963848803,60.75232137190926,64.43152674290825,67.01001388892269,67.69800311694401,62.36188406874478,48.17330791907282,26.241402084445717,0.7357304151332549,-20.741591813270354,-37.33850947957842,-56.03701124176538,-77.65919451885,-97.97600969197492,-117.37941014579418,-136.4642130178974,-156.23935392492436,-181.3144836071343,-197.84957212723796,-162.28759937567216,-56.83715388030941,66.45511966322589,144.3283108759078,169.1770152093767,170.72491753206697,165.21847079192972,151.32100708330535,136.07144958828988,131.1711746311074,134.23877535776745,135.53992255315586,131.18427075646008,119.68672010385787,97.75351542463399,67.44286098931201,35.882202077827436,5.232598177991159,-25.23215352827397,-53.95750209700138,-79.86628066426096,-103.80807593767311,-127.36016501649803,-152.29560143898456,-178.81349142185107,-206.21287318780873,-237.68453056285662,-270.59873359207904,-269.739190469844,-189.2934990808886,-46.33156851962964,83.7657759500079,149.6914940906648,159.16386399267049,144.2737803759181,123.72619090024452,101.02294583793464,81.77378314613175,76.57234961790057,86.84124791565911,100.82659281210692,108.19329627739407,104.83490594726396,89.42741767522163,67.20409002823966,44.58949463447657,20.890389494356544,-6.5560160852215015,-35.560131710778116,-60.7130490691254,-81.14250920733863,-101.59379660420943,-125.38894232816116,-151.2351431337743,-181.78900397195952,-216.80644632241928,-221.49235121657054,-148.41930469669524,-15.394724679043405,104.04265120328563,164.23941103297375,172.50686806162543,154.9676332696824,129.75782267937092,105.5620597244263,85.94574928071712,74.2663027250942,73.92243408656242,83.06552412423798,92.09888138472185,88.10356284301257,66.64784958253112,37.2917338944665,8.898078846944557,-18.881004420105885,-47.58850572446268,-74.75975589128699,-98.369686114125,-119.35712697851147,-139.24383194781697,-158.58660438651643,-181.38844294839663,-214.03495408420898,-238.36729084733082,-201.9425779198085,-84.84769445618458,51.76297491669476,136.5117623921516,162.73992989515133,163.91585243351915,158.6151768409635,144.94819351862188,122.53130486658473,100.40571755571445,89.67628307226086,93.74726652962785,104.28324464090097,106.3985274627002,92.41444762217284,68.62511846770471,44.41633965066022,21.23202748749961,-5.213632281698506,-34.8489781527777,-62.62693456558888,-88.35618864332041,-115.02301069558355,-138.4355183761129,-154.33636184160142,-171.61682927174712,-204.36174785742963,-241.48215378514254,-230.07887471053505,-132.3982393198637,5.78048747253813,104.72352983026974,139.81920705023774,139.24781137660042,130.65560852899344,117.54358420184934,98.80454851559664,85.58035354173462,84.92546263282439,87.26350843191919,86.67223851949166,89.29057475984395,92.02193224011481,83.06800035799465,63.2137888743957,42.342628030224446,20.75636338726673,-7.104232358262499,-34.95550362246687,-55.038409938295565,-74.76118191679242,-101.84025125835753,-130.94900480395933,-151.5969830417359,-168.97974232170876,-200.17551799836656,-234.80883916593461,-221.0745848472854,-126.60036788421392,2.549146046143315,94.99793479417593,131.99193732920787,136.6421165091188,130.60818427634615,120.08212294795653,105.40567307794821,92.45751781947517,89.55435384815529,96.98587219777772,105.62076202715329,107.2483908487592,101.12765937362639,89.70091207949504,71.20892612357392,45.42416083237184,21.65876022968919,2.423834580303896,-21.262122504275215,-50.01533686249762,-74.60568946627977,-94.9518786275288,-118.50543384383846,-143.45385451692377,-165.50048212125705,-192.05453386267223,-224.0360244537011,-225.92282502172137,-151.4845109674759,-18.931863793964286,94.47964759186708,142.96929311699785,146.5957553782749,140.3139538086379,131.63632583060266,114.63993635798566,95.11643027905532,86.05466016337,93.32333228552562,108.80199573005854,116.99206394447839,108.0414354155463,83.59000404024106,52.451759834311304,20.947969684077353,-7.759200720928627,-32.1809750395626,-54.61658375499529,-79.97430408463832,-108.78344500862048,-136.225314730371,-159.1761023628554,-180.0187146198178,-204.9977967007507,-234.14314600714695,-238.1142756209424,-171.17846795208814,-40.07253929066046,84.81514310869298,146.25308077820532,151.50553794996657,139.3852176351033,130.87661967246896,121.07094281878265,104.73492172416502,92.37057521272361,94.37896366797301,104.74763031988113,109.10982127709752,101.33843116921578,84.95199218283916,63.53149123271171,36.66064262126705,5.262007396391009,-23.680606368003406,64.0,124.0,71.0
-4.044285046331698,110.05133273555784,156.8272958727654,156.125504593593,138.61851974530524,117.30913861223439,94.6344680230156,78.46461919650878,78.30771376143619,91.11949919562409,103.87198490906447,108.46129822223823,101.53043008310622,83.33339844082008,60.60158165097764,38.01871300946669,13.365942701308365,-15.018897374851152,-43.4012535512248,-66.95574659455535,-86.79981251800693,-108.1383249519337,-132.68806849430413,-159.28101448579494,-192.12021949294981,-223.81820616241782,-209.3027947136777,-113.21829923835634,23.63583785991572,127.99950830731129,170.80929179807148,169.0637688703273,147.94835529392415,122.45095174882759,99.30633664657354,81.56995434852927,72.93677755092638,75.87800681391374,86.26884973669895,92.76344420622947,83.47397012552001,58.40768868171348,28.87033584576211,0.9420121153318654,-27.126843028255077,-55.7471067985953,-81.94949574108453,-104.61883767647645,-125.1841532920042,-144.83963069778483,-164.45979644866347,-189.82036594827753,-223.8676855426336,-236.4154112974738,-175.03623897807876,-43.44245060362125,83.25836046417844,148.79392134313358,164.27576251383525,162.9389981917785,155.72530965726773,139.12064983026227,115.56092214043969,95.77547452251234,89.47964550271226,96.75955687889463,106.3637269968084,103.95887770169189,86.05297741193492,61.424458834431455,37.77605536369612,14.080134620794272,-13.65722641696158,-43.233242053869276,-70.0890691419365,-95.98163544318723,-122.46536913705765,-143.6966776255374,-158.46808793525562,-179.17928201386647,-216.3268730655847,-245.98315856273334,-210.3992359837435,-92.76485794228815,40.914247397796665,120.724951240463,141.67421784489082,137.03264813627047,127.55877585443558,112.42093969337539,93.78780084365278,84.29069867760744,85.85768195807782,87.21288069169853,86.88480484667114,90.63362235093057,90.94770170482406,78.00245812760136,56.99704817635455,36.49215005187523,13.369706675527484,-15.720186852173402,-41.48657072257963,-60.24047383404327,-81.80455272256393,-110.57755713434514,-138.00370561880897,-156.15842032447952,-176.13928156094315,-211.56906244392005,-238.4145463540442,-201.54601610803763,-89.24015940410462,35.11183584316028,110.71505454103183,135.418283528577,135.45831543809282,128.03921721953856,116.15009063259,101.07233646114211,90.34815494044483,90.93091400562986,99.83905176647704,106.98256803323136,106.15357451946389,98.33553337834984,85.26568448893575,64.21963307790676,37.91879330737414,15.963142070662023,-3.6226574622184344,-29.42747372873995,-57.85258167211806,-80.55913997515093,-101.26311227809812,-125.90570251009638,-150.0158625636408,-172.22108121306425,-201.4971231500647,-230.1585666446073,-213.17322377921275,-116.16436736528932,19.164988467850527,115.2644551068325,146.78560008195208,144.87194897437178,138.37136184472712,127.61687784462407,108.68107470200955,90.93020143666712,86.56783910464351,97.62094863947523,112.54540917061175,116.31894548615972,102.22280677934599,74.90174862713707,43.22415593271862,12.25131495689271,-15.24000589062003,-38.653099965618125,-61.47727527385542,-88.1064262776503,-117.08346688573785,-143.31866455730108,-165.17754113510023,-186.5248927054869,-213.54319002553217,-240.094123957305,-227.31960780929055,-137.50529878610482,0.20617048604194887,109.96975009374913,151.88906521487877,148.26370090130214,136.4372174590563,128.6674669320577,116.82043759011978,100.06874184954859,91.40716256346187,97.15789275078303,107.14496629511643,108.0609738274452,97.25383409001026,79.24199083404912,56.383426085143554,27.85110446058607,-3.7405182825600445,-30.613960807352388,-51.0461071514998,-73.09753507060229,-101.18890961789303,-128.725276397964,-149.8240333952899,-171.6152935172706,-203.89809185379048,-231.79405862299842,-210.29586526512566,-115.32917512010297,11.244171061262827,102.24692544150473,134.22633107274464,132.77927909738568,127.7233602618905,124.37889121905273,114.62553644872474,98.45161919849133,87.424674873461,90.31479204380341,100.93202346024933,103.92442674976743,93.68006725199426,78.76555034751699,63.518339465320246,42.049383883900575,13.910272173428359,-13.587777874603928,-37.97671441652272,-61.83517993805847,-83.84933520563001,-102.58323588762048,-121.96610769101483,-143.26977873641317,-164.271019233433,-190.87346757439073,-225.21318923980877,-233.85191320788812,-168.8136219380002,-42.38220625983497,71.52394429226621,126.1487736261564,135.19542023905746,130.24920096534012,125.29895380564568,116.27942040917873,102.05921830285156,94.78598577708387,101.45823042975987,113.03639151790442,118.06178560502731,114.65326291260217,104.27199358416745,87.01705913371566,64.69159684247138,41.005491373501194,18.96248878858211,-1.838961173601188,-26.877656820564127,-60.42329521363464,-95.18995876725819,-120.07474185412441,64.0,124.0,71.0
108.91353913050077,92.3389144229121,90.49789901759763,99.99347812734152,107.3595053942152,100.12921562228873,79.14606356764983,54.373552242023194,31.156388014205813,6.535691754476642,-22.276414022020187,-51.33054012511712,-77.46887092022232,-103.7303310555239,-129.4352356099376,-148.30668040827663,-163.08866655126383,-188.3548090730572,-227.9755180486247,-244.75254060430535,-183.18889965514995,-51.79353962987629,71.029709912472,131.55456809038586,141.51872258079646,134.58736533176042,123.94894069974642,106.90372725596755,89.62503252569843,84.04408874839622,86.67594704342162,86.94865547115477,87.56910414938491,91.70862331907952,88.63545894899521,72.2390042598964,50.92838767732285,30.431918932391632,5.357737847537424,-24.006826213497877,-47.31048155933062,-65.73205113833096,-89.5485224749811,-119.21176539868318,-144.1231263809766,-160.8268450509876,-184.8727096932808,-222.5266397909557,-236.38769418926012,-175.1016747912604,-50.929854272061675,63.131401393153034,122.00986250412551,136.8770190787283,133.75765651191202,125.10317947332189,111.89495357390494,97.10430738618469,89.25939726322402,93.05674924196587,102.51058510250336,107.62441596716265,104.46834382667674,95.1547877000987,80.1226566263882,56.71505913778127,30.884795956466768,10.523517283135044,-10.299188412916898,-37.854488352931305,-65.09959775028459,-86.32865091632344,-108.00440002034689,-133.23484927565687,-156.311760050533,-179.6387558505162,-211.20029341320782,-232.4414691472803,-193.12666466038274,-77.36547249913299,53.551500125253334,130.23631154402312,147.86669088234305,143.00347414969025,136.0861883017889,122.79672005695822,102.80739502152375,87.93339385103417,88.46980903020393,102.26373204750082,115.29676245318942,114.07205933429597,95.26983244283922,65.88880994161903,34.06435156747472,3.858359630232191,-22.351119158585924,-45.06228375858424,-68.70587747057708,-96.46244287100726,-125.12501602377162,-150.00860808893407,-171.11468507141203,-193.56058296625926,-222.318139529809,-242.80897636492773,-209.5594544562578,-99.47113596281609,37.85698980280325,128.98394074717402,153.6463177429759,144.54141371509135,133.98130387026163,126.04743197604127,112.04074043355531,96.13619325454846,91.77628499276645,100.31090542709995,108.69574467672258,105.98418934241784,92.5906794560793,73.15536008598599,48.736249109308986,18.735882370706932,-12.302003437873378,-36.926859827532475,-56.84990167586808,-80.71364525404779,-109.63752761864916,-135.43003691902186,-155.4569464354042,-179.81522354560278,-214.05502885928482,-232.75155783909193,-189.81045311349416,-78.80156596878446,43.4260141847653,117.02416919384174,135.59371762584715,130.95537469337617,126.91177066743528,122.4915448305683,110.24318947131523,94.13637597736441,86.79139063488127,93.23839079736135,103.16985136732889,102.0988839751951,89.4054389217562,74.56177431497653,58.2144491336415,34.314267977393925,5.6204133246064405,-20.84824606018481,-44.870749466313185,-68.54574708875947,-89.49711419055026,-107.91848148690127,-128.05661807555467,-149.32369676526997,-170.9144085447902,-200.6374987685423,-232.80084454075504,-223.78468834240482,-135.83045707418867,-4.872940498110711,93.69890083737997,131.93316353830215,134.13240487944012,128.78946061082354,123.43097059918803,112.33559661840968,98.63323455619408,95.42402725699148,104.93843447353777,115.42195859974028,117.85429598859402,112.35537355011931,99.97423704883765,80.93217737759142,57.82624846349344,34.38850333394264,12.983979444095949,-8.321563653321801,-35.75495021811872,-70.95697478885606,-103.58494278292363,-125.55165319479177,-143.90600248149386,-163.57014852357537,-182.49291760252206,-210.43224373933873,-249.3122982756515,-256.6151114813845,-181.55439450926423,-46.90100614429784,67.44014916201584,122.0843878936206,138.20926847559303,141.3036744365351,134.53201622006455,117.1852425794353,97.79115962498966,90.01571546124158,99.05432241788097,116.06761939861357,126.92322822483308,124.5767141630115,111.68712356554353,93.13225696837087,71.18024765493267,48.24001589179054,26.545248111273754,4.182892996284785,-21.118290961518625,-45.90858868154652,-68.30775956153947,-91.29336653415253,-115.49684403247747,-137.32492197708416,-155.43200727518294,-178.5988482411695,-214.77665916194096,-242.775920650676,-208.2198270820856,-89.73573820883152,49.99342976087019,135.34989585804556,156.90264659120967,148.20661883669828,135.0590602658818,119.49446983546653,96.47326137587322,77.13738586405826,76.41233403044502,89.30168605449506,98.80697740841634,98.34963593468734,90.11435175852982,72.15155003694069,44.98212759787338,16.412158090651957,-7.990063878516522,-30.09892579179443,-55.70817227965783,-83.95580700773051,-110.17966582961523,-135.03348017424386,-157.19522772222575,-174.98145092326388,64.0,124.0,71.0
102.28226593193499,91.53974841395257,74.20017926695473,48.97948285394872,24.437899728206553,5.045353985046023,-17.65841078484214,-46.2424104417941,-71.73072038859546,-92.17133824408629,-115.12945827387608,-140.3091713853937,-162.55672072759012,-187.9334181006558,-220.33114423188772,-229.43523972932107,-166.06842097419965,-37.251424774548134,82.8856039707538,139.9871952536437,147.22957385716336,141.16214482865286,133.21245126983257,117.31938213615669,97.37624515230019,86.3113374374828,91.56914299904095,106.83331138191248,116.78619656997495,110.28055527389127,87.43180322452507,56.70796193319967,25.04210213184399,-4.180613457169502,-29.139093087599203,-51.55511691678406,-76.3316157111228,-104.90412553142545,-132.8146538247287,-156.34767881735397,-177.15215363236553,-201.2379614648598,-230.68117841997906,-240.90316733927682,-184.8002866617161,-58.983903640598534,71.22081269866581,142.06047238108667,152.62108913222337,140.92026856640345,131.83687870332767,122.80377318829466,107.02392892570826,93.26901388369528,93.33248376626592,103.42938704501215,109.22889774524191,102.99003791168104,87.45685473793712,66.66839274696846,40.582163762485614,9.499465385963886,-20.249784962895706,-42.79084859593051,-63.044166840145735,-88.82995786178853,-117.78235072033442,-141.54691608960184,-161.46772583571223,-189.0697001526085,-223.1100389294235,-228.2740499208104,-163.14014819725193,-41.328364108606294,71.12640033043168,126.93802753251985,135.1086226747641,129.37521216636173,126.10485892297459,119.85846623642209,105.4675022708677,90.61206296937245,87.42483483094271,96.49065961959502,104.37534032932241,99.21926507736082,85.03478838004017,70.29289785975472,52.193927539955766,26.148164595539363,-2.422059725721215,-27.885100397935638,-51.786193580340296,-75.00356045300515,-94.89243985436069,-113.44652124208295,-134.25258406469507,-155.31196041959117,-178.30960127515237,-210.92523231508764,-236.95557783298852,-206.53435770851127,-98.94311650647555,29.520946207090287,110.45885230686766,134.71620006900903,132.59948352476135,127.4310808363978,121.00466142140407,108.08179441704284,96.17698251197808,97.23512166149465,108.4687001776948,117.05873765026047,116.9904924964786,109.49313302820713,95.09783817241791,74.50229731406765,50.939919215390205,27.971543335166295,7.049594375167792,-15.341496272716935,-45.384229743091375,-81.26476628842221,-110.94923426535205,-130.75723897548448,-149.5864643269124,-168.97606244756315,-188.97661502202405,-221.48854751418403,-257.528131067493,-244.2454457138849,-145.46981399241287,-8.60081328432789,89.16958908043755,129.16572391737722,139.96103349937894,140.52059005171654,130.41979208503858,111.18426555790121,93.84804186488263,91.0561655700958,103.79618877300607,120.35816998850312,127.62620175539931,121.68003642454472,106.77124477750134,87.05946878776285,64.51529574428724,41.83192722496649,20.335399178409588,-2.8840210204436283,-28.541298114168622,-52.53274929496736,-74.76145634029075,-98.26701174044415,-122.24324452380621,-142.75425126598418,-161.01896663994953,-187.85470147867994,-225.75951566313026,-241.62553409790448,-181.26945221872904,-47.423162676296236,82.07886508669098,146.91397250883037,155.9345419720651,144.35103639570238,131.1757473186501,113.48186061654785,89.64805055711867,74.77383767058615,79.49552187112774,92.99417598911256,99.61499417792403,96.75060564633034,86.07206295953819,64.97461231543778,36.50397082194238,8.866983527621446,-14.34649718481654,-36.981084785619295,-63.85979133618538,-91.80493640662291,-117.42748857032987,-141.92749627477318,-162.55592502208327,-180.70427686346383,-209.82452900927194,-242.731695372394,-226.50401235834642,-123.28348944114529,19.962711955156305,123.94068802043786,164.94200898254826,167.51689427752206,155.89290149673937,138.91702086882995,119.8217942001001,102.93735395270988,93.49190652570559,93.38096231796558,99.20284485226415,103.262841881832,97.56530015045296,78.88345202423808,51.85129090323449,24.757872138670887,-0.8163219488356988,-28.08246619941355,-55.02773019682377,-77.7887934360507,-99.73702466599843,-123.24987722007727,-146.35653333823126,-178.67365823866675,-225.97817665880524,-253.63587584893162,-206.12704032964322,-85.3211139339138,39.65360606176704,114.73447963160741,140.58146974219787,139.91651814304146,127.5377053274023,110.29364397485651,93.96835294276922,83.09820061060606,79.7960811147336,85.27651677318856,94.71682401943588,99.15093693233294,91.92603011111825,72.39688229797436,46.92224714488958,23.50778586772043,1.3602145469558122,-25.62276900056784,-54.74395426442088,-80.14927460703295,-103.97607793588044,-128.62372688205076,-150.5545184829127,-172.06967100009763,-205.83108244602676,-245.51922226870175,-241.27340084146675,-149.55030961381357,-11.331257020784786,89.98429492782277,64.0,124.0,71.0
-27.50163174175962,-48.44106470964492,-69.78517710358446,-97.2614291394805,-125.41539048187266,-147.2554223352422,-168.19570407911493,-199.12960726882685,-229.84070966517754,-217.50514899374582,-131.32590632215178,-4.798245354539273,93.66466708616959,132.71248277288933,133.614942493541,128.16630010249114,125.03291269254164,116.4448205627152,100.6152851215864,88.15010089634374,89.1882610335779,99.63699033655382,104.35922316752418,95.55180056143755,80.72131476537845,65.75894648838349,45.414846226195436,17.777216110398328,-10.141092642644388,-34.80179955983058,-58.68383213893169,-81.13751281866105,-100.15870222802418,-119.2219469246091,-140.44266927389367,-161.38088389088347,-186.672782356772,-220.9657674403495,-236.2092908358467,-182.20815562016733,-60.23678920815001,59.45919228424308,122.22070756268658,135.38084196569068,130.97122944616305,126.02319414745756,117.91966717437684,103.87332774660328,94.92541920487466,99.97356868142741,111.71258290373882,117.91908767466202,115.52324300345158,106.05477285029036,89.68005595895454,67.82592392425322,44.11289962213607,21.76267593001109,1.0197413488576934,-23.056803828055994,-55.59436330293626,-90.98716550675907,-117.37196851133618,-135.96493681513175,-155.34052101172017,-174.29377189667704,-196.6417320231414,-233.2165635818456,-261.5423085273267,-224.05634626866734,-105.98059750392609,25.9395976466387,105.73376491863009,133.93234144562743,141.011542844276,138.81118861826258,125.47605621189392,105.32124623682117,91.20897913727008,93.48568362909471,108.86590240923897,123.80148010806043,127.16602988766735,118.04364859813509,101.47406615137153,80.73977175513815,57.84415001864885,35.56301000910647,13.96517824288918,-10.203740727191338,-35.78387834498049,-58.98383707377406,-81.35631465816725,-105.30503722902658,-128.6691025776101,-147.91001420409177,-167.36190994429722,-198.29203393625,-235.1263847623407,-233.68676278000453,-147.56730488294207,-5.643339962477042,108.21544966722416,153.67290036897379,153.38044386110164,140.53204728331363,126.90278691030613,106.80264044564505,83.60673511219868,74.2236718802791,83.34037895519072,95.99759216020416,99.60468069021199,94.55474101601386,81.1053610243469,57.140204949003135,28.134197870815704,1.7447258153528427,-20.638813070567362,-44.29428670121739,-72.09718627246151,-99.40856249527155,-124.63247531480197,-148.4778183146357,-167.58099493830292,-187.4716957517056,-220.55997234604615,-245.95503625643283,-205.24040244372753,-82.11129502610619,56.480217236127956,141.6091304925325,168.25778959579122,164.99064073535808,151.38600646639247,133.4641949831094,114.47582687625624,99.25785602791244,92.55812254950075,94.72571351437594,100.96055805291833,102.88006562389927,93.46234270165813,71.53309181862979,43.77807450358345,17.36110266472458,-8.460896769312438,-36.15000398938788,-62.03303996870765,-83.94354342829126,-106.51186445888449,-129.83310381842364,-154.05954740172265,-191.37594904263284,-238.65860145723295,-249.2488571416811,-176.39868655794007,-46.235641192220214,67.34738244789162,126.27915133418253,142.2247847902945,137.1681865461175,122.80976375416803,105.22569291892952,90.15236430243446,81.27595908679277,80.53053599525886,87.99024702502179,96.88271476243644,98.43080442893695,87.38411429194231,65.23604756436627,39.74484550628305,17.295484953704857,-5.836919225909372,-34.17017770084214,-62.52259001290382,-86.97609781627041,-111.09517468441979,-135.4026803327708,-156.32117138244251,-180.11840127937447,-218.11089725768718,-251.71987077774526,-223.8070726031266,-110.48902256563503,24.49993645143745,106.59185507673908,131.3295902841224,136.2220316595899,139.58110222944208,135.97627894366266,122.5135737059635,107.25948225841427,101.6352640614333,108.17406012835195,118.17504213571361,119.40441135908813,106.94060906409061,86.34178383047956,65.72290353980982,45.58115121536313,21.565614965445327,-4.7562090771414995,-29.783387219380113,-54.14826646503127,-76.97426564449667,-98.02139384842322,-121.66137965199607,-145.74284988111967,-163.44231761660723,-184.0078291051575,-220.74936274024705,-244.53264081391336,-197.70578348027027,-80.57361055785249,33.99542742510766,94.0052317888328,112.63635868629738,117.11738594965891,115.23045518982366,108.0309962924723,100.00707290203637,96.76475067920178,101.20711429454641,109.06173512469896,112.42312619312078,109.67889236720214,101.91656098989093,88.39093633392642,69.65522105053205,49.65769866499584,29.91345573848774,8.647337859441278,-14.138851472866406,-37.362391783361836,-59.98603736247127,-83.61607014447785,-109.46017499594109,-131.09586620593944,-143.34900554795374,-155.20944507599225,-183.05310759937436,-222.33237046475335,-229.34127050435964,-162.22818504350138,-41.93345396615552,63.9195615944491,116.433580713293,128.10211036023958,64.0,124.0,71.0
-123.07907135745658,-141.3483428103597,-161.01390816809248,-179.79139888838026,-205.74457007151904,-244.57740075095842,-259.75769637355256,-196.46526890329133,-65.37253468691318,55.58561639918413,117.79876010139907,137.11937384618108,141.38252411868095,136.11129018326014,119.8983304151964,99.9773622538078,90.04048298962313,97.08358008603356,113.87799403398013,126.20149349161562,125.62089853928694,113.80867175931962,95.836660259247,74.22834110603675,51.243158284760476,29.385689153153503,7.339317229186372,-17.667228810470704,-42.77494563447057,-65.36233273933857,-88.12041521311514,-112.31002261787451,-134.69177480301622,-153.01451412371514,-174.7673345152233,-209.52057427438385,-241.38330334402906,-218.08085189573416,-108.76203275062889,33.41079919527876,128.16795600606767,156.58409438957642,149.9403802179198,136.78848661554485,122.00572027732773,99.74233334248436,78.81874623910198,75.37969932513678,87.44863897760888,98.1328574867474,98.8897611953344,91.69043833836454,75.18732536999478,48.87334772950306,20.028910819240725,-4.990762228064323,-27.052541888383324,-52.02652123094544,-80.25603557485037,-106.81244635678364,-131.7793427193817,-154.56283265158322,-172.57520860690758,-195.58387580981469,-230.99891587319766,-243.35533937500244,-176.41259469944805,-39.66678555908983,88.01426454197117,154.18460309889375,169.17691228793294,161.69907654147832,146.5252492120514,127.90935709852698,109.4404124646933,96.32398535676177,92.39637650160556,96.43887167290151,102.34589340114562,101.51587956348858,88.25211368956329,63.69075642824148,35.88489617815344,10.028583416095017,-16.3217043710397,-44.05505488203996,-68.63805892218961,-90.20342164863474,-113.3672470741693,-136.36257254636243,-162.94561186708268,-205.26629294479727,-248.32454822138337,-237.3129361230445,-141.51513435420244,-8.854207425069648,90.11153013290738,134.19919840659117,142.20496920202424,133.67648187395372,117.80580607417299,100.38413705307612,86.86795489647899,80.13043225601108,82.01355380622925,90.83004668757312,98.41434471352792,96.6116674335649,81.87016547804858,57.79831389007084,32.90968388163516,11.033969226025409,-13.559281100159666,-42.70398246822038,-69.90512983089735,-93.80650375785285,-118.2770503518096,-141.81687447761033,-162.25885101349618,-189.5606002548202,-230.3650273884797,-252.57358592937575,-198.48248998939175,-69.5569371436529,55.34030548169743,118.117744874385,133.30206142751626,137.38635425890098,139.59697091059425,132.92592341380262,117.73334140034346,104.290031738425,102.48719463384899,111.27871539936301,119.86421121522454,117.12782345161642,101.41167557533132,80.16704618296228,60.06633861074314,39.12783345144138,13.967098624475005,-12.144782030879,-36.85352068041347,-61.01216260902295,-83.07850214158817,-104.44646267586411,-128.96130608620538,-151.53982392294697,-168.1818397033564,-193.1378864770145,-231.61205944695106,-240.04749365622754,-168.63327328839566,-43.633848070333016,57.342412130419284,102.14770064895757,114.70277524021333,117.21155637239497,113.56865562089563,105.53038306511526,98.37090381818511,97.27331905927419,103.52072574637991,110.70945401783061,112.18359715292023,107.95744499746696,98.64608498062468,83.37789022015255,63.82951726872891,44.0037453243138,23.96881825613924,2.1785001803962025,-20.862794919234755,-43.963505570514414,-66.56342411526767,-90.98510610040697,-116.55960771575815,-135.50248510491284,-146.06272644214576,-161.10419281797425,-194.5040709041812,-230.19295389548634,-218.12460261587822,-130.18387723341849,-7.065027972074185,84.78550441510419,122.6919774047064,127.93305927221397,123.11837944955626,114.09033345672995,103.02030613658495,95.8690438533177,96.63531252402267,104.35508148821542,114.11933157243348,117.27847754598798,107.98896296259782,89.67802557544897,69.9634023462123,52.57890478913435,34.06428937218256,11.202290050722773,-13.316232969091756,-37.23485389629319,-60.49143938074624,-80.99544271081987,-99.7168899505528,-119.37605192364185,-138.6999576249597,-157.46111482710342,-182.9578746294731,-216.79172059353263,-227.20732974728824,-165.84180223396973,-40.828276751326435,76.88495225235762,137.14435582422806,147.879140584464,137.80522051909725,122.96402009833565,105.35891422303712,88.53003683572747,83.8813810258746,94.1578177600755,107.46888893945689,113.88342146793323,110.00469331300889,95.44875687341515,74.18157256480596,49.10507941597915,19.165501632508107,-13.304669013036513,-38.461945368549884,-52.91422048704964,-65.92928219654824,-85.87187836186389,-110.93512479795469,-136.44907653677166,-159.57381141478686,-179.4641644987102,-203.25168845370837,-231.4429363564316,-228.17203916411435,-150.7422429094658,-21.340868032045144,87.20813627013412,135.98777227684297,142.43852269111122,136.8295785641191,130.77650186605695,64.0,124.0,71.0
-177.96093086484163,-205.06981669829463,-239.7345541658568,-233.62206354070773,-141.19142253891863,1.766304809317217,113.92848922172652,162.39777563910633,168.34558981096188,157.83402214939363,141.3724188153292,122.35272341765481,104.8586408946555,94.19570536057675,92.92974401163976,98.33013809180262,103.14471012148056,99.07233317810719,82.03955533575781,55.60173379930945,28.219858006265223,2.6394500940916057,-24.35183823034332,-51.65506977752942,-74.94161555614889,-96.67501069271972,-120.16413639894837,-143.08893119351123,-173.33568686645486,-219.56262655398086,-253.3249897990842,-217.65918665169644,-103.40191595743478,25.301532450792763,108.01854504993453,139.13876517683278,140.88483218799118,129.58775390528587,112.66715583764723,95.89322752522456,84.15065085965264,79.72242346477255,84.13278425308073,93.55899830897437,99.13443256720844,93.66198836490354,75.53823815621575,50.322535326161514,26.413976216000552,4.508061525790021,-21.738800853106078,-51.02272041946511,-76.96715859499884,-100.7356657942029,-125.40007419047296,-147.86246178123557,-168.76452151972592,-200.41786486325805,-241.3272486118382,-246.6106709386776,-166.2716148701337,-29.159791875048267,80.41821038663365,125.54274222491632,134.59342042337346,138.50095172209188,138.7990043501104,129.09308590723012,113.09913486964342,102.37643318960095,104.2910605754496,114.37054786102561,120.53678410972229,113.70070184936348,95.42531171760199,74.16268457749541,54.350780718233835,32.2562613254516,6.3049614042264785,-19.383415028255797,-43.91178598838587,-67.67605213569698,-89.08900778167235,-111.21934463405007,-136.10728363225252,-156.67332807342632,-173.646394912571,-203.8009964051257,-240.06608715932785,-228.28384683660235,-134.6742669113734,-9.10086180635374,75.56919855338609,107.67279830837441,116.07553168940409,116.78768589398099,111.50959794895127,103.10729942445529,97.25961406582338,98.46051184489532,105.91440962299534,111.81893481389733,111.47356231905509,105.82604030698336,94.85869109537022,77.98231937286242,58.01963674715367,38.34149800924188,17.858168132107636,-4.395771014508433,-27.593454444331613,-50.49216437700272,-73.31116407300551,-98.52049465985026,-123.05803653793986,-139.09742091445193,-149.12186771265723,-168.74281803568837,-206.43325680679644,-233.92466172392972,-200.0304014873267,-95.01044426635019,24.830501301468736,100.8278310222627,126.2463620533907,127.06615255209661,120.91206171392231,110.88929658045124,100.27104683512982,95.24440609915534,98.28844338948058,107.2959946505839,116.11822921833374,115.889422359648,103.2947389089612,83.82363903366591,64.74114660120999,47.591896358506965,27.876852539031656,4.104090552780036,-20.27377988518759,-44.09050362613802,-66.76467654743757,-86.42512981031261,-105.27558091967177,-125.11753724194142,-143.99057188821746,-163.71254552491393,-192.4737870319306,-224.58469161632485,-218.14470753463237,-133.7153876851956,-2.733614296966826,100.77746918943326,144.02724366242714,146.04603439513141,133.7524716560471,118.1905122890075,99.97820317606204,85.47491438962929,85.6749173164227,98.30818245738061,110.2379844456875,113.91791971602214,106.78048596876256,89.78438898836028,67.32243935142662,41.01796589376185,9.68371683129035,-21.74628452543274,-43.49929253280091,-56.28261436367928,-70.88708509015697,-92.83175325432575,-118.39982557312057,-143.49698515520478,-165.51417359447692,-185.47738278921582,-211.73234684083423,-236.16627162043295,-214.07236452403166,-115.70328903377393,15.121149505259117,107.46471113122448,140.67081056953285,141.13011459903922,135.09001638763664,128.81420565885273,119.91572421811894,108.00555665559392,98.92827673673824,99.53372423116198,107.01295516577103,111.46267259066072,105.97213171283698,91.07961957259346,72.07958872934167,53.91550710175856,35.26247495973348,11.209831832585095,-16.526427775884216,-41.37580340238636,-62.95596242337493,-85.76314084475008,-110.96011582386296,-135.71311572164484,-155.38408645038314,-170.0454082129748,-192.11869871513267,-226.25582395357506,-239.08672136043973,-180.8846150999363,-55.196072688392256,68.66711689098493,132.83268930137513,142.8983600933731,136.22862850314613,132.23445261038734,125.20517394761332,110.58417220488803,98.32480755752488,99.15577256485898,110.68991280275054,119.00916604687347,116.11873532562826,107.63293576543812,97.9176582065504,82.17903133313696,57.52056355005553,29.870318941465868,5.399684144340302,-17.976350709735982,-46.40274460416011,-79.02831942248466,-108.10368241276826,-129.47565488849332,-145.38936732035987,-160.03938919584925,-179.3899092146821,-211.50797412543477,-250.22298821685678,-254.12965400566364,-178.77069485233687,-45.07931181345835,73.11061124916321,129.8995621366575,137.4925891289486,128.14119185730794,119.76080393089953,113.24980718597926,64.0,124.0,71.0
99.61584035416381,129.98397385760353,135.70271722717226,139.34938542265618,137.08292445552044,124.67577256232921,108.93707184418841,101.6054995730975,106.83026781233157,117.11467955924599,120.04388513980841,109.26846162747653,89.2187323164304,68.35127552280456,48.42288280684785,25.007229961520956,-1.2960011422914863,-26.51562066278536,-50.93634177835045,-74.09584107332248,-95.15885302582176,-118.31475807681338,-142.83872429288215,-161.34324575135219,-180.3723489432306,-215.38336285459252,-244.38571043816592,-209.004211873232,-97.87603709983073,21.495732702517298,89.12487895349953,111.3707593877408,116.90432994147912,115.83926556208958,109.16791856764497,100.90811491999231,96.76561898753542,100.23506783817756,108.1459235498797,112.36005495034637,110.33818732314386,103.2576111231747,90.5481533735421,72.32015199900462,52.27920757038627,32.601849653156535,11.587348480776999,-11.050679436859106,-34.293361915975474,-56.98540023945223,-80.30206183663756,-106.05207578865785,-128.76341874647946,-142.08834257031288,-153.00905414074174,-178.1677407315652,-217.71763860382387,-232.23139904299373,-175.46984222637062,-58.60535981452003,52.654891636461564,112.4207336079062,127.84409024934895,125.72804522860385,118.36571377159237,107.6092212772366,98.02364748743823,95.32008160832238,100.46480983360289,110.24906318510111,117.32021962543742,113.40003077230662,98.01599665456044,78.0438710547258,59.73192785505374,42.36166735071289,21.306973002436717,-3.0154680401343805,-27.180224551920702,-50.873966048043236,-72.74185891960565,-91.79343605134164,-110.95450096245857,-130.74985243950363,-149.2885216763321,-170.7931225438454,-202.56590156680065,-229.19611545970596,-201.99957935522525,-97.3694677336324,32.71069603076053,119.25674926683575,147.45080845217092,143.14312100830026,129.50671682953532,113.13962394281633,94.85445053821785,83.75824402651538,88.5945531845118,102.33543050599197,112.29335112666166,113.02850209198334,102.70171613150939,83.68847098542507,60.17192683453945,32.46247691000033,0.14162506371806644,-29.291646327040763,-47.70709030770571,-59.8507143148038,-76.53208717868151,-100.08367713633088,-125.81648876437663,-150.2752892457989,-171.2022689359862,-192.1114101278062,-220.38104037969333,-236.93076374791391,-193.00520261817653,-77.75271707153914,47.95121510550114,122.44716136710021,142.65531816881776,139.439480614141,133.3767167524923,126.61795670903308,116.65463103297982,104.69771763624895,98.00313835358902,101.38460704772187,109.04402504095891,111.01021288627338,102.44972871832604,85.73764405629021,66.64488419577465,48.82210210266728,28.97748962347151,3.2710507601463874,-24.195793519896757,-47.754123857573475,-69.26786697108622,-92.86793225091382,-118.35077945860738,-142.10654058132366,-159.80299113127862,-174.96648001546077,-201.391861606701,-234.58079133369168,-230.98244825222727,-149.21645557062863,-15.657622851968558,94.28572517569576,139.72041731614817,141.22685290263703,134.7515382511417,130.98830682144316,121.53854312881694,106.17700664337674,97.01510274259478,101.89708354067142,114.06069540108268,119.26067476772944,113.86665933476094,105.03556784045111,94.28556773137558,75.84221606306578,49.46177738292736,22.39007072420561,-1.174808661601778,-25.50150596642767,-55.69735589083528,-88.12202104061352,-115.05671379882196,-134.45315488544418,-149.555643010362,-164.7800546613786,-187.1149158545849,-223.13850233250088,-257.48659848599306,-241.19429912156386,-143.2051868227282,-6.1629516235311765,96.20973255621725,135.6567428918969,135.363190938305,125.31554714335282,117.9430029363779,110.87531598946283,101.00277378676839,95.91879544214112,101.55966043243912,112.0021338907713,118.31766393331739,115.66021198270947,103.31063619064912,84.05227015615121,61.63432789226586,37.87371808546315,14.158626917249537,-8.090228470676115,-30.84833439322806,-57.82358110593239,-87.82581562633808,-113.61343893865003,-132.9797852486504,-152.84549302931416,-175.681686187967,-201.89360106186422,-232.15270149935088,-238.972673788148,-172.65562385129212,-35.000745981406446,98.4368837955479,164.1745423122259,168.71017874942177,151.82923502332915,135.36106758457254,117.86877123917816,97.00621924710927,84.30081228084718,90.14814130499677,105.7382271419451,116.31378909479878,115.9118331725868,103.19249716867246,80.02352394023931,49.98520658501253,15.832627734796244,-18.083185299519787,-46.784805808725814,-71.53099228421092,-98.22861482186575,-125.5536440905997,-147.25753321052355,-165.44045843212942,-192.6484247367215,-231.87156453539802,-245.57087230166155,-178.6346253231244,-40.91914342655327,88.27909210704354,152.38662819606927,159.28346530895703,144.4098573625287,129.67707352773616,114.05511680289501,95.33354085725803,82.89848793728461,83.0280017180955,89.08723645782699,64.0,124.0,71.0
128.11717477957166,124.02076303554726,115.50189518548282,104.41470825813367,96.39315800992995,96.07234056046512,103.05699314205613,112.99220769874289,117.5410391111614,109.9019316369902,92.35799999184796,72.45641694381449,54.83595090202326,36.776623073660744,14.43848757399777,-10.083700227291676,-34.06477622805083,-57.507144180877376,-78.44263775760487,-97.19534564027164,-116.71339128008243,-136.22673258026919,-154.78911699166414,-178.87898865712475,-212.52435629065087,-229.16045329331402,-178.76877468489525,-58.786363508685554,64.0740121955955,132.5847898663021,148.21559277253692,139.5849720959288,125.07815437023376,107.84761507115698,90.32292497291681,83.50620706144569,92.29536772373203,105.97443556669748,113.57204856239262,111.18000333702017,97.88322397872223,77.24982229142887,52.68629857609627,23.45103141049703,-9.172343168033777,-35.809768509993226,-51.34419069991764,-63.872388305601625,-82.80227750370669,-107.4946981206574,-133.1291623894522,-156.72190169809997,-176.8235161878314,-199.54906979704532,-228.332113649381,-232.37429250182296,-165.39482222343202,-38.94946570466168,76.03701267806095,132.67134277739703,142.79176269998155,137.6488108054184,131.62212408233515,124.13096502576079,113.17489864681559,101.84322972075722,98.00625602056812,103.61893934585413,110.55998040564106,109.6276831498686,98.22526450856982,80.20624967153877,61.37674148265616,43.565200363577446,22.134935898447353,-4.828471233444698,-31.471813722482473,-53.94749226071004,-75.79212642879219,-100.14900572331075,-125.6082065694538,-147.94714102586863,-163.90298846319612,-180.94896256988667,-211.54375440715643,-239.8616954028027,-215.82104256787895,-112.84032306389112,21.619811532604274,114.05017510675832,142.85678751250342,139.0990218463282,133.6438810786353,129.1867136098077,117.27898315797901,102.32382696245321,96.98608259333318,105.30960052202832,116.76126590575836,118.53783541392269,111.38419840320773,102.34168150160058,89.9597012713814,68.78314251686535,41.37020910717144,15.270642983797792,-7.8032912355398425,-33.59132118067726,-65.208382529762,-96.70783498587838,-121.34402841660804,-139.07258296044566,-153.7131198943273,-170.09586369273364,-196.12019266298918,-234.91787836283265,-260.42771179110395,-220.8469532748243,-104.15033789923949,29.486667543349295,113.67758769133066,138.08546496896676,132.55398286220316,122.81538202887386,116.1591133694775,108.16507292573587,98.56605691760691,96.51906581945369,104.52455325798896,114.55194049835197,118.57705316774614,113.02085330042553,98.27364719424284,77.7762216423686,54.86759402680256,30.924245264425597,7.585008601076193,-14.430663785685624,-38.113076414301815,-66.4412288450859,-96.0294807611448,-119.64147818887298,-138.37826786382,-159.21919579175815,-182.72073905375564,-210.6316988140884,-238.7818288937375,-228.9248652608169,-137.78555226482297,7.920884827736616,125.39166793366238,170.0636610457945,164.49592575587553,146.8059224277475,130.71924679215968,111.93434569664728,91.76400415671617,84.10672986423171,94.41105532534057,109.73620342175985,117.42721028396298,113.49097437407474,97.4076596895737,71.91980030319766,40.40366223151297,5.749976711277338,-27.02747907225445,-54.069326399930226,-78.8889302729063,-106.36812859919185,-132.55113246540378,-152.4494439725093,-171.75899505040402,-203.47787361432268,-241.2057433292894,-235.93680630669414,-143.2498461828214,1.0005192359052932,114.20424686575387,158.7646584130927,155.76760677318333,139.8602019277206,125.57009104552475,108.710551839162,90.58284868788013,81.73429557755992,84.63777616719173,90.58793911704943,92.13226896483103,83.70308158697145,60.8821405104554,28.23850409925722,-5.521403016997777,-37.06619111147181,-65.67515055420142,-89.30866665245665,-109.42269530762866,-132.55961026278248,-158.85578589175643,-187.1199173156969,-219.7562202729062,-235.3748488492702,-187.2372630246255,-69.15688595678503,57.60888004481675,133.93476954314795,154.59688104568332,147.20576530844482,137.65220532343767,130.039201973241,114.38943252095437,94.97916760948759,87.5318340549848,93.73440226977498,100.56376783520359,97.85727248150427,82.22099998611016,55.89221732645819,26.626639545178286,0.7435562813549603,-22.29511231022621,-45.93649469945092,-71.78876352965783,-100.23417255866207,-128.94985639683844,-154.62147784015406,-182.5127292758065,-214.76291386096506,-219.69288886493766,-155.58266452088145,-39.74173184640306,61.661741681756936,109.78400402758473,118.86406548568914,118.04629362500299,116.1841983536073,108.99282678953743,98.08399005649524,90.81795779977925,89.46733759584608,90.08220594509757,88.32643789120698,81.22506381259916,67.27113010688983,48.11888850961999,26.48674741192507,2.221349773041957,-24.201310309815725,-49.789191327871826,-74.95421127738665,64.0,124.0,71.0
129.74385792867315,121.32075092663499,109.61862487279606,99.65999779327362,98.87793088987188,105.9673895967377,111.36820010630116,107.32696756976594,93.43631813918005,74.63036989654445,56.252594152794956,37.98397813338146,14.76139712099772,-12.881739143667813,-38.336586439013765,-60.09794613103056,-82.5608713196051,-107.53917706757935,-132.6082967578653,-153.17585542103097,-168.0230406960488,-188.2696146101649,-221.79344226343136,-240.62850408350442,-193.47781345492456,-73.64048873095525,54.9660415080983,128.11671871178245,143.30772181265607,137.05494265820147,132.69705991161604,126.64500452286065,112.70487973755665,99.33871169505346,98.20868307782479,109.00543718030141,118.538943764891,117.02104107559028,108.82132077543126,99.40496745491482,84.82779048483908,61.16500473733591,33.43555965489216,8.463145067149153,-14.676321679515576,-42.24495546641352,-74.71221504804573,-104.66492797861895,-127.03122841962251,-143.43643350947897,-157.9871631504465,-176.2246746001718,-206.39668745531978,-245.83269964943156,-257.651000381484,-193.48167552625407,-63.655886983431124,60.56380640646261,125.87444509860727,138.0831317797959,129.5219158212298,120.65843702842582,114.22991266370681,105.22877958409488,96.82310270378322,98.0402943848855,107.64803871704632,116.56867322907502,118.01188813058474,109.59183520325524,92.75798405137495,71.31783997471332,48.00752748130719,24.028649566109433,1.1530646167661205,-20.90724513642801,-45.814121506446526,-75.20273738455958,-103.66477181833491,-125.2067295503672,-144.02828462403926,-165.7904496237433,-190.12633885468293,-219.67153497886292,-242.33820245315576,-211.5404963582116,-97.90798860811637,48.15764267479536,145.7563279150976,171.68272016086541,159.47440511828106,142.04406161329192,125.80098897579933,105.76949178813626,87.63419887050854,85.56569670969544,99.07333124319808,113.02598545212075,117.56035548978362,110.02827443507239,90.83527388805612,63.32273064576146,30.539201185802998,-4.174748161800553,-35.43135861892163,-61.15088258828984,-86.55110206985245,-114.40641885827293,-138.9427852623302,-157.5230369051739,-179.22780330653424,-215.15618425977104,-246.97549710088913,-218.3556868115223,-103.2002597878025,39.940866406508256,133.97305345195406,161.1058102871469,151.3327044703871,135.5937854585914,121.18627449925282,103.17777332362083,86.67587140414847,81.64388800288496,86.47280599141502,91.7075972704576,91.00963026803144,78.58823753670069,52.036734541621364,18.32613702619004,-14.879498631292151,-45.70469825655197,-73.09656341974011,-95.199876968634,-115.6054151124157,-140.01113343396952,-166.65290738573938,-196.29262735293568,-227.98431734029114,-229.73467561501062,-158.5167127214738,-30.00263203352945,86.11543333163617,144.66511261771387,153.94225049405122,143.9808720208116,135.68870089053948,126.59083603133178,108.45222960444777,91.10563106624475,88.37709032557838,96.2564488427982,101.00077240094633,94.69918143490855,75.43461242187222,47.35481854944687,18.695422062649293,-6.045431929551004,-28.948504891444063,-53.15002036322034,-79.76015765083366,-108.71028161864572,-136.6650974589768,-162.0016909809338,-191.99569695445487,-221.27512765718268,-209.02692840230736,-124.77427428907595,-6.173330002266703,81.238173577201,114.95672940490634,118.77879273759851,117.76834169050268,114.77985906715814,105.9103318637625,95.34376177600284,89.93222260266313,89.66119766639616,89.97282099019169,86.92744423127482,77.89631366395825,62.11950702509773,42.075310980173946,19.79177173794483,-5.310380451855989,-31.78248311486906,-56.93288173026117,-82.68595310828746,-110.47869076445667,-135.03547857316389,-157.69359966286095,-188.69401161546028,-218.94552241027952,-209.4832557814334,-134.0806106256757,-25.89045368294748,56.92907845570826,94.38155590003304,103.58727202811129,104.16327600177458,102.75587313268908,98.98923842746137,92.82208065000582,87.32301181874769,87.76289788953247,94.22323875666149,97.9390510487768,91.37174308432783,77.7145499947791,62.92656706126417,44.62063075155805,20.368949175791254,-3.5327440158954793,-23.084039529647566,-43.79096472542892,-69.06292242544858,-94.23529121779063,-115.6797959962302,-137.15980702656336,-168.02552724265465,-205.7316393049349,-214.9181622871495,-156.69665864146944,-50.61306010767902,40.70179018213029,87.08502029926562,104.98158464738863,113.48354575832309,114.51093020085376,104.48465176950548,87.0449467424732,75.72440714296799,80.03471905299304,92.5853547821569,99.16563307206225,94.88120300225765,83.26755720883965,65.00611476969422,40.03203699609767,15.69201489548294,-3.5944248826363103,-22.540106231044717,-44.30481399048715,-66.3645391035012,-88.98255194879984,-114.10870530870582,-137.232155357275,-157.51685570556035,-181.43715447268133,-193.01778293669454,64.0,124.0,71.0
112.01387786571989,102.28473531772352,95.97662231272027,100.3168147615257,110.68823990418682,117.93355957800372,116.59794011010926,105.44224165982524,86.8677884176909,64.7179007805954,41.07979518182689,17.240847576157453,-5.181845373722784,-27.634057585156864,-53.94609020752469,-83.90004919997891,-110.63037582087014,-130.53584938089597,-149.9928926328445,-172.5202022687213,-198.04560888087002,-228.4420944876797,-241.35123770642787,-186.59197871680445,-55.0905773180943,83.87349048306291,159.72274415467257,170.16485994468107,154.2237290142714,137.46009259135428,120.47425616864471,99.67947276135216,84.97053192410702,88.44263787252191,103.70957624748723,115.48308388251455,116.67293844746288,105.56675393651071,83.57593998134166,54.2856044300244,20.49231747682382,-13.790868911294995,-43.308662381245874,-68.22331965532007,-94.49751072056247,-122.14007691223105,-144.74878185812022,-162.8179775660056,-188.0832627061408,-226.82531001102228,-247.50844385929727,-192.85772579999752,-60.69455774714124,74.29634489870577,147.83125651635473,160.383179707686,146.58573332100957,131.53074424435357,116.40223014676029,97.72920611950642,83.82496837715615,82.43584015655127,88.29980205615036,92.33819384566122,88.89395621923369,72.21267187689743,42.59347455135685,8.508294478684938,-24.040941349253217,-54.070443671931734,-80.03287006658343,-100.92065640476889,-122.20201724595796,-147.61865879520758,-174.66912474901042,-205.88888020623912,-233.85514016790003,-217.5375652034101,-124.58400192211558,7.893312287532178,109.41233867392859,151.16006437645288,151.74532513430822,141.08113745324488,133.70535556016858,122.22360133973308,102.54924672306737,88.60363930457876,90.17602848848426,98.45602811203287,100.4855940756263,90.41609877245013,67.88000098403285,38.796833828676256,11.144366089899268,-12.678105468430957,-35.730027027453644,-60.563485766061476,-87.95704915707448,-117.101517237938,-144.07092066433145,-169.83740881986108,-201.72577671592776,-224.28412521483938,-191.78843341692723,-90.89699178774114,24.439691158990417,95.98843192958176,117.65437549549355,118.4748611905391,117.36160004189405,112.81113220931358,102.66492938292134,93.09390105977685,89.50560372077331,89.89405977882753,89.57453229456021,85.02064062253152,73.97569320265166,56.61586638981736,35.8720680638569,12.84041824185292,-12.97198117520203,-39.2101857926032,-64.12393497203576,-90.65945328369153,-118.1346420525148,-141.32022388602402,-165.55158587894667,-198.82786129672726,-222.27404003058842,-194.21566648222762,-103.40148705107687,2.5317769117931217,72.04294727055228,98.87784595241538,104.10180491237227,103.93773556050166,101.94735057695824,97.39506985441861,90.92993466675351,86.6597683768484,89.2666520343461,96.06880917160949,97.16347781854408,87.79978988382827,73.49300556436181,58.254103102442656,38.07970060401353,13.064706800693685,-9.520283567149125,-28.618409678715544,-50.73551972953548,-76.61133025948742,-100.80700025590193,-121.50783857323158,-144.75209620832138,-179.11828488148248,-213.5631973167044,-205.60025024199882,-128.34201081030463,-20.25493830114506,58.547281226554496,94.02426902419127,108.04261946989301,114.74249839599153,112.79798691828896,99.74691573166567,82.46379915849693,75.3699358135474,83.48779706902822,95.56919984893837,98.94312810866752,92.13005814058084,78.77283444303544,58.28590737128361,32.534959266314566,9.700936431618207,-8.832312170462561,-28.591619050265987,-50.767157210901026,-72.67796647695086,-96.07020379964091,-121.25505963279751,-143.09011948295512,-164.00580441719296,-187.79696478423372,-187.7556526440228,-124.97305898669727,-16.47165758077363,70.92209788076953,102.23751919707718,100.4287285995594,94.56061045105666,89.40159602299184,80.72856606114244,71.32371872816167,69.56441183199622,77.77266910351015,86.9207764194569,86.6867828290737,76.14767674315614,59.32032596877994,39.334948495300424,19.242733138767736,1.3358025637302917,-17.29674050007318,-39.36295978203554,-62.40439839015376,-82.50968269960251,-98.7752319933406,-115.15919974407673,-134.05866168405424,-158.6234210958551,-188.7402181140956,-195.5540087127895,-139.83647095579795,-35.669989844391594,55.1308224291183,97.47104376827507,105.70324526243196,105.60400053896522,104.81649362563549,100.13185307033017,92.49869001323573,88.58592848447812,91.8634586287501,97.6363342698935,99.14049149580897,92.5950751798517,79.38469386852853,63.735727870127526,46.18069407389943,24.31442412738962,-0.02929808705533138,-22.337023955328387,-40.23769663405184,-54.93017279684028,-71.28137064762969,-92.36377031763918,-114.18203298581274,-131.68679382263946,-150.78872767016082,-181.476160778874,-205.9753087823658,-175.5872016261172,-74.99390558306634,37.96319854926992,100.99344993341941,115.21662414205437,64.0,124.0,71.0
89.93658699261285,92.36299968431022,85.62813911807339,64.68794362755212,32.80502098827971,-1.139518285616413,-33.00438860003819,-62.10321475071225,-86.48225421324128,-106.68940139937341,-129.2102297376294,-155.29713098566407,-183.07382620732946,-215.5065217436212,-236.01066492502747,-198.3759051788523,-87.10123658103763,42.85102308605441,127.38342521300167,154.16584856068445,148.7144532640608,138.6386975986,131.34539326177978,117.0112910107265,97.16350271212929,87.55045126356521,92.55314217065231,100.07088179429905,98.93673331986224,85.04253385432087,59.762614017497555,30.40236988250254,3.9539629671645393,-19.255615654647347,-42.674519586925406,-68.19343871356159,-96.33382207470751,-125.27957348744363,-151.29360008003457,-178.34457774579622,-210.95913903957683,-222.46655577965205,-168.28755687232504,-55.80834279177778,50.98762951940299,106.32291302058573,118.71895064070105,118.17095726014506,116.6550046816177,110.30345613273298,99.47603890807473,91.40512471881354,89.42394021656978,90.05745318338872,88.81563993509621,82.5578103953576,69.50184026906093,50.847776474030155,29.494807636161593,5.627819097494281,-20.66822810532338,-46.47914221266647,-71.4810004567544,-98.76536910579625,-125.33738093298157,-147.646329972439,-174.37239965984776,-208.34102454516932,-221.09308671611132,-173.2283219280253,-71.45041071319123,27.54606287528498,83.41685784941028,101.6264443591454,104.26348075319478,103.57899179180133,100.91565065606726,95.61454253207823,89.21029099103265,86.6256000811044,91.18206124417657,97.39688316934118,95.42972739406915,83.8289495219269,69.27082612969845,53.13076394843908,31.06677153456519,6.019460853264126,-15.14903825609454,-34.46179963210569,-58.041377172016276,-83.98919365681914,-107.03227481563204,-127.5122187446606,-153.397777841448,-190.48721208559454,-217.7720573690958,-189.9637564215787,-97.25218345187291,7.2689369609459975,72.51723601680733,99.27039944395914,110.60694561209785,115.27994040068222,110.09153427072488,94.58636789326133,78.80576442601935,76.41349677945976,87.27715691093309,97.73403576840022,97.83260132808745,88.8808638110833,73.66665591635687,51.05734256278218,25.34745000832775,4.124064241192533,-14.214629101048354,-34.881490504719615,-57.15698221782975,-79.12590516885555,-103.3685104975032,-128.0533326144819,-148.82124813906026,-170.98405656210713,-192.3169039391909,-176.80922848696653,-95.67601778437009,13.756626089076725,85.50032027617769,103.4414367810343,98.51578710237922,93.21881471815877,87.32083692924719,77.73142577549821,69.71674972595089,71.11921274171901,80.89950929842826,88.0433885967278,84.54074359040266,71.76001491490555,53.762135595363,33.372480102471286,13.876001987721457,-3.7666270841932277,-23.342501989069483,-46.10778587549631,-68.65236781983329,-87.4898225232059,-103.30765573737717,-120.3236098184286,-140.31001105709345,-167.32659539089207,-195.18742102785137,-186.6898258442796,-112.28197979666471,-5.447999409409649,72.4203790074058,102.03055429747704,105.79177869272473,105.55797638177407,103.96746032421817,97.99210157131574,90.6772231009794,88.87460081978519,93.60162282961932,98.75383213500513,98.12308183761371,89.2737384866396,74.97454457078334,58.98099765136957,40.33675125756128,17.329598539725257,-6.846864372400433,-27.988943388902715,-44.64423732809435,-59.24474618248324,-76.92336554704946,-98.91321159800894,-119.69400728112876,-136.4575262535846,-158.43291562501054,-191.09415598648022,-204.86852013666672,-152.35235304919283,-40.03374941841695,62.55056394322571,108.60521932043142,115.55677796759875,117.15991063333118,117.66615255048738,107.42330257740089,94.37755703158989,89.71940405126662,91.14639255472086,94.56469703553032,97.46921245430904,93.32968695630184,79.00401806783736,59.870080760400036,40.96707004618139,21.212103749724672,-1.2639121030882192,-23.968972414544705,-43.68583242630865,-62.52144565807779,-83.68539107989953,-106.42715784465913,-128.31792923145667,-145.18819833007146,-158.32626551147678,-179.40267375515575,-209.26407231220622,-212.68065204330506,-149.39800969652737,-38.39764957867259,58.10762953719616,105.49676009334337,115.176134283088,112.64550971469086,109.46462741675869,101.05942557324445,88.83257412476283,84.67885915978083,91.28685219503424,99.05522513486217,101.60002268432882,98.80431653759265,91.6610844270211,80.74404940523256,63.420006330259184,41.12780466067297,21.242927421920207,4.092687620536457,-16.054141399899947,-38.89557159960558,-58.71611785154707,-76.2933489535156,-98.25207821919672,-122.64224997617076,-142.13108620910302,-162.7847670908192,-194.13800819182876,-211.67171401831277,-166.53745936585884,-54.67654313979217,62.971168053577834,129.96624277506913,143.753023013102,132.83212553641152,117.32048616674345,64.0,124.0,71.0
-79.08775293320255,-106.82969202170426,-132.0658683980992,-154.36778890396454,-184.0448960191337,-216.2006125456465,-214.5022188372758,-147.3331702686364,-39.8902970700366,48.60565512042177,91.55494409438504,103.16282845366145,104.22641762427187,103.05864073879158,99.65068803808187,93.71327630144197,87.81539130050005,87.25650377342828,93.27494426864337,97.97314151280202,92.82381977962167,79.66025911898184,64.97192444787436,47.44437787278498,23.767615070124236,-0.6237131989989412,-20.585067272257216,-40.73851354386947,-65.56572238364892,-91.08181301234835,-112.98848155317486,-133.95980277865974,-163.16969370769968,-201.26609638330075,-217.1274000179432,-168.39167955194011,-65.2147379295396,31.09013919256319,83.13494589227005,103.36749354561519,112.69646009901497,114.96879391120235,106.44611868848054,89.3625562862964,76.37601392778353,78.66816239895266,90.99700820205285,98.94296725863268,95.96219823722961,85.15415627066746,67.8942939544773,43.531245476306644,18.62052003566528,-1.1869044011544876,-19.84604670073492,-41.317886747449194,-63.46765957493131,-85.80751951878345,-110.73731917095178,-134.42922254548174,-154.6915856491504,-178.1911853940205,-193.74764536150914,-159.84379593882358,-63.78844800508775,40.421088501767066,95.23220081681603,102.84800752364002,96.74817822320688,91.82957024195116,84.86412899887208,74.84315479223355,68.96202654996033,73.45564854644937,83.7774932009986,88.20200641421427,81.60849768318158,66.95209294648231,47.99498221972204,27.49651724324055,8.710031997295511,-9.05475622430698,-29.69252445565977,-52.83136372579692,-74.5638582443208,-92.18057640748827,-107.98022042191246,-125.69944701923878,-147.19001498549432,-176.36908703261676,-198.58320928191392,-171.80885179375977,-81.80486101250035,21.997803005953575,85.38043382072861,104.46370846642976,105.70567205590125,105.4253248472662,102.70220822944619,95.7068084363915,89.36348945876624,89.763518519634,95.36851514325573,99.36630318338632,96.37894070478448,85.48843759682971,70.46463701321558,54.01258955150786,34.083790533921295,10.24344241586264,-13.390455416638227,-33.24163096836916,-48.854481406604,-63.844144716313416,-82.98251447756671,-105.34646101338804,-124.7686905650863,-141.66221494833738,-167.24087104076176,-199.3213780203913,-197.8190500100128,-123.60338671914622,-6.093814849934281,81.9116032809382,112.85914162637987,115.7059852289317,117.97903029312447,115.8487823638993,103.22936247247854,92.05745205715026,89.78007816835645,91.99225620216095,95.6788370452382,97.30806190008275,90.11747104096318,73.64222311970927,54.332029773466516,35.48526077694581,14.976808594114546,-8.002428446687585,-29.99172185550447,-49.01556234029662,-68.36634919006296,-90.18208987829512,-112.99517300960936,-133.8723768366727,-148.97696909599037,-163.05652488354485,-187.94671031093375,-215.29325259168354,-201.85090874695638,-119.6528335161935,-6.502293579610536,77.01174361722316,110.98532486677539,114.78587691540214,111.82836333053935,107.82802311629231,97.43636852183033,86.363271061245,85.7907693521142,93.8735430118563,100.3812430851312,101.31071337599624,97.12338919387986,88.9543969002634,76.52000327697253,57.17176286464245,34.89931397572063,16.261759021508347,-1.2509037988678593,-22.620778520592744,-45.11003868513774,-63.72169838107416,-82.01844058067377,-105.44119220824287,-128.87228638835057,-147.29706265148747,-170.93944864019238,-202.8131083589057,-206.70718474021942,-139.2209305476287,-17.964836658047716,88.6863909383778,138.3337704736126,141.8662156788228,128.45855475484896,112.59766225203121,94.60840671059769,77.32239245468719,70.15784967982316,78.16325396687584,95.02787409312211,107.01351454039066,103.09942900821433,84.53419914830087,61.86897171681743,41.628746551266865,20.221415307892386,-6.402280952445391,-32.23856043326587,-51.78558387485019,-71.410150848131,-97.07398716051128,-122.90894005346857,-141.60241227926412,-157.02442876148768,-180.7186843972497,-217.6939563610375,-246.04015013898174,-214.16987237548616,-101.47495711823036,34.98850325970003,123.23736476527773,149.15854847864378,145.1604269952322,138.5718749949694,128.51242859432034,107.3667934676219,86.66863806371451,83.70462405021452,95.64239947840407,105.8413257057439,104.66772515453599,92.80976166054712,73.49209227272257,50.55622501512667,27.30489169421923,4.421282160758834,-18.87486588461868,-42.80559695533587,-66.59594621421243,-91.39228532073012,-116.31784482948974,-135.83207937891075,-152.2180849486765,-180.0561931437617,-218.82935256882004,-227.92520824332126,-161.9858255791554,-38.75443963933566,73.77751275036454,134.18087886392277,149.02394554313074,141.7417883848374,127.66544110275227,113.33164594767445,101.06804663526135,90.97617963560609,86.92462302992983,64.0,124.0,71.0
-190.84693282045433,-137.14196727758767,-31.19928211236343,62.46878187309041,100.81158993069194,101.29066811263577,95.20752685313667,90.23791235126103,82.08505787168629,72.3076390649832,69.15294465517036,76.34047726744022,86.10270259356511,87.38210198759731,78.0043286609186,61.79722480339222,42.085084385325615,21.795741394648925,3.658651209725683,-14.62132059927568,-36.27580758952709,-59.43063184083796,-80.09239836569894,-96.70561022865644,-112.84648755206112,-131.33944841859858,-154.83398249275234,-185.08678777716526,-197.69819003922927,-151.12379579406303,-50.159427893701306,45.66160708370757,94.43621272020344,105.51044347790696,105.6258800108225,105.07985809252389,101.02654503839992,93.46304032459194,88.67617899018549,91.1236466373203,96.98591803388676,99.36787689230057,93.93718696735583,81.36565382239591,65.88012915641066,48.737587703986144,27.465618323934674,3.1837419573562533,-19.599201012412376,-38.1102167028033,-53.00020142091243,-68.83268157714146,-89.35873879796137,-111.48684026970396,-129.53233229898507,-147.66645234688556,-176.9035764235606,-204.78479160548017,-184.15506975552444,-90.88504863824923,24.993922009109532,96.08112617230931,114.81047608692232,116.07531482985374,118.43206060090567,112.98358482266491,99.21224048141295,90.58081866085185,90.18039742761803,92.96623622871108,96.65960567489056,96.3577303108975,86.07410572938281,68.07327640909773,48.87734494345292,29.851691971675546,8.498501385423609,-14.648005553656445,-35.719215540052865,-54.38720648678459,-74.44655052075288,-96.7619964521089,-119.42521787403095,-138.8782330644448,-152.60603468496473,-168.82045899517982,-196.99606785517304,-217.831890090037,-184.74342166464365,-87.16545922678502,22.582568329235485,91.50347807598831,113.94640394960055,113.96749779343759,111.02061951870118,105.54665954780656,93.70969682892171,84.88208439310077,87.69170936859477,96.26263027908787,101.21842231436423,100.59044346464938,95.11475933295081,85.92754800847241,71.65542786784201,50.653236640091194,29.05691063197422,11.3920398551776,-6.98262137022418,-29.303690526356334,-50.92475475275704,-68.67932871712492,-88.26768353690254,-112.6393104696227,-134.543606111891,-152.92530453548818,-180.1028468568765,-209.24964365349075,-195.3020056797933,-107.0157747704073,17.295303667016583,109.2414789313269,142.74375596343248,138.69455223222104,123.98540430844004,107.6659210336382,89.17896456713136,73.802276581804,70.97346630864624,82.66488591202966,99.63408006585155,107.73541004253946,98.84406809252297,77.93362731530917,55.761415804868186,35.878601983960706,12.99089464287079,-14.378779581483249,-38.45360094526814,-56.997954621772685,-78.2560683181231,-104.97319504785891,-129.12164568664997,-145.92718313552965,-162.5288156736635,-190.29409399466283,-228.7437070579308,-245.28121613479746,-188.71677748994892,-60.69348631622418,67.39007717588701,136.13092614470645,149.3804526111557,143.07214032977672,136.55502533604823,123.45380790255027,100.39100178040589,83.6400384222429,86.30703713813978,99.4412515812688,106.77080521883934,102.18913438409379,87.8555926713537,67.03719743764691,43.808511961044914,20.661779544010184,-2.211610279642175,-25.776065672419602,-49.677002325692435,-73.59453840640552,-98.78203425532962,-122.71539596297532,-140.35223931744926,-158.47805016970898,-191.16871269387727,-227.07374795130295,-217.37413849723436,-129.53345119412086,-2.288779591847085,97.01203972025051,142.1129874457315,148.28490143797035,137.97810741852783,123.37813209314787,109.56823857755661,97.87856184383342,88.87741677567604,87.75676738843879,96.60366252212057,105.13370926799168,101.75732485636347,86.14700579974067,63.66280190056422,37.05781654686241,11.008148893899406,-8.947088775665508,-27.239702785137425,-52.34008506164616,-81.73488104401879,-106.83774742462424,-127.04355739377176,-145.99275033820072,-164.43890250480314,-189.3373694838708,-225.35748833597196,-242.68327795215936,-191.69701404829198,-71.95137184851109,53.73662919623682,129.1560326877462,150.24445504653394,144.63533589202694,133.64731439966735,121.61380097433599,108.183562165638,97.5056874024225,95.8223369230713,102.52691601650022,109.20024739755658,108.59863390915669,99.59214602224006,83.97609846206875,63.81748387775539,41.3693452991495,16.134376167783167,-10.30365844753857,-34.42474822246521,-56.641720130483435,-79.75379032251026,-104.57546196532606,-128.80589244765622,-150.07039652616393,-168.51367197612092,-189.47520771382497,-221.33111641087342,-248.3947183106733,-220.99412616190125,-116.55554911139573,15.679186635028389,109.41362691017414,145.14134569167229,145.64308346502398,137.66272763047283,128.40849427298474,115.291634804978,103.64020033173408,102.37013061541624,109.47590285254039,116.52655572964456,118.37761933460116,64.0,124.0,71.0
115.45997817581622,116.76848049533541,118.1355047359319,109.298719025773,95.73170103982812,89.84952927378446,90.80343909121126,94.0457464876601,97.32506992531663,94.50234112765106,81.3551357484847,62.45051981957057,43.466379285584445,23.9975235739077,1.840291765605921,-21.090126472857833,-41.20852724212252,-59.90658400227561,-80.73173018100874,-103.37851086522608,-125.59705242443826,-143.31521879870022,-156.40990737095055,-175.789284117559,-205.68867706747986,-215.60167037102113,-161.74072936868998,-53.68635916150136,47.88399151428051,101.92017829294635,115.08367136575609,113.05054289493071,110.0389818864195,102.60542048032713,90.24345172829061,84.49399255343056,90.0955159457828,98.2791585681579,101.5844499208954,99.45784310264686,92.81424158756738,82.4944026356425,66.15096030737561,44.09927858729875,23.62527788319842,6.446272021185931,-13.111172752413804,-35.9183929113414,-56.33583419053706,-73.81149136141325,-95.01149535905438,-119.58581737923174,-139.78486699958248,-159.419364981046,-189.7560595866525,-212.01575779149988,-177.13132899018134,-71.57894135843101,49.50060973098205,124.57703630980792,144.00436691050206,134.778500566562,119.44590900130127,102.49500536561276,83.97360354128567,71.38658990567198,73.082305779593,87.64158506719548,103.46048062299215,106.93915240155508,93.54240168986436,71.28462328933364,49.918485028717775,29.84689746223812,5.299616761086832,-22.031700558452762,-44.11380258780037,-62.4864859272836,-85.64858440374866,-112.62937559396232,-134.62780322312912,-150.20448356661737,-169.03169569847466,-200.9882249805422,-238.16475505402985,-238.02541894747597,-156.73101340586214,-20.031766175916044,94.34688692539213,144.17721342204612,148.11706300087675,141.17011481754986,133.9569936158062,117.39005067305297,93.96912092095128,82.41363259320859,89.82863547622654,102.66767424737449,106.64934167789706,98.90190341967931,82.3470563303691,60.39652662590314,37.08002529491134,14.054822818061002,-8.917929775229808,-32.705817633059425,-56.5299097706815,-80.72710185431664,-106.105544782611,-128.4896399267909,-144.83481316049802,-166.1295885674505,-202.863766056596,-231.42169787471994,-199.72375317364038,-93.58553527735445,31.4962144515505,115.43089303750675,146.77088334904158,146.25675066870997,133.89736314006964,119.1788904687126,105.99487802924716,94.86684863410697,87.45175089246356,89.52641400745408,99.75492586857351,105.62945230053377,98.26011161761669,80.18228019787502,56.29547905926967,29.143006990041677,4.572914169982332,-13.943426593512424,-33.63382863973826,-60.811913578862004,-89.65933572721731,-112.9799598442784,-132.5909169339596,-151.27915778994839,-170.43430068229813,-199.07416016404687,-234.62179938388886,-236.49058285541435,-162.14049938951885,-32.95857396017916,81.88377237814106,139.83159600722894,150.06933261513916,141.5741286156185,130.32969769756693,117.79949484355899,104.51259341998666,95.91790046005812,97.19197887783568,104.87558454682039,109.94034172034617,106.78185649995103,95.68954525934647,78.48858408939387,57.542979111877756,34.394428393079046,8.43236400969277,-17.585695489635103,-40.91532866922658,-63.13091121060268,-86.79984382219054,-111.78306860617262,-135.29866500031233,-155.59719397607046,-173.8727100934109,-197.4725780471472,-231.4645574807573,-248.32357831679144,-197.78884017396413,-77.81771348928952,48.68153233816198,125.18091488658298,147.46923289878583,143.48931442819176,135.24602896577846,125.00657280327661,111.28531078169192,102.04182589999353,103.93243010140029,111.84102599540662,117.70760419330077,117.66249254729922,110.18552871943326,94.0972422986407,71.5866650090141,46.976303665094306,20.482085882627736,-7.724727893702534,-32.66359255789426,-52.03475706840651,-71.68934401236955,-97.78978062145224,-126.86021258280586,-149.4870520072944,-165.44475878937953,-190.39525493693878,-229.2286583668112,-244.55278192050696,-182.99993028560095,-49.691372852265395,82.60848654712927,155.67971183442836,170.85698769312378,157.65267649493188,135.8839453631315,111.48543923151968,89.71896090940763,78.43815774997438,80.69259699402113,91.71636260150265,103.1407967575029,105.70061402117958,94.53030867791053,72.38670460662175,43.75163203871245,12.949891228917915,-15.245942133108263,-39.12727671025523,-61.66005089832512,-86.65735405272002,-113.6649676634274,-140.75871775057252,-166.54014614358022,-188.86910096896324,-213.56032671514495,-243.92567451445368,-244.22993033811264,-164.49627432765786,-23.785371711726768,101.19024355524823,163.93998156540547,174.8312867653272,165.32750746131893,149.8997997327238,125.32131915947565,97.89744912332326,85.83859090279904,94.60886507898525,109.87683807072199,113.85115208517371,104.61464258861072,90.41932416072314,69.09515306346438,37.423171135338514,64.0,124.0,71.0
114.79734666221498,97.12289452565281,79.25678736198604,70.2365948343634,76.33699657908494,92.73943651604259,106.19281184864002,104.63759703208851,87.49113983846607,64.7824452238617,44.23747803841742,23.37770502493224,-2.686010206274437,-29.16065340562685,-49.403040349583236,-68.45888889233665,-93.42396336457948,-119.80846248861243,-139.5125950316243,-154.74981861051265,-176.73356000404098,-212.38726037846487,-244.54277943317672,-223.44306164133366,-119.70892105014818,18.459595727945405,115.45865764772347,148.29834502467628,146.14627904312698,139.4012485205921,130.47358697764548,110.61158951537192,88.63723678596621,82.93569315119913,93.79419391479168,105.06315670535014,105.51328914174476,94.88665539239634,76.37341185242515,53.668290436701675,30.38115516040661,7.463988334139203,-15.713626065764275,-39.625781847576384,-63.40474639526142,-88.00057729157595,-113.18724062199134,-133.63726528046377,-149.71043569183615,-175.32275662960924,-214.1310585558416,-230.47018686159473,-175.29018318338186,-56.05663677357286,61.46021827845811,129.2455967413503,148.80199066645505,143.31914821318603,129.64774495254085,115.13357259954901,102.58836846607142,92.1178223151072,86.87239283008806,92.07169105573765,102.50993505129317,104.9267597028904,93.8598520425974,73.7640179114229,48.61701022313455,21.453183736091376,-1.2618098511607405,-19.044384547576282,-40.75765446949928,-69.43038799912445,-97.04114292122975,-118.81346055963738,-138.09212105777965,-156.5192175898522,-177.2778251789824,-209.7004282520164,-241.13234426193026,-223.42865940384857,-127.63895971363789,4.604295314998723,104.89520868755,146.40252987276872,148.4481603029689,138.3877530133362,126.90134693637714,113.88059874621847,101.22889770278704,95.22538739182588,99.1357709658255,106.97693849247668,109.94783958707207,104.30015396501072,91.27258577743326,72.68967234041489,51.113475870855474,27.145534282334847,0.7278851974003138,-24.60704553810908,-47.30726298562582,-69.76138621840418,-93.97888404526964,-118.854917058456,-141.5101276420615,-160.9095603628739,-179.6552864283915,-206.58231408258183,-240.39613355831884,-242.25739197934126,-168.2666451174931,-38.61822476006613,77.10813472838068,136.20686946708486,147.66606623695844,141.13861501042382,132.68163133766936,121.224903721433,107.66235767101425,101.47409234271797,106.00893505002252,113.99968243844657,118.3801679990784,116.33236966881488,106.42499167246592,88.03354936131561,64.58782554059754,39.590379129976064,12.357609716766616,-15.516540164155794,-38.706185194288544,-57.305283497875436,-78.50269960650765,-106.29551420163166,-134.3920024588575,-154.30779252357317,-170.93080170421123,-200.95748939740574,-238.72383312254078,-236.12936258527213,-149.3656987988719,-7.756016062589923,110.79833760489089,164.79938480843919,168.73270975698216,151.82361705533816,128.9609275342596,104.57351143398502,85.0936327899211,77.78592077875142,83.31462430198404,95.3875038958028,105.16024399713329,103.87098955785113,89.04193857689363,64.60810974656555,34.85121320218204,4.368136210760541,-22.53474909624535,-45.565727970212095,-68.55522613808039,-94.36798000272258,-121.52222564907498,-148.46215088909685,-173.32485032619078,-195.24593417458482,-222.378718668867,-249.77573015161332,-230.39534327268274,-127.01833425906717,17.161819745583568,126.13984722353837,171.01322371350045,173.0203960857676,161.50801728712074,143.84031352121153,116.91658982786662,92.16714036536683,86.57218510684682,99.27766449693922,112.66299378923925,112.15089742200591,100.84695705885939,85.33803266684653,60.79977492807291,27.4608441062083,-4.739799909293973,-32.26265260287755,-58.318157549498366,-84.82425556039334,-112.2362715205433,-138.1614170723622,-158.84761487231947,-180.61817980420918,-215.16176797439795,-245.66063131879494,-220.3189139700812,-114.52577641173255,20.815787222015654,115.67424526538242,149.4357928383635,146.2978418556194,135.26836167408504,126.28830863929133,114.96560642833593,101.23546363612544,93.70801958909789,94.53018339339069,95.72954244108577,92.38895840947255,84.33410334521946,70.10231086959325,48.55124670343703,22.56153185673332,-3.6163170775587927,-27.525823504886283,-48.06645209177354,-69.28428169308063,-97.58590847585528,-128.72605121061704,-152.34897672818832,-172.51555426873986,-203.3884029367873,-232.10970755194458,-207.92799931622866,-105.73460378520905,22.9795841577602,108.83357880922719,137.05621066696548,136.36676682444283,131.3568585344197,123.96424461284707,109.75247521354002,94.04734360417716,87.58980899456785,94.4004279127459,103.48065578448168,101.2860506004894,87.07215550208278,68.44942098087715,49.38904733220075,27.41715780973146,1.6280533574349851,-24.63107115445721,-50.20637485697101,-76.08218358881014,-99.95235917925395,-119.75695795285813,64.0,124.0,71.0
87.25135804570725,95.12179698021204,104.5279345637482,103.02088596524774,88.72244779385441,66.93879415074926,40.726675202593476,14.179577666341993,-6.600113457752,-24.523395798830187,-48.557788471537414,-77.92553838828749,-103.86431092652765,-124.46861592673638,-143.5221176688399,-161.86783632919995,-185.24580571427794,-220.54974049573335,-243.4262204458662,-203.27912911392013,-89.9067041322603,39.16178539307518,122.66596304848562,149.64542158040138,145.9564982196852,135.15305224557375,123.32084946307126,109.95679370745324,98.51627437337316,95.43819078617257,101.424056683449,108.63195859938708,109.19659912071957,101.20932074349001,86.37875419582312,66.65871307761454,44.49659423568724,19.651753050262084,-6.8658457727077025,-31.37695777731131,-53.68466575794084,-76.56036121468426,-101.23012870940022,-125.72211823368109,-147.43427532418832,-166.10998029817858,-186.15828443509744,-216.57385577624913,-246.74739117451685,-229.34849580987017,-133.71478212557946,-0.8218569357683317,100.42694596977083,143.12430411719106,146.48016348067523,138.75956679328416,129.84069895058263,117.18433815332074,104.7101811151152,101.88721420913242,108.36107452273646,115.82422210712758,118.50902077700046,114.34835266360223,101.91974153908888,81.54629191960741,57.50180404712338,31.996494696710872,4.141099952128355,-22.87243448069894,-44.30774468800507,-62.815039659987754,-85.95002209158493,-114.84727221558815,-141.1440942565449,-158.7377486141226,-177.68787393367396,-212.50737397843102,-244.86115902933335,-220.10227691946338,-110.77565824854682,31.93855054421076,133.18263368120012,169.66788906080103,164.99258242920726,145.57176448584914,121.87952009976246,98.06187870291035,81.5334702670544,78.25648126303705,86.49242928710576,98.87426142435773,106.20864578119135,100.86197776619245,82.75948081796352,56.38050664350199,25.88837628972692,-3.884826140158416,-29.469415029607678,-52.00622163429879,-75.72631499774337,-102.1823708187535,-129.36294109911373,-156.0037278655067,-179.77106855067345,-202.11651753260386,-231.58314501594214,-251.70086356043007,-208.87784780074202,-85.9059357256304,54.77990261270481,145.3834307620517,174.46660018034024,170.26668974888557,157.25688851085667,136.87369802299295,108.64185998666738,88.18113994751536,88.9550023831392,103.98282727215685,114.14261063084453,109.52169624774655,96.84918420445482,79.44875190089078,51.68145491519089,17.659957865803964,-13.060555594412024,-39.81003531154582,-65.88971856280679,-92.67727083199505,-120.08928575769477,-144.69474100864943,-164.37515129134502,-189.18618955343857,-226.3007849943395,-246.43891138530253,-197.09588576972317,-74.88834288748147,54.46247732702533,131.15287538363975,150.80529764993065,143.061972199855,132.53994877555772,123.48826445265726,110.93165654798189,98.06849760247344,93.3486419884202,95.20852707010002,95.25959933365111,90.56525972930963,80.96078351360666,64.58175767138518,41.28646129674218,14.8796278620541,-10.842784273864043,-33.76870332619901,-53.7785288818667,-76.63753592613355,-106.81519552199221,-136.5490253113551,-157.846706756192,-180.03857626882086,-213.70578287896262,-232.9485168152561,-185.4922089891326,-67.65965155620164,54.11018144822046,122.02265156211911,138.33068379822464,134.89954292187852,129.75932469543585,120.53551587846404,104.90214047433825,90.80503231498804,88.41090461766508,97.53918500459011,104.31259340341948,98.12667322722879,81.81445514784285,63.02733104400656,43.481878948942104,20.251627389087457,-6.060000745731639,-32.02315153739338,-57.68106255693523,-83.35015548283084,-106.0509510290743,-125.0809537246514,-144.6183050351783,-168.27934629404075,-199.188155536233,-234.02984493396818,-241.57119581024776,-177.53716554103352,-50.36102858275764,69.83639298483229,128.70029271132634,135.985483126417,129.1379799697979,123.5778877251744,114.4515812724656,103.81505608362966,100.214755805173,103.93178553837697,108.92629919087595,110.81758593208245,107.40107139050308,96.4680417289373,77.20432062182083,54.50312019694315,33.42602792909229,11.27292269376888,-14.833723330561872,-39.35183317301817,-57.587338524486725,-78.04866729546409,-107.44685233476167,-135.1330992953079,-152.46387289136516,-173.9927125971621,-211.2931559378737,-232.24203183496542,-181.71218603119019,-58.10259667018059,67.26657326470458,130.5376467149604,137.0515931909322,125.10029614045914,111.27111264830346,92.9271718842628,74.37992830240347,67.55206791812847,75.28755148064728,89.7668847311387,101.88768514289598,103.91757402637491,91.06722657776068,67.2025483745096,42.97500370166394,22.577492560007208,0.7565350870890947,-24.130876630842995,-48.86474360090892,-74.55247964466659,-102.39239028416407,-128.29402961961867,-147.84191448352775,-167.09302430753425,-198.59832556073889,-230.2480923199339,64.0,124.0,71.0
118.06655042988011,111.66721829845173,96.71192561519062,74.77298342503141,50.3255754860971,24.167635890882554,-4.023708869915614,-29.701356698266544,-49.62460154673287,-68.76007298620033,-93.9542870088261,-123.17239507143573,-147.04220068291255,-163.21914850962077,-186.01112450619394,-224.15586553062204,-246.06104079817936,-196.3800524489081,-69.23406667539686,67.74798622455455,149.82826916320627,171.11585611885192,160.14992251732573,139.0020234500673,114.74846614977771,92.1692098061599,79.13818845329425,79.72448278844817,90.02542868918341,101.93755771971577,106.1360945208856,96.75881627650381,75.7973404997519,47.79832151525395,16.993587344749287,-11.753592091978282,-36.12508559043446,-58.56723267648199,-83.15737946666874,-110.03955171826945,-137.17470842803954,-163.29023176628397,-186.00440470497995,-209.75028786132398,-240.35336746174923,-248.11594766441274,-180.00745810627797,-43.31787493551372,87.77404933473294,159.2229649031129,175.18589380685802,166.9717030493641,152.39756219978523,129.10392492684454,101.03460712597614,86.12657270285537,92.61693254898735,108.21176975320304,114.24626497146812,106.25936711309242,92.55038085216351,72.59542544623282,41.99545871296343,8.220275420287631,-21.028982395677527,-47.322884774550374,-73.5221239126455,-100.6101010375066,-127.71379928690148,-150.70989428995546,-170.32256178867559,-199.05924800674873,-236.24722612775076,-241.0490844744426,-167.2318213039719,-34.738039933248444,83.2880363476141,141.64144602205624,149.946301948901,139.74875411188097,130.00061790149047,120.31973531434062,106.82339890637765,95.6691878969934,93.5937248559908,95.67763910845973,94.37771404816084,88.35255839046208,77.00899365201639,58.45016973207593,33.76621580646199,7.26908956450103,-17.832723776338188,-39.71606595807474,-59.72803334831459,-84.70926142941308,-116.01759990304811,-143.5207891937785,-163.38192263372585,-188.79729793940768,-223.07106136397078,-227.85359586178419,-156.61097691734724,-29.354624213623996,80.27178166566284,130.71283482439995,138.08358893956387,133.44768335496917,127.80625902199431,116.48599271746892,100.16599690520144,88.60986690138421,90.30829471996786,100.44958541660849,103.9573017933522,94.09005667445622,76.40131472943312,57.57929933021056,37.23388368952926,12.802102789431645,-13.68161236902202,-39.38872261245207,-65.18979755433352,-90.35241464124891,-111.79964806136367,-130.46228633671117,-150.9168495556611,-176.32303462666778,-209.54621488694,-241.2192916749724,-231.57943826504055,-144.85915481966467,-11.445016422593632,93.87553274069298,134.40907096869333,134.14603801407057,127.49597377521069,121.49276206558044,111.12108508702269,101.81986731725418,100.77867220258798,105.49919561032179,109.90898755665123,110.45981233514465,105.12142009524717,91.6616962709654,70.66647683748775,48.223283239277535,27.380087681085893,4.053461520330556,-22.473727559743953,-45.13310005596069,-62.69667766624715,-85.79625586329415,-116.3422052962806,-140.99227306484917,-157.23123930162484,-183.5820513043017,-221.6112755418305,-226.70797493910115,-151.29475064405653,-18.213223140844264,93.03325929544643,136.54198605924796,134.13905837546517,121.31425545066891,106.51747738612421,87.06151471462934,70.79671330709218,68.52382166253896,79.21215345692937,93.87003653317828,103.82259952991872,101.76927565791962,84.8673585611013,59.816994600398594,36.83093096069796,16.667952805862278,-6.27038793531463,-31.3512910771299,-56.04835319054129,-82.46399781389728,-110.34802494866135,-134.61318445974396,-152.80213831713127,-174.6979149425233,-209.3807103714267,-232.77973828567963,-192.6077794570296,-76.1347065081835,54.921440105113895,133.57659347006688,152.0389272105096,140.71565302138782,124.48123180449669,111.16258337979535,98.73413548865335,86.55677334651982,81.97960144447592,90.13941005531038,101.48706681074246,100.02836881163148,82.61283725034069,59.94435026102658,37.977533121630664,15.500273260636774,-8.567960327965432,-34.65440851414951,-61.9222993941328,-86.82217714708251,-108.24818790619851,-130.70829189166537,-153.55127126697093,-174.35725341932422,-202.81677383635014,-236.08206080438057,-227.26649611357436,-135.36543740655623,-0.39864580211365963,100.22327896952521,142.07476660464138,149.02541600014354,142.49472123792273,131.01969382269914,118.87287708634392,109.07312943760725,105.17057067454769,108.9365993426029,115.30012562599666,115.02531458710574,103.79577421488804,84.31791940236543,62.754682556792574,41.540635714734755,19.021525289002952,-4.601710644137189,-28.45171361252874,-54.17893173787108,-80.76288993233742,-105.53824927510406,-129.33166220395336,-151.60715030795348,-171.6391619539479,-197.70938359238926,-231.73544576698635,-239.73176243613295,-173.0389223550874,-43.14350273962286,74.96725693686822,129.03708746332586,64.0,124.0,71.0
32.0492582913363,-0.7590386856704492,-28.754038157552028,-54.842181429072724,-81.23605881074654,-108.57499214470909,-134.97207195674216,-156.3264491178342,-177.1084889288218,-209.95627490337543,-243.58257720649038,-228.5726853068203,-132.0512144578826,3.9501051967060326,106.72797094069227,147.8167691689549,147.65015484872112,136.61805089088776,127.48884060614296,116.74032230636202,102.90337043797383,94.13035900315859,94.20055215358309,95.80532841601926,93.10357770510896,85.7115748502043,72.43091266210914,51.77999847916239,26.109126619977005,-0.21825926955114236,-24.539292566653433,-45.453224555251545,-66.12976557716873,-93.41330109656572,-124.85611455908298,-149.70438765487532,-169.43129669742368,-198.62887727965568,-230.08892624316016,-215.8827588107542,-122.62794746422503,7.194657395065184,101.05577804991785,135.72993562483117,137.00185636728577,132.02828642285823,125.32187070456932,111.95068505955044,95.8313373004913,87.62136893010144,92.99757247416342,102.73116637472121,102.39421651842629,89.39551294574669,70.95481310718077,52.01889441868909,30.603222477709142,5.173497441147135,-21.199187826875008,-46.78016044185379,-72.66876019129433,-97.01102106792669,-117.28427721504232,-136.0177714522606,-157.61426733140468,-185.07907909663555,-220.02677208463032,-244.98096509399505,-214.62966315605786,-107.93304189427099,24.809941063304322,112.04365771044297,136.66529053707498,132.007058375784,125.99001995419827,118.93500107470233,107.87014430713413,100.59968405653306,101.84122458721032,107.01728534351484,110.55988285612123,109.61685803025956,102.14848229866753,86.1750147330845,64.0320012923165,42.141422042334725,21.09837144739358,-3.504354574519634,-29.74911296964198,-50.37585464713936,-68.34156985887172,-94.3022015230865,-124.66172399561798,-145.95634805934753,-162.95804794893346,-194.51707420249107,-229.2436462079933,-213.90400662457182,-115.61709194712617,19.575399770856677,112.61072629656861,138.65394275296237,130.5923615319167,117.43428659968185,101.27345310033792,81.4357243214119,68.48296493018391,70.62936254216349,83.4561825486103,97.57573507403171,104.73076884029443,98.30883575431022,77.95419454971233,52.68300273946708,30.9768121279776,10.462499248142779,-13.489883753693043,-38.48981631645415,-63.40052058098156,-90.53613541867777,-117.99150015580626,-140.32438980942732,-158.049771055048,-183.61452755194856,-219.47742402299582,-229.7263634806263,-165.20354741860587,-36.04158370324108,84.61282194703287,144.00326063676056,150.39309759326116,135.8990124944086,120.32485603502617,107.63841276968469,95.00113611554983,84.02546670280013,83.14842918443915,93.85084585207115,102.89283548621268,96.28196501776907,76.11389880224507,53.54008369956656,31.599378926243144,8.743093277355415,-15.900901046531969,-42.51341102951356,-69.54719888581803,-93.20923042276635,-114.47227608349849,-137.51610151909546,-159.5682178869504,-181.25109642663844,-213.18486346190318,-240.66515349990615,-209.2155690302903,-97.10472797447164,34.69523972183637,117.69694196333397,146.4006037027217,147.99513842035762,139.45933090625644,127.44042162253602,115.65745077953922,107.18183151383072,105.53471673575312,110.92575899647498,116.23573492796584,112.90699446812218,98.75158730944113,78.06948931278802,56.641170294061986,35.22775848797434,12.225233759177316,-11.41930404565596,-35.6407649609975,-61.92762749165115,-88.13251690059336,-112.44720803627261,-136.05482582188435,-157.44369986197805,-178.0477139802651,-207.40016436695646,-239.19149187216254,-229.32246245923395,-139.28136052900913,-4.286755780781695,97.65025131880297,133.66854875334334,132.3572275703017,128.62094193103252,127.33656620463451,117.982826748045,102.91838426712849,95.96524350571656,100.20376553783781,106.18331846424275,107.71709930992341,103.76093337526531,92.34666105021338,73.21816378455186,48.72064409477582,20.893316149251028,-6.824888548847042,-30.62145843599267,-50.744979827790914,-70.22427080604201,-90.58187454885442,-114.59084260351571,-143.25135029795766,-167.12991850089293,-181.86182692812318,-206.3514730799572,-243.01469151316752,-239.50700163515654,-151.85406733354955,-18.631990430873117,86.55767366231666,135.99703233800685,148.0051467316211,143.2584370882148,130.69197479603767,117.9505880090874,108.66025154565595,103.08712098442204,106.03348552612314,117.72551722649465,126.96453597786132,122.89190364939269,105.9567398466127,83.5570019731261,61.207001407978126,38.91320112914529,12.951960104979012,-17.22327091334484,-46.05456642422177,-68.18373103535421,-86.56963908223037,-109.46263622433914,-137.19988111398087,-161.4930101653779,-183.69321373152806,-217.1286332670906,-249.39638326757742,-225.27612025662935,-115.27107270974997,26.912717789569168,125.36788475557162,159.3896948969935,155.15596529382532,138.34761561767587,64.0,124.0,71.0
-122.6272784979982,-141.83290160068356,-164.78635809603585,-194.57834930073273,-229.92673053796418,-243.97636236736668,-190.73386644305162,-68.67117809347577,56.82354041359661,124.61289815528461,136.55385021612693,129.98198482386258,124.40104710345749,115.94033477745316,104.96864530537266,100.16713572370983,103.22919371734524,108.3768738391116,110.83166929732921,108.23584281573339,98.43498201146912,80.13157240161854,57.47053140061024,36.17433139426452,14.466295293400503,-11.253396147762276,-36.47012847095317,-55.31948040536311,-74.77748811909333,-103.26824126911123,-132.0736981622479,-150.42179699412992,-170.12677495009956,-206.06328480819192,-232.57547674328586,-193.54824726640504,-76.60501635351683,53.402471396541394,126.15741427601473,137.99683952581802,126.84125690724659,113.30388283314652,95.62024262178342,76.40493556710003,67.53312894289581,73.65194904812643,87.79378949504328,100.69694676391083,104.46556378988241,93.60981833884298,70.63155145391593,45.93952961334559,25.238107079601473,3.899581445254543,-20.777528929071572,-45.58595501658215,-70.97817910531158,-98.66368823020741,-125.1725805921321,-145.54122985797864,-164.00446453718598,-193.68704851947908,-227.58607073916534,-219.97727223725474,-131.89666810331443,3.1530902911552645,108.7141302619513,149.86860237126265,147.1172780059128,131.0984115697026,116.45632494339043,104.083770015617,91.34224940076335,82.38854583433174,85.40198230290417,97.43236798597613,102.86318474946452,91.33004028912602,69.49937529048368,47.210521698264344,25.13704388972379,1.8325330384875886,-23.40475945583433,-50.43653877477159,-76.84912302529662,-99.36107758858047,-120.91721117908091,-144.22293124775,-165.4339432037898,-189.17485864262827,-223.54334386590446,-240.10603042756568,-183.74467870712553,-57.16920396799668,65.19109869222719,130.43295134210138,148.5813074948182,146.18176941880802,136.14587939217992,123.88699174171192,112.70902224935848,105.87958631813645,106.54556316359788,112.91922168001648,116.40043244958751,109.84064566915949,93.1480388176966,71.80371724434437,50.54560109915537,28.754942688473456,5.384023630513783,-18.26431469452727,-43.04019591165105,-69.66613150398895,-95.30999372821641,-119.33153106632074,-142.5785590936115,-163.1266373207534,-185.28301979477953,-217.60367978223067,-243.18190913341783,-211.62669136558074,-101.43902765864115,31.437666416753217,114.36355616213369,135.1724906101507,130.70665416079663,128.46303165756714,125.75234793968507,113.62648309079937,99.5931632036958,96.35022823486752,102.19976774365837,107.14258804187254,107.2039851976821,101.3150501612156,87.52192876097192,66.5968042740483,40.916415410350766,12.670278918354521,-14.193405365715225,-36.67994295409574,-56.34042866185877,-75.95362985565643,-96.9632223743465,-122.60856811610527,-151.2140812912828,-171.86132140243444,-186.90828797110106,-217.07977641503192,-249.20194403986306,-222.78261783893458,-114.54646615199447,17.087730128379903,106.25071116580874,142.12990113312205,147.83433692163936,140.1107711079736,126.72168631056496,114.93653919956515,106.53756876729092,102.82894610766832,108.8383591953963,121.27974342256157,127.37010353604448,119.02896052391496,99.7197197960636,76.976832813406,54.90678663717364,31.93052763187638,4.518441281575867,-26.022875819636663,-53.1980751053923,-73.51509577421064,-92.45036232693141,-117.30249138328516,-144.86685844699673,-167.5686162585729,-191.8309779750148,-228.46486722590691,-250.89787255102044,-201.42502507837304,-73.63748409086186,62.089536128783905,141.10605092232532,160.63792035549577,150.93727401916013,132.63924289260967,110.6300425216109,88.06946229136295,75.95701703427588,82.72305507319574,99.90444503230208,109.79882203364879,103.11945410432499,84.72050585103784,64.38401142070384,43.51625496967793,16.843921104429985,-13.504112435479577,-40.607674198665535,-65.02177911174736,-91.59810607289997,-120.09390430638003,-144.6224944658705,-164.1276563888567,-190.7529099133335,-229.78178077465796,-248.82416092086615,-191.70892777723913,-57.45825066225112,77.79555207227091,151.81617319248426,167.99369712672126,157.49031695815376,139.588451093469,118.84139869079051,97.87682016548305,84.2881119561415,84.93581895017529,96.38801218313841,104.53689419493244,99.6706451709576,85.81632162738252,66.74275545320282,40.566876342019064,11.152518426519542,-17.283030942380822,-46.38721454694621,-78.63671431519393,-112.35120726683107,-138.6268932754893,-155.4073951968728,-179.1518993727082,-223.36341969810567,-263.42555023416395,-240.7224448023811,-129.53194143611887,12.627778258720188,109.32433516430768,145.58086275871295,151.1176445217883,147.77539458148325,136.42334608617253,117.38755109920012,101.82122255476456,100.22947454262746,109.15853302219602,116.1808014664996,112.88070442939865,64.0,124.0,71.0
-232.22523825775357,-202.93328577451354,-94.33415789887962,39.53298887420733,127.02568933875877,152.03680185166775,142.8622173272826,126.50274457343234,112.80249618263272,100.44276580156445,87.95711163619852,81.83761957001693,88.51042619992548,100.4242847629794,101.27811456241396,85.49969608154787,62.93414330648274,40.89749315452492,18.569200571184435,-5.245919650998971,-31.07058860648163,-58.32796413082627,-83.76464011056521,-105.4321867091595,-127.5827380767178,-150.68025505943487,-171.4382904821043,-198.2665571541831,-232.68836439714875,-233.0095827771885,-151.82206066159807,-17.796409117022186,90.41584883830612,139.17040374252477,149.1710593804175,143.76846800596053,132.6595282296834,120.42254750977783,110.11936488420324,105.23509660410507,108.09116379000125,114.65499687990061,115.67708614876003,105.8883477604198,87.16003175417073,65.59298199386524,44.404619483057566,22.123823834422375,-1.4552509028596023,-25.20243608571661,-50.630872915461545,-77.2993355227412,-102.3345223741198,-126.1901193912838,-148.8272939108725,-168.8806137733971,-193.54456524319608,-227.5415441088754,-242.21590066110593,-186.73784070922866,-61.584950909500165,62.50394079733367,125.53547091773368,134.67228861640052,129.47805309241465,128.30416039731395,123.23723829097862,109.06920217634259,97.29301342317497,97.55629425250119,104.05456908674029,107.68187211490023,106.20826805981714,98.18423687115393,82.09084952147101,59.58612716544001,32.88002228245198,4.56725108580932,-21.15889039295464,-42.49390534420347,-61.95258323489316,-81.77349416327012,-103.75952748484256,-130.9690350269424,-158.41848913903905,-175.92755073858726,-193.47130553535217,-228.39684509727164,-250.22149169208635,-198.55992243561198,-75.26873655136723,48.81879051662487,121.2666014713065,145.83197440788388,146.6081196745743,136.46949098737056,122.93852158244488,112.20972245615941,104.75703600760194,103.4513185553541,112.25821212725519,124.26407508028956,126.48099076381476,114.22832908647398,93.22132740453353,70.49458371176732,48.54754027659309,24.540567806956428,-4.219782995211727,-34.51988155520024,-59.698761502877886,-78.71054552486392,-98.91378207068226,-125.41281803347302,-152.01193441603246,-173.70071213298021,-201.28594084771024,-238.91387014121165,-246.00691814777494,-170.41515503164337,-31.42111165582373,92.04385962175694,151.6634520175053,159.55037340615746,146.1155505315259,126.62920368909094,103.82779322511992,82.89685161508233,75.99629086121534,87.3903258891569,104.19953601433411,109.59114055002937,98.53940043536626,78.74293239926226,58.645962332880714,36.53105067178133,8.102887486907816,-21.829129969817153,-47.70607337237509,-72.34539244365453,-99.83196935036693,-127.86910773202221,-150.44203871847589,-170.4191169411782,-201.29733064103948,-239.8852495231304,-241.98254905684456,-158.39163202906883,-14.57327913224972,106.44791159888194,161.08742993512877,166.4784797102033,152.69886654749246,133.8444911053668,112.55802874376526,92.7841471178141,82.90792623236128,87.6321822779207,99.76887077479587,104.49526950799297,96.25544275952201,80.92175603232661,59.8927585049848,32.09685337159837,2.8331680593915602,-25.49108849572088,-55.3182556815653,-88.52486272433961,-121.12079198937698,-144.03663285657456,-160.5545975924086,-189.979931907846,-237.66975380390633,-265.84677383935184,-216.6289944863429,-87.62558500971862,47.29475197170543,125.01625866772012,148.9047885804988,150.75353213220473,145.4948318664039,131.39270439842304,111.89698014112912,99.77242616926065,102.24034055393109,111.90488599931048,116.44435507780403,109.8265230876028,94.34742621234598,75.31742523130715,52.689379324516544,21.942119129242453,-13.315506685517079,-41.59667589766364,-61.132708319629266,-83.67899631977073,-114.27469584878727,-144.30607759797783,-167.5309549012831,-191.0474833280865,-225.70796732571245,-254.81962483443982,-227.2461888431786,-119.67266034247633,13.885318816937124,101.26305075859321,129.35640648671253,129.83286797271415,127.25058475045466,123.5966292031389,115.37777882457935,107.08019003771756,105.59201565344289,109.98947766412854,113.49536201859301,112.25896890899719,104.66929706301876,90.1163622375741,70.03190279559772,46.41637466169376,20.828584913797634,-4.844104689367608,-28.198030910940446,-51.48102639848928,-77.96130303755851,-106.44087643840987,-132.79595799891163,-151.7372906379943,-167.10330111230678,-194.58099272519016,-231.6260779273024,-235.8749515703377,-165.8361238331002,-45.96993701049185,56.74941260196936,110.09763545988852,128.93416041996008,133.67466930278707,128.5909766926892,116.1880228516159,105.15430667230517,103.10660635182245,109.38053448602206,117.20274294791109,118.64167828196302,111.53316880440936,99.43118981359962,83.14047665431842,62.58342599093719,39.608180222716584,64.0,124.0,71.0
131.9913066247723,133.16581365695922,128.78442487302272,127.78691925600675,119.8168833896024,104.73178477481117,96.12663859438769,99.3015875166013,105.60070567970743,107.80365677285687,104.67062781447414,94.34888237306066,76.12732246236054,52.223370439321855,24.69202102982136,-3.30232984401543,-27.721431534133913,-48.158834149061995,-67.60319970448047,-87.74887123356565,-111.05329837462399,-139.4178307847844,-164.62603936029785,-179.8841987456181,-201.87255009151622,-238.91003368559137,-244.60552261225752,-167.80828157982674,-36.11326118304042,75.80469248342207,132.16820241250875,147.66621800378803,144.49305258411619,132.54064637222382,119.44855333131169,109.72699444632823,103.46745100602826,105.0094695374065,115.99382930876843,126.36367525422718,124.30471859600559,108.69641750849752,86.60995662143192,64.11923475169755,42.015002904011304,16.709025483582895,-13.116998855319425,-42.54720290001953,-65.61646978478736,-84.01826826459265,-106.00092546188304,-133.52972885310808,-158.6071312745578,-180.33772590312498,-211.94117351322674,-246.96164495399088,-233.6415635403034,-133.6448350623582,9.225438738738816,116.20813563859942,157.80598275644482,156.81670749857767,140.87642996502015,120.31846821668532,97.11339006900629,78.95216519993461,77.69843155854475,92.53537906369326,107.45013076487444,107.9180820558246,93.2233310229902,72.82647778113427,52.76198847369928,28.93487337518668,-0.7681020168819426,-29.742142623332157,-54.69440406325115,-79.95753859800003,-108.14632737169629,-135.1242877554575,-155.9428304326887,-177.72627149883877,-212.80186182404475,-247.04596820570197,-227.39641225074658,-119.58249179391103,26.054407059191583,129.10362540698787,166.1978363272791,163.49612170172932,147.56144237399093,127.87906205186111,106.36146381162364,88.54127916084705,82.83307670818841,91.01359664485142,102.45556693338537,103.27373897091074,92.30205585123774,75.57799194085075,52.4063880592497,23.53976995356331,-5.372120232539622,-33.830331114149644,-64.56808766354406,-98.42017165946362,-128.98843139514224,-148.77223723775205,-166.86767042692182,-202.65486135362946,-250.5411558571807,-261.40480929962496,-185.25113133674424,-45.343831545766236,76.65730672351202,136.03974283389135,150.54482963237842,149.92298854220155,142.4206022733419,125.83297852915322,107.06323750437622,99.05786030642464,104.88113016982786,114.17458774384824,115.71690743405858,106.00976556390927,89.05767350062612,69.35653804552193,44.73475843440699,11.733074682836394,-22.61919707877716,-47.750151529072234,-66.79684880462223,-91.9158961974154,-123.48537008918841,-151.6710108037509,-173.6744445041602,-199.8344888188685,-236.57739933159115,-254.99918745541163,-203.3746945894141,-79.98823470204717,45.83020834373577,114.40705086457974,130.79083665355503,128.96968124115614,126.54988348993331,121.65688608449058,112.62224916908895,105.79302803004259,106.53975665915507,111.35516940022796,113.69906051110871,110.78592214332721,101.14481140863901,84.79240843604003,63.488884992130785,39.171238673359454,13.286359341034691,-11.847122642767275,-34.720809238858344,-58.77692500491171,-86.121843018462,-114.52414417805133,-139.16701212182863,-155.93327262062695,-173.20902026437113,-205.48553904357917,-238.74336426276705,-223.73861885899584,-133.4105918758886,-11.999859739642531,77.18709341065505,117.90107042030411,131.3202182696008,133.2223437390648,125.46698531122605,112.40715718278335,103.49823156472466,104.29647962982872,111.85266461793032,118.54618034743211,117.33255872756284,108.42695084370145,95.20151905900372,77.56942928284148,56.13270165109406,32.58605496576074,6.550279844701964,-20.674860064000203,-45.35780379355576,-67.04860179589303,-89.66990119599745,-114.85645257790256,-138.63886184110066,-157.02411571408564,-174.4115643331348,-204.14809019588137,-242.8173460129663,-245.41459969819888,-167.70887348901704,-37.47495237147618,68.61905460231678,114.09121612673667,121.42102277502099,119.52593193810151,115.6457297167471,108.30160994807267,101.48415506392223,102.86086827153287,112.86594440533398,122.9149228358783,123.59871098973865,113.23009122790698,97.56072602006701,79.77979182897037,59.180147320345036,37.95554376821038,17.132941185659746,-5.148425876325615,-27.110000343188165,-47.46603728985062,-69.3446475258524,-93.26558053757685,-116.18747501299293,-134.4801424645676,-148.7129628636816,-172.24371937522122,-210.87808840322668,-227.7813397359417,-169.50511245247696,-45.30555447725449,69.91474785966977,124.91959072035661,131.86825012793383,126.27613964622861,123.29930988680013,115.85955935778047,100.69660548039083,89.18492295893806,90.67479090080386,100.12168867578914,106.30018834240019,103.57808993280862,92.932638417741,74.53686708422089,47.162883543182666,17.24783858446602,-8.043513334312001,-30.547942254962066,64.0,124.0,71.0
135.30845647171307,113.7354703716565,90.7731341422558,76.51819669277933,80.86130027001569,97.67109035893832,109.39080818801973,104.9048781385059,87.45736442261861,67.02752423360707,46.54339179532894,20.767713624758876,-9.54369419417236,-37.256350676815835,-61.72671209869827,-87.86493465111019,-116.37801332149277,-141.76627218594226,-161.4634226664765,-186.3240537983702,-224.55959385682291,-249.62129126433283,-204.75609208775114,-77.3952651620656,62.646182720665365,145.90582229816073,168.02507571881938,159.54084177534642,142.1592023485519,121.72415372575855,100.44691097972725,85.35531812716621,84.01060455484831,94.70068134495862,104.14655610856254,101.0100406183113,87.94537465618316,69.67675737050327,44.392983528445065,15.034066611187772,-13.522781372324971,-42.36764691356161,-74.1347556172395,-108.0670381814985,-135.82399903961266,-153.2669282650325,-174.83303489357291,-216.67532651982626,-260.37729082187496,-249.13432313543845,-148.0764460135172,-4.887907489315934,100.31655938565363,143.26968602740493,151.1056407680565,148.58990055467083,138.50367397550434,120.04012192520595,103.20403971347555,99.60341065898629,107.80743001225503,115.74232426970117,113.99519143139608,101.58387342732628,83.59368900654206,63.00411334406233,35.98979671024021,1.3765998816717604,-31.04132522829379,-53.316399574373264,-73.07329706021329,-100.77071640385846,-132.35602786326658,-158.4172164705741,-180.1659752245019,-209.77091221542193,-246.14136309886518,-248.95969505544835,-172.93605383249994,-40.19845329639027,72.47714255833816,123.0146269614641,130.85468008787086,128.20254875847422,125.62527935207791,119.3030056784014,110.05810244530923,105.21199156530665,107.84704784790382,112.4764090478247,113.46387037741044,108.73950416689298,97.04769780102517,79.05459213969854,56.69980904391072,31.78888061117178,5.80284894610267,-18.610690978199095,-41.35980878412411,-66.37992695822778,-94.38269849556825,-122.30543776527007,-144.78429055920728,-160.094308705907,-180.77603082580066,-216.7662662059585,-241.69814159038148,-204.72839695851985,-98.26660881001231,18.895553800702174,93.30746855593492,123.50522525772911,132.85884947226765,131.92674687958151,121.85698867801426,109.00372629421467,102.71665669819198,106.076296415002,114.2572785624361,119.16745424814692,115.35786955839382,104.99900733746233,90.59208414884812,71.66775258431471,49.531287900536675,25.33989120944482,-1.3532996199162755,-28.199990652491675,-51.79870083637769,-73.3090287425353,-96.77322381177903,-122.12066353593228,-144.54039731893565,-161.6314402130483,-181.217957771999,-215.62547320382004,-249.99052097681627,-231.6679703407763,-132.22815698081075,-1.3564355565149695,87.74051576510254,118.50363339744683,121.11768960026534,118.6879514458975,113.85697460536305,105.91672461537524,100.80693625189198,105.12864073155791,116.24910902757415,124.34837702479072,121.55095211572936,108.97703126932525,92.66936212759751,74.0936489817936,52.96651419833566,31.991607968408896,10.854752808372917,-11.678014645343758,-33.06075496768717,-53.500173313991375,-76.15447274125918,-100.14686156731577,-122.09815089306883,-138.66610333990442,-153.7782162344475,-182.53857635550173,-220.7002499501724,-220.02215451991918,-137.67496269522584,-7.616693236527546,92.48917287396344,130.23925703632509,130.28323901548316,125.23651476877701,122.04644590445193,111.97539634941182,96.34659676846482,88.24263155590718,93.09051257841278,102.65936598104382,106.45795586710598,101.22587379752413,88.520504070974,67.45064901566441,38.32174572719209,9.395646733166922,-14.614102017224193,-37.14027333613457,-60.544631858609584,-83.82063457421381,-107.866239994218,-131.6611540811337,-150.05348569828263,-170.48343752967625,-206.4399856628765,-246.23352407341795,-242.90506311127248,-158.01754714006682,-24.72164133839364,80.26329740269819,123.48013377518872,130.1801643730383,130.72200836399378,129.5848653300019,120.5554063031808,106.44856370805692,97.5238804445215,100.75861320945387,111.13497475577974,114.97409261336323,107.24419653722501,92.88371041171486,73.37834526190913,47.70579375828041,20.055949704446345,-5.631975111314787,-30.60094590435376,-55.92584517564114,-82.26185903679941,-109.23882126911172,-132.7874445258217,-150.44503604782335,-169.68486170567277,-203.62044307873362,-238.5425088810402,-219.10209445383657,-116.6713371695843,12.90288177282741,96.25211385674305,123.6605253976335,128.34035830528313,131.2101681695694,129.9989061918139,119.80358923981107,107.10344886096331,100.4533163165791,101.59667790459669,107.50180766354262,110.54602602348587,104.35081597630891,88.38522821639052,67.03926860971417,44.591083283375276,20.730200882494774,-4.829094922205054,-31.901016925171056,-58.20051192494479,-80.54040132738216,-102.79412552237012,-129.82138193482098,64.0,124.0,71.0
111.33792167121867,96.70721069825922,77.97325337122251,56.09986446167583,26.51377461453431,-8.78736795965024,-38.48509200891701,-58.64785441232969,-80.14046861015642,-109.98623111706587,-140.68394872452973,-164.71044510312203,-187.3849085364213,-220.58553307039605,-252.99375203362962,-235.80985847204636,-137.32379499012401,-2.385328117274301,93.46362412824935,128.00478004593782,130.2216774258186,127.54338046256582,124.33750375774702,116.65239906072773,107.89377431948584,105.32717048694775,109.3134555957168,113.26212699410453,112.7557824416123,106.09341046623057,92.41770137464515,72.95334677239272,49.70314634052624,24.30228371724681,-1.5328849058785807,-25.19446379099982,-48.22195191406021,-74.25493733032819,-102.65348790530321,-129.62270860804622,-149.68052151600267,-164.69605293426332,-189.8985500338408,-227.34628282010164,-239.17177420116346,-179.3683493320832,-62.3119086572308,45.81569793885613,105.56953302979703,127.50426544865734,133.60294076139317,129.81626271122678,117.98815337275062,106.1984544289505,102.79771032830064,108.27612254443315,116.37843682440135,118.99209043936573,112.84206692611507,101.26271544322067,85.58334523464525,65.49936475255502,42.77872055724401,17.857205408850636,-9.280234972024756,-35.41627181914003,-58.041237312857966,-79.76547078237475,-104.0726977349414,-129.12526374688542,-149.92392168948112,-166.38499201900646,-189.44723353751536,-227.42680551807828,-252.61340304736123,-210.52146076994126,-93.94650755423068,30.804364850049875,101.6539669753007,120.66492770057147,120.5510731825136,117.65849319285573,111.75149257264498,103.75857032367472,100.99163725612749,108.01402152944664,119.36744184509077,124.80317574685965,118.64757619544412,104.45779873623934,87.60315923863479,68.1570638286562,46.79895309545283,26.024000596998093,4.418455115671034,-18.08515983332879,-38.902513951642455,-59.76020861992839,-83.08742641302283,-106.86232284795678,-127.52067293096314,-142.61357090355878,-160.1048848205782,-193.98082548240205,-227.2857502100814,-204.8292871423223,-101.52019522011454,27.183028767322632,109.43987516130309,132.38158414335416,128.48220309606583,124.46664736719501,120.12787369315008,107.52729147905048,92.69300607452192,88.48564661700337,95.91217470137093,104.65581531647766,105.82576841962283,98.27722697663683,83.41255710544488,59.61045974817137,29.534030035514203,2.0207791528094887,-21.07696851590652,-43.83753881328965,-67.3086051102738,-90.59692093492748,-115.02832279024666,-137.56383534557463,-155.00194613708342,-179.0783584748649,-219.07174267955384,-252.23357036448522,-226.908217363967,-121.11210024399867,11.382661510995081,98.71786365344119,127.43315943800816,130.29126175470824,130.87855050976776,127.90025989005002,116.59599437786076,102.87770526322551,97.15428026487224,103.597211127385,113.43243125985589,113.77271464671787,103.57324275561301,87.86574999411694,66.52333438159144,39.63923756079399,12.425693156448865,-12.832381141906602,-37.87185541402377,-63.38292181412296,-90.11724803714279,-116.60663308295872,-138.4140207128089,-155.19262504509345,-177.7062777666386,-215.51745961859615,-241.17698186923892,-197.06156311875105,-78.09058040140086,43.581741080769916,108.69007206894153,125.88821903586071,129.1503200502216,131.65394928579346,127.90321237815415,115.90778138489931,104.36590527011053,100.03346587239616,103.07713183203907,109.0598474193519,109.83357216508499,100.62758125809526,82.5019617535839,60.61666807079921,37.889964136581966,13.50639505295589,-12.51976961849959,-39.777054887211925,-65.05739924351798,-86.64445679333366,-110.12776532669999,-138.0075743835442,-162.7528573887702,-180.92055652647855,-205.46222315133068,-238.2391059819638,-237.22891205459243,-160.37233167123097,-35.9878989896156,67.8310722595294,118.85078923581544,132.13997102825948,134.88440311863278,135.89774949253112,127.55685858494068,111.91840967608955,104.49485300689501,111.08591729117074,120.31653402080606,121.35601342665328,112.09643349192814,94.94089712041054,75.56483612040195,55.767182672514245,29.37100745320648,-2.129112428883871,-27.005773288153534,-44.908849333871636,-66.86649728216976,-93.79747339310062,-120.02509098020236,-145.22926394576533,-167.63150446634344,-188.0513086751321,-217.21717098764353,-247.68493565613818,-231.72534783707655,-132.43726435584216,7.688365455013386,109.1380931238227,146.42491695009255,148.64825396776146,143.07384005995343,133.1910677220468,116.80664360301509,101.83432236280855,98.37028242247813,106.79506489280688,117.31983059370879,117.00103418428235,102.96719528543522,84.46605084198079,67.45676263720449,46.4478520499214,18.48868120784354,-10.011388340046596,-33.671540462563016,-54.132789647315,-76.77310678327008,-103.11912425048388,-129.41759750795134,-152.38343411227876,-171.06693366961215,-193.38938819960174,64.0,124.0,71.0
