-6.340793653152467,74.31601278855368,85.21072166254228,51.549767039361896,18.80146481181497,-8.335995390958606,-27.481065360964287,-16.568504076620126,27.271713004897727,74.32374297005761,99.29553475318806,101.18101070156821,88.77171274951257,68.88638417942347,48.237723581974045,34.56843644975044,29.90586873116694,25.993824258375508,15.36825497857841,1.3625138921483293,-13.08052434545607,-29.158514846799896,-45.75411809607942,-63.363409408576125,-85.61354128275416,-106.68408146246489,-104.92830002654381,-66.0597290625529,-8.112185659948581,35.89981861500864,52.247030976390256,51.66104989956267,47.2518622379974,39.71877662511041,26.735140345551386,13.45876648952266,5.641290595786902,3.602858337290686,2.4234331895171595,-5.039920441541657,-22.653535384157706,-45.0928613073417,-63.04186570087499,-78.03334852822454,-95.33941334280682,-102.69748494639293,-78.56696669881487,-23.993943351955334,30.898071035311233,61.04065319198768,68.69148352128813,67.25315243724934,62.34336448078759,53.972180932148056,45.93341682549506,43.08599824909364,43.28394533097632,40.05116967748778,29.16298215652186,12.481436189233786,-3.728656336577815,-18.717303341043078,-36.377887603340774,-58.25744011654125,-84.11303658508479,-103.66353052361058,-93.08112857490255,-42.411410120954685,21.422183078197612,62.44994209255154,74.32013139119921,73.45472628943853,68.287361000384,55.8865951309144,40.085143505732525,31.338713283605372,32.25635741622422,32.494978180543924,24.427952428505144,11.459625782648484,-1.579879538172015,-13.556716630827234,-27.606893269791982,-46.226854514847716,-69.35716429879204,-95.13130544274473,-108.82149445461505,-85.83667111581455,-28.634970296106143,26.593077853485546,55.04378089053138,62.804668978277235,61.413431148712355,52.03277090242057,35.54069358809887,21.81275991830432,18.34171223878414,20.046691813287325,18.848554248870567,11.632137882395343,-0.7709819058701028,-15.818477139833153,-32.098433277933694,-47.69357218358977,-64.11550247173597,-84.70899601818195,-100.38036197190345,-89.19386728883494,-44.05961292623801,12.325824759142638,51.641451252041904,66.78585962360577,68.57536096480435,63.31214445970618,51.07307534349374,37.92584612113994,33.30678937026083,36.74990815178911,36.64772953495409,24.6752777599309,6.2225655896590935,-8.845434174748203,-20.18684158333627,-33.95526427050064,-53.77266650796616,-79.58073344408275,-104.77166842249314,-108.31186103489547,-71.66948730104973,-9.578710727655698,41.14981003949388,64.6450182934636,72.45937237140842,72.66785248390015,64.07575744503617,52.39306596731984,44.31123058026101,39.216641537696205,35.67868228965897,31.49664334843842,22.08088567603022,7.698632090235954,-6.269795345264293,-19.732450358931377,-36.95824330343989,-59.57272235816388,-86.08790589868957,-110.04800078523556,-112.48551963041095,-76.04925486480074,-14.46896456966202,37.03649344154806,62.61361623801594,70.91929915501072,68.8307881093345,57.67683176495291,43.24436774915622,33.89975384108008,32.328892469582705,33.154928366586056,29.311009829940286,18.75403179118706,5.3025336425921505,-7.132772343588003,-20.019836041276815,-35.171231402053046,-52.86209861306895,-76.39526575249764,-98.71960697899148,-92.70971742178924,-45.982363777744084,13.981035751792856,53.29476451748587,65.9558020638742,64.45588227664095,54.31945226506837,39.09018353577643,29.89973294157131,30.666464599271432,31.24052375321118,24.365665643177817,11.031866570973824,-6.221149143414821,-22.683914104916028,-34.17302003259804,-43.53082576393751,-60.98875547524706,-89.64516561821672,-106.69951909055513,-82.78959448094136,-24.836973294121545,29.372909925512424,57.4538818715609,66.55433117010064,66.306358122534,56.30273830359392,40.67661689736774,30.138701570746875,27.830855359935654,28.129041001982312,24.90944496133046,14.601826545079295,-1.1902654258426792,-17.947236765232777,-34.80107615817128,-52.553109857282216,-72.96644396204495,-96.27496363677179,-107.2259453214355,-83.35757491490133,-28.7740692466602,26.69685661706632,61.08844967666897,74.29898012334779,73.92788247302016,63.072336447439255,48.1127413609485,39.75593003549011,39.574255891697426,39.912331065279474,35.42837098164578,25.673529034857335,11.148941875474877,-5.581099080974188,-21.88700353837062,-38.631541114575214,-59.077774838309,-86.08331398182693,-109.90060354369271,-101.45069460033292,-48.889226432198434,15.44423868281239,55.85077618510443,69.73203018537762,70.81646877969784,64.80136179501778,52.20768913042914,38.212794032175225,28.729758097878225,24.440988230130337,23.035038044158764,20.321354498055346,11.471065337941832,-4.095160281484189,-21.222391337629468,-37.31246173398539,-56.116104645125546,-79.27309339825682,-97.8335986715919,-90.61556557998,85.0,124.0,82.0
-42.22830875496054,-65.46079863701083,-91.31665231376256,-104.75600541037959,-82.03188814067367,-23.46011806613052,36.610158137122205,68.29448056492953,74.65883856664738,72.48110778312886,65.51204456025862,51.22111082914655,36.442906115718245,30.896402632957187,32.9584425360871,31.01622526429951,20.916502315278525,7.565919912283637,-5.07509882617609,-17.222327642848633,-32.50382547035342,-52.450462549171135,-76.80965223981917,-101.47080263783278,-106.68572914943002,-71.56987010841871,-10.745642461954091,37.741025539456814,58.74170627899049,63.11470117884104,59.627826928519674,47.70924588220585,30.751395165859286,19.764041848731566,18.73101369242404,20.226599305818244,17.414684245545203,8.456838769410735,-4.916867414106747,-20.476182563985816,-36.724304975206174,-52.13999156262263,-69.67814575091512,-90.62782770787325,-100.79428840566294,-79.107773335111,-27.471887669586195,26.26992670033498,58.16501991128785,68.1635103988494,67.78717542510964,60.390162162341426,46.90821614673439,35.44846643054646,33.86908596431438,37.66264322202663,34.4319193720601,19.494322446315245,1.2789968478829998,-12.25734397408978,-23.666096399985474,-39.01056474787456,-60.696589306611024,-87.56953164485262,-109.20452139017806,-101.9737122223125,-54.763440016453494,7.643858025947888,50.50802692062105,67.85383427521444,73.34051194270266,71.03146866379585,60.58751728553521,49.61385832931676,42.63233622472779,38.06809029658702,34.73168685048559,29.46851995586314,18.203747078594162,3.4569711856959584,-10.03125271858729,-24.16476441080817,-42.97249603628467,-66.94866327094827,-93.85268135004449,-114.05097349026032,-106.0847403389221,-59.33420662373407,2.792886350224459,46.94360550002079,66.27974326712607,71.33140266575505,66.40424786028582,53.45334845130235,39.73187368228051,32.76637570724789,32.67394976688544,32.74468298049575,26.866743313870366,14.916692962116473,1.5718707477220326,-10.661623943440974,-24.184004211501737,-39.914458290059365,-58.96651705674195,-83.90772381652839,-101.1739110340817,-82.81527614209234,-28.212991604389853,28.36053079170279,59.20326907154438,66.51076346608558,62.38780153780926,50.048379096614994,35.31821171285479,29.389089562836595,31.375047833311115,30.066445667076458,21.06542149580821,6.3068774897118525,-11.325145688277882,-26.555961261712753,-36.739407821222386,-47.25131987561034,-68.5902496683957,-97.3467062336846,-104.62431200400898,-68.07680492928662,-7.155558908571762,40.25244159838365,61.38885389126043,67.35762230834399,64.45323354225785,51.899056455725166,36.73284458149848,28.78897386997352,27.956790795979202,27.781706477951236,22.707237000911213,10.388396869712283,-6.06169825649079,-22.758432796760065,-39.81139325688347,-58.034333999318605,-79.68472137321143,-101.84799615435752,-104.45686154434371,-69.6357565224288,-11.45716714936116,39.16490994781485,66.7097500019205,75.36990785394791,71.7577045887425,58.666492814126755,44.69017800536869,39.124006545130925,39.98150970099308,39.1784051217415,33.141632559519984,21.905587199435985,6.378022105319264,-10.365679226790387,-26.56595018119504,-43.977875147901855,-66.23083126587765,-94.33718355713194,-112.10735624123316,-90.06869159780122,-29.469490856421896,30.34099667757277,61.989640552410954,70.87878111520804,69.810385206687,61.720654706840335,47.97342188359718,34.88217298797742,27.02737879910179,23.886627467797314,22.614633613976878,18.55249552013663,7.502301071829998,-9.138342036869124,-25.88659201506862,-42.26455601828828,-62.4961497183903,-85.87717951378343,-99.40562814907592,-81.26778639812662,-28.877910680687073,28.042966194204183,61.114611319247146,69.46248901023745,64.81172352530038,52.63436314427266,36.56604368301652,24.414108470479544,21.25428568085528,22.18418653312077,19.206537304775807,8.801478477027132,-5.826530180439602,-20.087415980456303,-32.4586435639936,-44.717277534474675,-62.353519113385474,-88.39209938967149,-106.59854517273746,-87.94018684401185,-31.519087962955545,26.95050198061073,60.20938293014906,70.7256648718143,69.71140733850999,60.12529218542355,44.90892834119924,32.7295956017328,28.285733829624466,28.143710618577977,24.27683816925226,13.689449049900663,-1.3622153109475452,-19.474511878505865,-37.44662596459896,-52.69216098366186,-70.51962130378632,-95.97752918072841,-113.30809967289994,-93.1583466654986,-33.166616011409495,31.317118900276533,67.33100581969883,75.18232544325602,72.89420263583061,67.74150679940682,57.38161041857954,46.38025787739677,41.72775766619858,39.04875599781876,31.038890254102927,20.3614033814422,10.82505480883049,-0.9731759488585219,-17.826824085887207,-36.62395440602802,-57.30820984690959,-83.49882063831369,-106.4256735325767,-101.24474102130436,-56.19135822290511,4.536435320239343,85.0,124.0,82.0
-68.10593218769642,-95.24472161187879,-111.14899420097028,-92.01074053087004,-36.50901952241065,22.99334178683051,57.58749995545833,70.18149749394071,73.6052466449509,68.62861599250813,57.09296775882456,47.21745016147104,41.13675807518362,37.04092049821529,33.64001735423031,26.88184082877812,14.014523698669832,-0.6173981392848005,-13.835279554452628,-29.019294937448382,-49.427306537184265,-74.61019133744203,-101.16708799285496,-115.63977470669253,-96.17292622852425,-41.25651016471087,18.32755226454903,54.655561837984095,68.83107217543342,70.92353497794282,63.26001969759814,49.16131102408999,36.840047831096804,32.256736518621494,33.02670429703378,31.79295051053354,23.879515921109952,10.979652917873473,-2.021005124436883,-14.31982587467169,-28.53525552394867,-44.897231056526245,-65.68085721951249,-90.92987837537314,-100.43545654819647,-69.61680527453096,-10.345295116125033,40.35316558484801,63.08690373874116,66.20870117558134,59.60356650592758,45.51440371743792,32.38482377532426,29.6247028777605,31.737643669308998,28.20704299637771,17.2925656295231,1.3122294404554802,-16.208032929463396,-29.95181627242603,-39.28115004029188,-51.96504016971575,-77.02534841863418,-103.22374757853208,-98.55181952981769,-51.19217127952512,9.184487767401652,48.756720401299766,64.12418493662787,67.48413001563762,61.717458674812846,47.25068948526872,33.47828141121086,28.07438807819233,28.12326884285465,27.009920791754165,19.856368942336655,5.822900162747351,-10.91370982359577,-27.60670171713556,-44.901584233288155,-63.81965510367905,-86.5931635217934,-105.79478494956547,-98.29905656558965,-53.844201600496326,5.098931474628804,49.55879267746528,70.75193128235787,75.46390313572098,68.73588828782563,54.174695246641946,42.06368699483354,39.07238534412578,40.205619984650475,37.98408296096342,30.422947638027235,17.75697320173741,1.516543823399953,-15.078002379561767,-31.335715295071935,-49.72931204108981,-73.99307125929991,-101.87265599717054,-110.75183954278982,-75.15261260383849,-10.234675501279666,42.627877415583015,66.19629534960217,71.28657943381391,68.22262574730128,58.11955878520566,43.81127396196157,32.02931768168801,25.727389205486446,23.50206574304221,21.96358192684785,16.15739007724643,3.0300096958650946,-14.14647351034356,-30.47976677355555,-47.57550798109575,-69.21945572799085,-91.74918052538295,-98.19963531704664,-68.79458141749934,-11.22604649815233,40.60921782829075,65.53814773734554,69.05691187094267,61.97239794960479,48.11225612689134,32.26990397050655,22.616552727914925,21.49049265286762,22.004941609453073,16.930761981877197,4.7681887691122,-10.117687892071169,-23.840590940969303,-35.84216417469759,-48.94686348768091,-69.24396005308253,-95.78520675443491,-105.92605230708439,-74.33928953541556,-13.056818186656834,39.50851852459216,65.0073091117068,71.32256428055037,67.82621014038763,55.97079394654874,40.714607049879724,30.654291025849638,28.14339446276024,27.70748412358073,21.833110396914023,9.714690258325474,-6.353983311020555,-24.889337978747108,-42.067863592714204,-57.16745593519853,-77.26324880491622,-103.16194185567788,-112.29252320082911,-78.8477886193501,-13.059053851974229,45.295112150856546,71.72864345337847,74.89990003436762,71.79048879610046,65.28853304657508,53.844651159993745,44.327155700871955,41.198093668304494,37.355148204682884,27.940658873789783,17.523085624373657,7.889445715850567,-5.390021048607511,-23.211821543256534,-42.21138641797257,-64.30928311188957,-91.38732307092715,-108.93833487731037,-91.89467053326946,-38.54722955563632,19.806105068844207,56.12273587217231,70.71453036540186,72.7642049848494,64.06900411519293,46.73931138990428,31.99581583238148,28.414868747194006,29.185399090452368,23.264575845034656,12.625066364820688,3.4468653948598234,-6.099451400125744,-18.86527978625797,-35.33775608399263,-56.27248011740098,-80.53777327519344,-98.51867761539377,-91.31375493775846,-49.54209232600973,9.344231812776403,56.17913679987966,76.13442478027571,72.33436979268743,54.61598888516806,35.18827766164602,24.47332793486757,22.27841291918266,22.507350549489267,21.566829785435743,17.111993379280925,6.563211743959933,-8.010296745320135,-22.917536714402473,-39.77787235688217,-59.428316634200684,-80.28291811480585,-100.01852899808516,-104.24123252848489,-70.80986660353138,-7.172807925758408,49.24019888199159,75.05336149526322,76.9856720724017,69.61191534973082,56.72969415121316,40.706874739250864,30.93797807472907,28.62745276453525,24.99144457826099,17.36324486188662,8.71042325725677,-2.2631334813493744,-19.456097985920984,-39.67174767985518,-58.02200553105125,-80.43849451569297,-105.04945351224926,-104.92049516176618,-62.001537561113764,0.03338584602060037,45.866227956235576,66.09148761830781,85.0,124.0,82.0
-85.73936260555672,-106.37630479897159,-88.58027500191835,-33.201437964677446,23.53618649333724,55.13229623464559,65.95822251456516,66.86647552312107,58.168862945924396,42.676057558866894,31.00961053402316,27.83272354469289,28.178767403785702,25.709700032861956,16.38810953931419,1.0470030849574805,-15.732140152181668,-32.5151136926233,-50.102255996109825,-69.98695637849382,-93.34814681273028,-107.42507534876458,-88.78795739563955,-36.80832754588864,20.283308607554172,57.89864799318707,73.450799533367,74.62462772156681,64.9887652696032,49.916118792622534,40.29332278913354,39.37845064287081,40.099262115862366,36.33662550243847,27.271266333659515,13.291381287199068,-3.3515193435911064,-19.741423074545303,-36.27404819740517,-55.99231274936237,-82.21824887980038,-107.8858253256454,-105.34906861960746,-57.581453709597604,7.779153769273576,52.25914516540144,68.89089907354452,71.09283076195798,66.02325243416081,54.130225409880595,39.8960969678962,29.662680024288964,24.77766295534446,23.187473487060398,20.94792280036557,13.099895455471172,-1.7969331161404485,-19.025959025581038,-35.119730690086605,-53.317266900205205,-76.11154922025611,-96.32889194745027,-93.79015807746346,-53.75576400270104,5.831892406875173,50.720301010456666,68.1555073419503,67.83485828364223,58.55065984461036,43.39113216418633,28.532482049156012,21.607522733151505,21.856246911008935,21.32265257957969,14.014458677897519,0.5171506207402273,-14.287736298445306,-27.430552140703323,-39.28821910776398,-53.80909210513182,-76.83006810335793,-101.85993153550804,-101.47057469353612,-58.04739171491184,4.4941022022730115,49.61178979406698,68.21272340015719,71.177208743428,65.20305805459974,51.49715699016461,37.008445699342026,29.260321215236235,28.1967579498799,26.756142633500264,18.848614114606825,5.428796648709092,-11.581563063930126,-30.171157739312918,-46.44551839887537,-62.09023878393131,-84.6821871692971,-108.9943451747315,-107.43875355892361,-61.6067429568118,6.297508131639038,56.351324723098536,74.13523624999323,74.22220341455056,70.43374243824229,62.33853110929744,50.4856331255286,42.9120286659075,40.584696315593064,35.11049040190623,24.790571641042696,14.804996557051764,4.616638203414917,-10.229097863286443,-28.64161544600834,-48.0436418690859,-71.85293202345406,-98.58310975327366,-108.38968332316492,-79.2458401625216,-20.53255800343476,33.01316851944685,62.090678401821584,72.36927725747847,71.40333816604614,59.60693213346265,41.60842662838806,29.81622987610194,28.805471492888458,28.36120326998191,20.29792038964816,9.761608138687576,0.9229939667771767,-9.427208032929737,-23.214019224089462,-40.903679079414,-63.1340801216971,-87.12524299117518,-99.85119148952954,-82.54542764480483,-32.94598478963534,25.17999663265381,64.81674567928364,77.08661175922221,68.15512891547395,48.59108681045471,30.977738566299763,23.22675830078942,22.32491497844545,22.441532974167504,20.77868682904637,14.726182360853684,2.534236051076756,-12.300933679499789,-27.463296727988347,-45.24387155627237,-65.36788783118419,-86.38296703137132,-103.92553465919737,-98.98752112450164,-54.08387304777308,11.505488892893572,60.01176278614271,77.30696853819339,75.41952494747726,66.49952761375171,52.064432189391304,36.883919518428655,29.849004335482334,28.038422060683548,23.0693165087091,14.897377936827459,5.987399762576703,-6.542057811467362,-25.337019830304957,-45.0973203672432,-63.71304826620803,-88.12727364551277,-109.00446249355774,-96.63256443446981,-44.233168131547075,15.96156840479816,54.02253865425619,68.64223514796885,71.55891242172208,66.08234521031544,51.94145800722015,37.76268072092423,31.572010645440514,30.138983875051025,26.31808625880627,18.699500006642477,8.375150149421186,-5.6240955478973165,-22.858364364566377,-40.816123394990626,-61.695597061753695,-88.10528404607278,-105.68644722065702,-89.04285371818176,-36.312879819578754,22.405806491067427,58.77158018761435,70.51938043281052,69.01846002677613,60.835835054341985,48.73109383376435,37.9701371086804,31.51882548520016,27.19089180210535,22.37085485420747,16.1815670257361,7.197690431344738,-5.782244842052253,-22.84185078980911,-41.84751747143585,-60.71652647537694,-81.16322444205927,-93.75909823271135,-74.96366257801385,-22.336872442553975,32.9117881447636,64.10703010181109,72.61266427116081,68.59679179534444,55.52219068012322,38.560364311713656,26.84729593869204,20.921809984938008,15.278992654778174,8.138815138060714,0.19279257656798482,-10.069069719821963,-25.345090302538246,-44.27921698651002,-64.46996992023324,-87.2065038075004,-105.4439549608852,-95.80651090092633,-47.401854353335196,14.0506937513746,55.64547675522787,70.94877098825086,71.30266017833179,63.00506904134224,48.894198091066,85.0,124.0,82.0
-85.98867886266781,-36.956086510406436,21.479985022842946,58.37069915221977,69.32296098879695,65.91428445035027,54.60471514647448,38.67553416835712,25.525191504474783,21.251428945469975,22.137122982263765,20.027912586017315,10.549320298363037,-3.824520127519312,-18.297711991123908,-30.891471592755178,-42.928646632125364,-59.45923808686333,-84.76347147192266,-105.7598955582119,-93.08133640538338,-40.06973710022155,20.356774443999253,57.36198106876369,70.16661954689228,70.33591124845792,61.87293012674989,46.95509515505888,33.922570750950655,28.47577891605541,28.212757769627963,25.202536862963726,15.40742114201343,0.8472789954979746,-16.967530156408557,-35.21718803750598,-50.71033634953579,-67.67914044683357,-92.43667119534558,-112.61286354034281,-98.56546325258341,-42.389382027828226,23.95511412235432,64.49469427994231,75.08879675141074,73.34587711628714,68.69899364779062,58.999979032711806,47.54464168075711,42.01957871085896,39.64330336526713,32.40216991161168,21.724464776884982,12.103511584595315,0.902418573887809,-15.381414561834351,-34.09271678570712,-54.26933789592431,-79.78926411430668,-104.40576984025711,-104.34353888677539,-63.92422646951409,-3.089502620372217,43.9832571953516,66.49877120918362,73.15195327472958,69.10424063862942,54.55196725661295,37.055952267882425,28.658409082923253,29.226864551991863,26.78029068998921,17.145071211048485,7.106813656778288,-1.7523755733934223,-13.049187019528098,-27.883946004569804,-46.863852423255764,-70.21822500705338,-92.83082534306276,-98.56160916316574,-70.87400702244639,-15.623540232258366,39.32944564674804,71.06716412952561,76.25500271578261,63.06806237589291,42.755187472248245,27.680986548850456,22.564243261792704,22.426711374611955,22.230998264324334,19.62692937711512,11.776996315690155,-1.704352431680705,-16.571707308712227,-32.26023000216447,-50.91008760609345,-71.38125842150092,-92.3156875626085,-105.98364961494075,-90.0894451155427,-35.49258875364278,28.560546388117928,67.98190877359988,77.97790802151857,73.3636593231709,62.88865416977236,47.28574990379844,33.848306433578124,29.238740232089018,27.105937502785864,20.864852466504548,12.418637934057621,2.966391199835777,-11.420016637224874,-31.277120942782005,-50.324329172646976,-70.01488216993155,-95.71148081458135,-110.00712892301125,-84.68233347374498,-25.855919213300364,29.816195299560395,60.134197008659456,70.30098095928155,70.95176421228986,62.67834932661042,47.32489164400142,35.08422610232382,31.034153843088728,29.470406393199998,24.43647559641235,16.00235838893904,4.7641758437543835,-10.393854903431077,-28.01422927802823,-46.294128006816045,-68.95556897673806,-95.26403676513802,-105.20780207862545,-76.59503955867143,-18.319719035139357,35.811562729884166,64.23430985831622,70.99564421878164,67.23266996979395,57.55749324784281,45.236525451898395,35.69615468809332,30.19930705144663,25.907444084880094,20.759975092314317,13.953170628393785,3.880057803603571,-10.3271780689072,-28.29463727103687,-47.2646146233361,-66.47531885867177,-86.58771968766197,-92.41342841749616,-62.279926245134156,-4.979391922542145,44.812653680729774,68.36121956068207,72.4766709051428,65.66267407659194,50.5929866456257,34.37422103618685,24.78827030393263,19.44199802481921,13.33533239514283,5.928165197146795,-2.3897807728055613,-13.924357878552685,-30.608347207135964,-49.96687193272144,-70.75719238293279,-93.75660747446953,-106.6302546930151,-85.29706643767972,-29.244452990810068,28.98596194693539,62.35484133121534,72.11375734512582,69.72529569853272,59.28122299591568,44.6822017256413,33.08645041815885,28.00288804205506,27.830263318156657,25.562054884042247,13.679323291043548,-5.765799064152399,-24.892651676007752,-40.30649675004589,-57.656935462213774,-84.24562942405669,-110.72246525413892,-108.42468833275984,-63.53119281009959,-0.12403425584782979,48.01841576664882,70.42451262410432,76.52871640221862,72.03625919867397,58.91778909939984,45.86725427366449,39.559914744512426,36.11039511348874,27.627464591712645,15.001635676721552,3.0661636641292174,-10.84614360552375,-29.162300895478733,-48.72912504039895,-70.14608390461406,-96.52166234443956,-115.84258223785902,-101.46719471386155,-47.04659750208502,16.210266518878612,57.294056999750126,74.57610835645332,80.38860073735299,79.34125004952145,69.73589026025131,54.92108008475801,43.720098855033825,39.57001739664625,37.02520806331431,29.017359025473528,14.973635584844802,-2.3283086633017467,-20.90145946466446,-37.410077808985925,-51.58692380368889,-68.80138708355423,-91.61243644733601,-107.80494101647584,-92.66420856400339,-39.70368528888334,20.72557802278433,55.37265335834621,64.9078835314235,66.53312553155646,63.75119662241169,54.085308286268294,42.57565844423535,34.92356242267337,85.0,124.0,82.0
13.002621901526496,52.761554323925324,69.63324488013073,73.08658395015844,65.86387650708738,49.205289106787326,33.35996785436015,28.348440676982843,29.32693923160981,24.50388572413947,14.016732193080504,4.591064469619769,-4.663880205958018,-16.962453810519573,-32.900959461231146,-53.217403786039256,-77.32870573065455,-97.14553099129712,-94.31589661481229,-56.729283035127914,1.6254592476499998,51.39148365197469,75.0305277980646,73.88050038682157,57.36538425276876,37.41419936491243,25.292057110944725,22.307047572727605,22.499716143267598,21.830867950543002,18.02431358592914,8.30967657635391,-6.020570660397706,-20.887409327916814,-37.34124165039402,-56.71691457962169,-77.46321112324316,-97.77927642876332,-105.49815423627977,-77.63492055915064,-16.091129969471673,43.32550758671661,73.35496267344979,77.4956148286022,70.8923562483313,58.775539361058634,42.6849220004979,31.66881697302455,28.82663367311643,25.754776551670012,18.48888328930513,9.902747174398776,-0.49013709457565763,-16.82620609133759,-37.07939619143372,-55.54471667083883,-77.00912232036221,-102.4585797891349,-107.42201969846907,-69.69394223552098,-7.877993768393355,41.34598917776646,64.53648863606249,71.26287107424652,69.5845302905592,58.603150294830414,43.01352861980136,33.17595348454242,30.70008269635654,28.458764505792725,22.273042885927502,13.09096506463064,0.8003577029464101,-15.37762459196857,-33.17144013051004,-52.15587447535378,-76.67927455990561,-101.09402959440992,-101.26438193825129,-61.47893496606601,-0.779635835880839,46.873520514534604,67.85203773457077,70.65760729208154,64.9581757958414,54.029130043743855,42.01270967435716,33.78882183559067,28.971544829202248,24.539596760425084,19.024286140770773,11.440661854509731,0.214843067173512,-15.208752969140786,-33.81957685367506,-52.66220734717649,-72.44139911466256,-90.90099168543068,-87.82050378968724,-47.1187731374029,11.607622067740113,54.321573838110005,71.0081543940783,71.48488588016978,61.993175902784365,45.54987563885742,30.83630220438919,23.093624925402956,17.858437196516206,11.2784679108591,3.6652348530807757,-5.239613245275226,-18.2519579837856,-36.08284317715436,-55.73922116213837,-77.32658808041037,-99.58285171812453,-104.78111029120168,-71.61977950710155,-10.963923601924762,41.620062933556746,67.03155037792658,72.34513580296718,67.46514107742931,55.17791811661298,40.7545192523949,30.937417584044432,27.640112434523367,27.827940795772545,23.234746332320217,8.509067696439036,-11.638967297840471,-29.637123505608997,-44.69878267274711,-64.32078746255696,-92.98565289460788,-114.29262674045788,-99.41109470142877,-45.41201411876317,16.38848815113942,56.88174095058698,73.39502316457452,76.31406645318447,68.86199097679977,54.685867376840804,43.313604633741924,38.67588042141898,34.35936024385466,24.11871525166278,11.447939548246303,-0.5098276579021089,-15.781313077898696,-34.80889401468358,-54.51404581991379,-77.35016960507413,-103.93572243584164,-116.18240444728701,-89.0292018559013,-27.857535299298746,30.9839438175493,64.19796736358991,76.99957177492698,80.85668448811529,77.46228680288502,65.62666692709124,50.96920113494432,41.90716048214096,39.04128179887551,35.44963525850013,25.441212486190175,10.228963334900646,-7.689765144334968,-26.020298531015317,-41.5752198980981,-55.976575493301404,-74.98954751840857,-97.99607113227114,-107.61972175148199,-80.5058135847767,-21.12239775776505,34.07205852511598,59.8839363771029,65.70162936702299,66.37119654961803,61.59081030226079,50.603852658243454,39.857918922677605,33.64151833186168,31.893809666181998,31.14449307012816,25.68583318358879,11.620387895796037,-8.623380524417348,-27.943974031033044,-43.042170248475976,-57.134780182577195,-77.05050513167156,-102.58024780844264,-113.64363183081771,-85.31300515153843,-24.762320366094148,30.070984767861805,55.84553995190327,61.61319360072924,61.43289225978551,56.35453592786699,47.314154504992935,39.838807897612135,34.408382144029396,26.932988058976953,17.41041181188097,8.411138872266307,-2.495528214823012,-19.11657862965276,-37.020204339599914,-51.684503355387626,-68.37365237119933,-90.14014991040715,-102.54167661816165,-82.32247793786695,-28.969056238558235,28.366769599905115,62.86139656063532,75.81123165183826,79.11016470467888,72.28342100775322,55.4058048806655,41.218151610325855,38.24964641200047,40.307433368678566,38.11280520445994,28.401198367885783,13.732715599078903,-2.721021912910602,-20.979891758494514,-40.928161659718434,-59.614695150800586,-78.03782355643595,-101.62110682611824,-125.63017280369345,-127.05098057509758,-85.48013901926376,-15.19747401232891,44.927835307384306,73.44911252160139,80.05215967570071,81.27968612493227,79.0467128718983,70.08267067532124,58.2680071814312,85.0,124.0,82.0
67.59291974282898,71.60910462404175,67.38324990457006,54.08963193364484,39.25799799084459,31.950398095107342,30.353953913206446,27.076279164090053,19.87518240432862,9.929802144824839,-3.5201592210733645,-20.484869076530885,-38.37420448720031,-58.54680070046424,-84.55449559841945,-104.84955650075148,-93.70858789726702,-44.50647916617261,15.50121096248069,55.54588943605567,69.9628011094852,69.66678445839285,62.231252530952624,50.39618957524363,39.15322712509445,32.181479719674165,27.760327626524102,23.077792459487465,17.125642581812034,8.612789876578807,-3.8067338836342217,-20.380005797285875,-39.328429046815856,-58.13678256804363,-78.45903588081758,-93.40669650159995,-79.79315161616637,-30.34339313173953,26.65266370444754,61.51168582767726,72.35762033192131,69.68952768322053,57.68246830857024,40.6768171386568,27.965356408568127,21.592046065921622,16.128270012230512,9.142549280517553,1.3184449010258037,-8.447738050453578,-23.019155106101405,-41.676610826169295,-61.664019830741616,-84.08679629445359,-104.04408981506211,-99.46984026441551,-55.45182831021283,6.497998814776644,51.783121393933776,70.03167543803583,71.79659303167585,64.55085861822681,50.88281860882559,37.25308231450721,29.35736444952134,27.614509453165326,27.407424746661718,19.979982363074345,2.8670519874465947,-17.280949334207424,-34.07367451825309,-49.47825924634957,-71.89861369775895,-101.22967071379026,-114.64429247871703,-86.85926969774691,-26.676383126722303,30.915462872742104,63.65049764581644,75.31643032919975,75.22248941344762,65.06740270560549,50.7338732309933,41.40406358608823,37.819029889667085,32.02573629769424,20.41330004709466,8.025554001069139,-4.403354671908564,-21.062981738018134,-40.458473333798096,-60.55607469907833,-85.01874318521206,-110.23025037009985,-113.0003021567375,-73.49522885804988,-8.988754523600416,43.39807308441638,69.36833246148872,78.765662274388,80.73756690532404,74.82102434180594,61.254743543114465,47.550202058713225,40.664725922345816,38.44449835836726,33.27687302884096,21.43187097955844,5.263054490793674,-13.10256902212565,-30.868254132724513,-45.608947281396695,-60.789014189571084,-81.63642997036433,-103.33280852286958,-104.15986454363271,-65.39163376446484,-2.986757828707481,44.6817631726355,62.707302366269005,66.2057885104296,65.74323649044281,58.84331505904671,47.172334918082676,37.545517484512644,32.75389931432643,31.821505376475432,30.290931305092712,22.555119997553824,6.105032396605316,-14.57466441641576,-32.70908296498925,-46.939048080220864,-62.01895442595467,-84.32764554962193,-108.59535388665034,-110.04656795067541,-69.7017209546545,-6.635772356208503,40.57753013347156,58.738375257500806,61.919602502083166,60.57325593005385,53.911678275868375,44.81214619394841,38.23648869930246,32.58304038309332,24.247685102806834,14.737202226123886,5.702128541535833,-6.724207746571204,-24.519671555490355,-41.51208692468148,-55.95018952636124,-74.3846582225065,-95.79351322843338,-100.75305577647863,-69.40875407905483,-11.223535475879348,41.172064366100216,68.17783480656102,77.52306917132549,78.40942017978996,68.05368437576973,50.36896291945731,39.260564926463545,38.802496131957604,40.394407973034134,36.043449635889715,24.487470615901476,9.104520693310926,-7.758901810208297,-26.673407329839193,-46.565626308992826,-64.716856831639,-84.19090252266052,-109.22975643429734,-129.64342539974717,-119.63378404313835,-66.51223973448353,4.804931525430784,56.46116484250624,76.71651558081379,80.56902149608236,81.21648135447765,77.1154611130684,66.65980890795907,55.24337588592126,47.98103394479305,45.3726916902045,42.55082917942234,32.96650972923202,16.79457266970963,1.647080787489678,-10.240704351973374,-24.989207280775204,-43.1765687282436,-63.27929042584061,-89.80648967741378,-116.63225264245307,-119.18175474524178,-80.70525333373587,-19.19485653105114,30.681504628471632,57.7702746060762,71.65303975362292,73.96901252979768,63.57985166134552,50.83224330943673,44.16321913285914,40.32512533239084,36.92646941719087,34.141055289063054,25.96209725202683,9.056662081669643,-8.688388071103644,-22.32385953162984,-36.64272011575535,-54.593610909216814,-75.5989755050481,-97.93487751870018,-110.80754408009165,-94.6043276476675,-44.462700839799666,14.563215395487266,53.71335796314847,69.57603408444116,72.01872055198517,64.6782934678104,48.40638136111955,33.14602132939983,29.886637671409492,33.38612078896853,31.781287168911458,23.062873549669092,9.326989055475952,-7.993570123347898,-24.584748577892334,-39.09828914830534,-58.08379905077369,-85.95587625678365,-110.11038814609901,-105.65281231704748,-62.38722114368055,-1.6606822815349878,44.53660198930779,65.41773549032867,71.92071983231872,71.26353272138998,62.28603954542556,85.0,124.0,82.0
46.59899607730539,34.27152411949962,28.315821346053255,27.762331011936883,26.330996858682255,15.847432887414088,-3.025643788570657,-22.57955145641568,-38.34208541061307,-54.89082918744892,-80.23714505178027,-108.18403591532075,-111.28617649408329,-71.40336803704785,-8.268458343673382,43.16396430388062,68.6342088579812,76.34119904530552,73.2400811041634,60.89374484823643,47.26492776711488,40.046075573745185,36.74125594127386,29.126804903537828,16.68843111917112,4.647305311759037,-8.711093489650255,-26.57600194270337,-46.108436598840946,-67.0042518628006,-92.91520792152558,-114.64916975370275,-105.99164738000508,-55.71716737419479,8.669383455371964,53.42920537569799,73.1794313738217,79.99370520582178,79.94990011358902,71.47878260983846,56.87358486197948,44.77362583392042,39.85089813432071,37.571134616700455,30.49415796351823,17.07773957136097,0.10453211620808955,-18.470552028055792,-35.412405878721955,-49.66367566036357,-66.13843968808536,-88.48974550891815,-106.92892552683003,-97.12379471250517,-48.119594819334225,13.722175730256012,52.57491060596845,64.38681278648913,66.48919142257108,64.52877690966208,55.65249506834933,43.95433703633365,35.653832763751176,32.216621465897816,31.704934556518975,28.903806009435954,18.640064787281197,0.2196475661822822,-20.270169688418463,-37.108002086205545,-50.88548858716254,-67.58073442240558,-91.93077309644146,-112.6834348285541,-102.65789578006682,-52.03843242676487,9.952317887508874,48.45033924190866,60.43356137121401,61.94884121189895,59.218112010280414,51.24713421850016,42.579805505763346,36.72633707681173,30.48572456000245,21.462701046456296,12.154262199504627,2.701440471188838,-11.482343221898027,-29.81372518397628,-45.71662250149879,-60.6016157706749,-80.79068308418528,-100.09551188612464,-95.70429493609592,-54.075532091687236,5.93398790872906,51.63378277760319,72.02794758325328,78.64705807263866,76.70464996763903,63.119398573817065,45.968371514956026,38.28947456330089,39.51138043314128,39.935549429071834,33.33938081417451,20.264483774363658,4.378977067709607,-12.982429065508294,-32.47148532915537,-52.00523083667052,-69.90989166926035,-90.91231509459227,-116.58535188358273,-131.03563319749554,-108.31806293079144,-45.92937066989117,22.95542056329794,65.17362369741195,78.64271020858588,80.94657429210889,80.74305054385708,74.59298350283596,63.166240607441864,52.59658994717032,46.86604781387327,44.90504426157166,40.662021221396365,28.700101380814836,11.98412599113662,-1.9030433314226523,-13.98741369243801,-30.070841421015256,-48.640687363549674,-70.15347203529507,-98.37368847086601,-121.08662575612358,-112.20527386040426,-63.68383379262521,-2.434211986527692,40.52458045977977,62.78748121895771,73.71925002036437,72.01799034434526,59.53253162650922,48.270048837447845,43.00515257417398,39.23285549766433,36.20013767688368,32.68406895357339,21.78810179798136,3.5705965439867593,-12.938407364616824,-26.142588130261878,-41.46716932245913,-60.371964484328174,-82.12938002661873,-103.45549761185383,-109.86900296995675,-82.99990068256872,-26.73794505382505,28.59383086467468,60.261347288063234,71.32222433405458,70.93655864638511,60.67547207432568,43.228065928827526,30.849128817048417,30.813970974230596,33.75035106652641,29.869072837138486,19.57343561332632,4.552780237948016,-13.070678757294113,-28.823227695412136,-43.738497707089515,-65.38211752410675,-94.36631358379618,-112.7571619981247,-96.76105410297117,-45.09348013500047,14.23101155175837,52.898545907175524,68.19401389548092,72.48460852415735,69.52739600258941,58.4362049444333,44.02924550658983,32.12044985511288,26.168002541558337,24.251607501193096,18.398058787646967,5.948703163002023,-9.388571113240818,-27.231913886826536,-45.680196181767506,-62.66999678631675,-84.46908468114455,-108.68652293714248,-109.94845332757964,-67.57772889821653,0.08218066320567084,54.348081607225424,78.01169744072307,82.16041058293361,79.30102369002404,68.72049092470728,53.16349469974591,42.65392652748318,38.4717656257487,34.128260167214265,26.29406135773293,15.18049493495973,0.268141180901556,-17.51017503885395,-33.61639097052445,-47.88999864886084,-68.24428045479718,-94.40352690000964,-104.7337992494274,-76.06719959549288,-15.559461384663003,43.24232863591349,75.75233451174908,82.8340540738761,74.84946170108803,57.38694037171297,38.15160480628992,25.84051904961304,21.30277460640719,18.60576186044557,12.563022417890922,2.157767376271496,-11.236703112220436,-26.081065171838297,-41.78558204689858,-60.34456791599951,-84.78293370472184,-108.60891589284267,-109.44529392032585,-70.2122466397899,-8.422168942685852,42.52726051246256,68.7959098223879,75.77335822783279,69.6897060288804,52.85472401867715,33.019770858516,21.58472885089019,85.0,124.0,82.0
34.18191004986877,31.952920872685816,31.393843887475004,26.8684226331825,13.986084027035533,-5.832144443047503,-25.6132341480995,-41.21609459301134,-55.0702198315678,-73.89457995361546,-99.3754940627998,-114.08455175755421,-91.56451510787933,-33.386667746669715,24.316001232268718,53.97342410571242,61.357298257306645,61.67995287039449,57.362084622883366,48.5348253706389,40.64253645267897,35.17357006276131,28.110374964138348,18.675003693696265,9.604328136958646,-0.7347485005993626,-16.649047643042074,-34.82842266599318,-49.79216474982032,-65.78613247267273,-87.26333639324787,-102.36028719271859,-87.2926610921951,-37.101311386468254,21.720379108309427,59.80253241615592,74.804536822908,79.13573999406238,73.92134366579144,57.841055342387506,42.47784952239143,38.12292193710303,40.12140051904016,38.84212422012553,30.071538970781948,15.828677996010832,-0.45131965464168045,-18.410497068972916,-38.27757709878096,-57.247135791017065,-75.37708815905371,-98.15442932048963,-123.10031413674962,-129.15640440274896,-93.40496776866446,-24.813359713384923,38.63568916038535,71.34382456047055,79.72403653397323,81.21380838622491,79.72410802560294,71.58833761604637,59.7653394258716,50.38628356882265,46.10349804233243,44.24674002182051,38.06388679606905,23.992544606545103,7.4864481414088155,-5.257553746478435,-18.14943138565604,-35.33634054693836,-54.29946036305607,-77.71566622139646,-106.6029781234383,-122.77537177411868,-101.64128740018442,-45.57007858268765,12.555526759056871,48.56003758931823,66.97811304319657,74.69704769775099,69.06856984437272,55.657142589754756,46.286643106169386,41.92125150804435,38.20484701833301,35.494858170885685,30.55471112047688,16.91883512762203,-1.700582059937701,-16.85549276510757,-30.184334984381955,-46.60008488059548,-66.39024792771392,-88.71306555795188,-107.77997323724834,-105.9887293211526,-68.72549093645843,-9.159588322508826,40.438409137839855,65.06376540440534,72.18461026218593,69.02538616297402,55.981276888829704,38.50612180831362,29.726378425841943,31.982706735059118,33.45309899923811,27.43042653414766,15.689794168711911,-0.46944581958941123,-17.947146551815468,-32.93601739050291,-48.98297193679768,-73.4382713150709,-101.94713687500014,-112.36959793059314,-84.6630396699538,-27.163846297316674,28.196493465497063,59.19485210247271,70.14631490402942,72.47567981146187,67.05422035872701,54.31180377907534,40.13552834889524,29.719012781764867,25.501939307434178,23.29196420598424,15.327504358800104,1.710854848569016,-14.25421956603916,-32.717963859986625,-50.583784660174565,-68.17061323051159,-91.96354284097306,-112.83385855701687,-102.19648746673245,-48.891099919194396,18.554075489915107,64.20871731796913,80.41573358989083,81.90735577786582,77.16007275941433,64.29158405442762,49.28959922514586,41.055246500677995,37.48746080790798,32.23745793303347,23.41318443699655,11.299173060768732,-4.737702854730861,-22.52284994344686,-37.669493451486844,-52.7921924688761,-75.78929994251858,-100.32773642658944,-100.8906634338141,-60.59344945483707,3.150008195671715,55.735420976078096,79.9128372019877,81.75031267406298,70.5524239944818,51.54837154646349,33.661489047025675,23.92163839416982,20.64333164283123,17.315217759759076,9.972296477771616,-1.4896736383391,-15.422584618671461,-30.51500764100343,-46.675428245183554,-66.79674298854744,-92.45400474980235,-112.41501687325552,-102.1765238955911,-53.106126206549774,8.546655537392157,52.610657283027116,72.41051609175535,75.23822118682122,65.77583778857672,46.857040392284446,28.55952358074546,20.221396958926587,19.29219968299073,19.69780921126766,15.857520063148788,4.782490703111251,-10.50671209238813,-27.525306437473596,-48.56307091168778,-74.66140186244284,-98.77363697222941,-101.72858875314265,-67.12664549627479,-6.352965674139162,48.02927715198019,74.09355789754555,77.92332257109433,75.46515311693936,68.50329051884691,54.61408105072495,42.09721070224024,36.1221345072135,30.745752991567834,21.085079621864487,6.182690101048992,-13.403086700462797,-32.831630043884665,-49.36343288996749,-68.62849511695967,-95.69689819076922,-117.47507702179033,-106.8208203470934,-55.99149452955376,7.683601765301873,53.227951543523005,74.50768930515338,80.21590385979955,75.154751373991,60.840976281738996,44.63416915788775,34.03489568305054,29.984540583243948,27.54106116743262,21.46630360611857,10.238505214784764,-6.475122116822558,-26.02672347458456,-45.78585046423021,-67.896767692213,-94.50933872380645,-117.7979178491046,-117.54421958850011,-78.34068555728126,-14.722119782676865,41.12519457901828,71.68357776453576,82.03861257589759,80.6016503894335,70.63267351193532,57.67261527897928,46.65169673198449,40.26160885500993,38.232151593902515,35.52673284276294,85.0,124.0,82.0
56.59573901506522,48.635693013852034,45.57726589278402,43.20680115254115,34.734276736656184,19.06958587459091,3.395747054620806,-8.624920766631973,-22.743131722390142,-40.689209556732706,-60.325806626540874,-85.89257493667185,-113.83560336771853,-121.14836829267769,-87.91357752895404,-27.36309164723321,25.457087242737288,55.135478171367524,70.3747616072516,74.47962226960001,65.40849023633386,52.221991800311656,44.75923498878512,40.832865340740156,37.29783353655272,34.64230437513121,27.609924906530768,11.58973504315787,-6.586179342233159,-20.60287515062491,-34.52874839156349,-52.011880397858924,-72.64320791794738,-95.12566264690206,-110.35937406336728,-98.93386177321194,-52.430530664839964,7.435057212109773,50.02531236629579,68.42943057383883,72.25017206477709,66.24959579676984,50.83839543391361,34.597733721913,29.644600203612068,33.029852871203786,32.46154811479814,24.537130886788724,11.41944153653775,-5.617162443837092,-22.55396241739888,-37.1008287341962,-55.01138614018102,-81.97441326959282,-108.01377286143156,-108.5852710155351,-69.89534929569969,-9.49309413074732,39.918449281967995,63.77458813441017,71.48347453051598,71.81144275154044,63.919013286023926,50.08504887484132,36.564287509299284,27.88502188345081,25.041736003314092,21.77643447079208,11.76297922196812,-2.6766363598224365,-19.37385613334426,-38.129291657706595,-55.38999829280825,-74.30787890564059,-99.38672532986277,-114.22661245398287,-90.56363146437455,-28.97816881470891,34.980672548019044,71.44417100449962,81.66023256388496,81.22951771225667,74.25555432876745,59.657729921878826,46.07940506763316,39.87023798910789,36.32309250151134,30.032297416994915,20.274510586939215,7.067693347217134,-9.916848626525349,-27.25923182090889,-41.6630899115257,-58.458336064381825,-83.6215162564343,-104.19626329376213,-93.36746681599747,-43.03676752511392,20.78575998229755,65.67932657315943,82.20557127930391,79.62578288343684,65.55557132512787,45.81758184271503,29.919083913805046,22.576798678159225,19.9541622593767,15.664213804573714,7.025165531775848,-5.3374674860701035,-19.70219194621564,-35.01198926528691,-51.89585435649744,-73.79915923621986,-99.77036708879842,-113.5942935653472,-91.37833108163983,-34.93629636390257,23.855818947715985,60.57600470824141,74.64415949118164,73.70059366979083,61.00384312634875,40.90864376172948,25.039026949903157,19.481866987738023,19.517609275891814,19.25802637669998,13.364169146367606,0.5924358436423461,-15.20776934751598,-33.052417669844544,-55.68917735110217,-82.45888884424939,-102.84119361921056,-95.72514119662189,-50.96955570062235,11.460355773554875,58.709065128741706,76.67289022341129,77.44929019578687,74.17439310815257,65.01116263218523,50.3835036383293,39.830209179755656,34.84430997389674,28.457136219966255,17.351860562640802,0.8648953249660617,-19.289830014931596,-37.80845976538091,-54.25503431882903,-75.76998013305469,-103.68617471016925,-118.76461429424113,-95.5917005044091,-37.22165708620933,23.48556171164664,61.56040588521254,77.37973094942053,79.84386357055128,71.76492260656485,55.928458821332356,40.81711101675626,32.32892047551928,29.4029118625267,26.28701772706998,18.77421024379652,5.9402619018324705,-12.026266715164567,-31.70383233544203,-51.753615684033896,-75.20717093217463,-102.284184960756,-121.1903565698118,-110.2279075930297,-61.07356833494771,3.4750195699481803,52.64626152804836,76.24618651643004,82.66824629354811,78.41419910872216,66.91697838034774,54.14391825465836,44.256452089965954,39.36469349942795,37.8328356850936,33.64788877173852,21.96970138142517,5.779573783533864,-8.744958574482418,-21.207530568990876,-34.300069935182066,-49.63546223268411,-69.67130835699935,-94.44262023229865,-111.34767522670707,-98.44611185039228,-49.260147635579315,12.256549717410786,57.46604971071078,78.38267349623789,79.28378350938604,66.81016640503778,51.252133594751804,41.10461795790557,36.71089279735785,36.084080865832526,38.373031429733416,37.028781069318555,25.429919596210226,6.813039784392329,-12.26796077498377,-28.90173331142339,-42.97041807812942,-56.05345235042936,-70.68750759079342,-88.44894044910808,-110.51585412976632,-125.44545898988594,-106.22833681385565,-47.513723137725655,17.56168075654077,59.16763175181975,77.08462384603455,81.83952758165493,77.3725965898782,65.12976195108867,53.89237184101026,53.00148135051383,57.50128429527676,54.87230092223267,42.619704073782806,26.781885695993207,11.375264019636067,-4.310679825381655,-21.98805614759266,-40.01649459126291,-56.20628836025608,-74.98691275380943,-100.43916145136558,-120.80111774774048,-111.63136796591427,-63.83135091224108,-1.0389123722528384,44.724878642716554,64.36514274905646,69.6647612724631,70.96727366167684,65.4669130077044,85.0,124.0,82.0
60.25614099592477,45.90539467495244,33.41025317716864,26.59858753671673,24.553994773657905,19.614107949898255,7.84178989606437,-7.225113382553959,-24.71726318731315,-43.35105744237827,-60.302106843291604,-81.12731663275218,-106.07203452618397,-112.1805972263164,-75.48878722869405,-8.924318138189507,48.869710515331214,76.38521914425658,82.12980897915905,80.04951470674676,70.61260619186505,55.13219697253839,43.580448577409115,38.89978590549559,34.89175769233658,27.535884673988523,16.858099641101294,2.4877239295040647,-15.13338653507437,-31.678076952368773,-45.83376067956257,-64.97215600382432,-91.18975969164394,-105.30895826553086,-82.2767149843078,-24.31633886137021,36.659205978139546,73.11696006513168,82.94287454346349,76.55922267916937,60.04045667327564,40.44692848441375,26.954375701356906,21.644166502712807,19.091785259502906,13.630570129222278,3.758569656363971,-9.34455750951743,-24.05465621964799,-39.61141286977326,-57.5588834539393,-81.25178615085312,-106.15987605397575,-111.56809943276026,-77.47829678561746,-16.650491324427428,37.13765710499487,66.60530481309014,75.67108914523223,71.17902883892225,55.53976582133937,35.35882778801971,22.4708501558206,19.197456375304146,19.722392163702708,18.321408215312722,10.249609424198393,-3.821750739157763,-20.047175067149134,-39.00549391329473,-63.220181676603055,-89.82084178795708,-104.5429983168947,-86.34477810602249,-33.24244799136506,27.863587598345994,66.73924895789665,77.82079589917325,76.77604980046196,72.36167198691108,60.971718372401725,46.57068013950102,38.09620389919617,33.40414520441678,25.763579131301228,13.159046949615535,-4.797842674883734,-25.001297577535514,-42.54790142511784,-59.60042861775658,-83.60931116693567,-110.66908719291675,-116.64249967643511,-81.18818683384545,-18.33458797656476,37.19967912345327,67.98665796618367,79.19955848518597,78.59071983280712,67.67097853417704,51.10302419592552,37.60036628206159,31.123370428821932,28.79106167832873,24.6356370551793,15.64547051667463,1.1754956046208058,-17.698280569459477,-37.37749368286475,-58.01880798984632,-82.90781691138754,-109.4613857838118,-122.00678141021321,-99.47234805442307,-42.46982328529062,20.225906482554134,61.89068227408711,79.41622775759414,82.43145885808691,75.58839381697558,63.11889610241031,50.86203634849048,42.304778741223046,38.78221647174655,37.20780441571677,31.079830243436806,17.439164527666136,1.2568579966353717,-12.427611417994344,-24.841431594284238,-38.425166649027666,-54.80759947420068,-76.5912915923671,-101.07825861080416,-111.52550055962598,-87.40733015835524,-31.222314226944196,27.763450418899126,65.89652873566845,80.44943442154367,76.67065371266898,62.12873379455323,47.60009135156546,39.37691804532913,36.150257724833885,36.58972724619417,38.78772867466726,34.772862526011004,20.446023502480454,1.139712037461807,-17.361810493774268,-33.198716708300076,-46.72834626118283,-60.04871237698568,-75.40469039982094,-94.47993190657594,-116.64975180889905,-124.4606217603694,-92.36705929357788,-27.538514950874756,32.50859431502093,66.27469712629508,79.47829591130504,81.49198535162063,74.42173711092676,61.2147235321579,52.46297813720945,54.34493709144438,57.84969612653729,52.11313609196831,38.13073357162802,22.251604356512694,6.970117524685266,-9.199335592090055,-27.32793844707733,-44.831246557884704,-61.03159552354273,-81.78293278560189,-107.86228395847132,-122.16572008401099,-101.31480165740207,-45.60750580328631,14.890767005228074,52.78541414590854,66.69213162101492,70.35011032645662,70.3987094064998,61.88402890787285,45.97193855204694,36.298907162959885,38.32486661367278,39.4207627902569,31.441613284723346,19.260850194551196,4.503692387596954,-14.182476115842743,-31.364456054425627,-43.00626958276255,-56.761963488415354,-81.6408227798802,-109.35297942959005,-115.28754079068243,-82.80353692404246,-25.71721481816533,27.589919036199557,61.00663836514618,74.50130486729732,73.50352710250309,63.67933372298175,52.99665834743069,47.09395728514848,44.40448237902105,42.392190705090115,39.21495707094403,31.91405788376968,20.94538671597634,8.028228638537746,-6.516598079112188,-21.582303503779602,-37.03275687090872,-55.794531205998624,-79.74815508715355,-101.97087492558448,-102.2648911846797,-65.76056237652391,-7.747981331766144,40.408635511204004,65.92815015062588,75.55136372270375,72.52068757589679,56.53937555055595,38.013746881172096,29.362560090830375,28.501046983302352,25.52771673526002,17.638076756983004,8.651172867624362,-1.2400607924944864,-15.241539718551119,-32.40868379129536,-48.38061052755508,-62.2708223296928,-79.87450129856411,-103.47792400867344,-115.15638317359827,-88.55351674079576,-27.362149312362018,33.38246594836326,67.30699438929128,75.64149653686304,85.0,124.0,82.0
20.761872665092486,19.217702871501896,19.768955265723072,16.785086796605736,6.6063279259964265,-8.373876001493988,-25.09925999926604,-45.4345952574241,-71.02544605133778,-96.26629758438456,-103.35681192829682,-73.82697551505929,-14.825383275521693,42.222922161375635,72.28315800536062,78.02772842861762,75.9342852170115,69.88546574212253,56.63223245407164,43.3563666605808,36.70710938838297,31.66818774545306,22.65847977516644,8.491535652641296,-10.669814772808367,-30.434166367488608,-47.19620200558052,-65.60255003910183,-91.86934001210075,-115.88071723258449,-110.7902415822259,-64.33759097910324,-0.2116820624690572,48.680891361361674,72.77561936482634,80.09614986739413,76.44189928591953,63.06884428717833,46.5748985848841,35.016308585104525,30.28802987081603,28.0001070530838,22.564068969277674,12.055745713621121,-3.988397668453729,-23.40151423935722,-43.10435062796018,-64.67733652799745,-90.84150374444673,-115.53168446876852,-119.73355447878468,-85.61696676890904,-23.417438454107675,35.036918756305106,69.02878685539702,81.44137860664476,81.36272412971081,72.27620367268655,59.36291432672721,47.8953538984262,40.80609124036556,38.39056695472834,36.17994756487092,27.817652669540593,12.697846239563125,-3.001281438780861,-16.004341418826428,-28.58261744221276,-42.76830597722387,-60.45835592461623,-83.84713631016568,-106.58623584374494,-108.64968653113304,-73.47393465601415,-13.01189367801434,41.36358566531272,72.32249798347382,80.97980711119853,73.12342075448468,57.48343735066577,44.537401077515675,38.055126227511515,35.88975830747791,37.30493844947979,38.65211889331686,31.577282038997033,15.052531285280626,-4.435796322179977,-22.221593052254626,-37.29136201629281,-50.46649772510582,-64.22344364332452,-80.42377854398141,-100.89871055164237,-121.68455890628397,-119.88335703243979,-75.52589587212162,-8.112178319255957,45.05083551875016,71.66277062518975,81.00214041869995,80.38140672208289,70.88509058429649,57.70111559109432,52.0472228872965,55.835607183366875,57.3259528191538,48.63162221478036,33.51865418930421,17.798238716238167,2.4903346327586173,-14.286115452849195,-32.60443388944439,-49.47568290906212,-66.26663869133124,-89.16328110971901,-114.36437203281442,-120.42120131163605,-87.85211563554392,-27.01613384347703,28.732375688882268,58.73666616337642,68.22651082859204,70.83504603858067,69.06279306943185,57.572291422420896,41.91163512588022,36.01380034978755,39.41218775504101,37.961386586581554,28.100162960670012,15.39666419176684,-0.6017733139478456,-19.643153295041987,-35.1906445329673,-46.195837139241,-62.75204356649342,-90.2665834409442,-114.47884952708141,-109.84929144863544,-67.55437513792866,-8.859530053186308,39.52210232747679,66.71917635670826,75.4711381786735,71.26788402731323,60.3047964989367,50.75392149147328,46.15231065583602,43.79876319361306,41.74128812164914,37.5924952706764,29.018538407227847,17.387628930006812,3.970316250682307,-10.880658323649198,-25.920533864886362,-41.95659640794288,-62.2374184837733,-87.02838425951893,-105.35731840894417,-95.46436054341909,-49.79550331709296,8.30154888747266,49.962101802222456,69.99840900414922,76.070829784603,69.0269097728036,50.73458671037962,34.27640229022034,28.759922365096955,28.19368711474601,23.61476070537345,15.01496896728733,6.038232905279641,-4.788253519653119,-20.059776311116977,-37.30852093947159,-52.46069335978146,-66.6391635509046,-86.40740296044365,-109.40563865927446,-112.07982745807756,-73.17114383891925,-8.101362664136614,46.362003003011516,71.77298014566497,75.22853938724086,69.27296905612434,60.115526722607115,51.148061632128616,44.36925454101021,38.985218476300666,33.43196916883733,26.26273257500275,15.189894431142797,-0.9073209965017821,-18.51598688379077,-33.06607104357558,-47.59403673018178,-70.33899530161462,-98.33555423617986,-109.21585731473247,-81.12609818445917,-23.495330357962285,30.266622558866704,59.59796631224089,68.21673687520138,67.61339707138568,62.3434712588214,53.22649389470882,43.95238782698096,36.773661917134966,30.967592232261914,25.144304495513726,15.78191884312334,1.0672419350685813,-15.17428680983602,-30.558396050627685,-47.221894233142756,-66.36622607264633,-88.16886254589622,-106.71996854575221,-101.07221846030893,-56.07253021848121,7.0420952059203525,51.65127206125952,67.55063434947463,69.58849485781079,68.28499332539894,60.06415575458547,45.51751178032524,35.65234154897484,36.162640053413085,38.05394763444769,30.226234941161263,14.414042403084274,-2.125906985083944,-17.123912905844126,-32.40023160532251,-49.78674411578107,-70.93293850342049,-92.3615889766333,-95.74862109351345,-62.96714283217544,-5.6294385540144996,44.09311652714453,67.57451972697139,70.2673581540714,63.814082928649775,85.0,124.0,82.0
34.59658791028128,23.933545674352015,7.936251838768882,-6.9873974092336795,-19.55789450933445,-32.45968841213903,-47.38978511172566,-66.64090833877727,-91.15973109349899,-110.35996802471256,-102.4452925308942,-57.2739821874781,4.5596729133132365,52.875380599353235,76.87558499291423,80.1119247983485,68.90307829931878,53.11787577755196,42.062193990892396,37.066561134158924,35.94863057662497,38.06677845311012,37.74756519903993,27.535975193095297,9.434185395937893,-9.843624361626357,-26.846667932503948,-41.20977550055869,-54.26384661466837,-68.59738871854812,-85.81794363776376,-107.50565016350225,-124.84319116645116,-111.425399160054,-56.62633228815836,9.906702386903156,55.223443924846926,75.64526850043761,81.74767294397196,78.49698656877035,66.97792119642028,54.88866990272752,52.53505803983423,57.09398953390321,55.8597109673907,44.60662836394775,28.896339534056104,13.397748392985665,-2.1240442393461807,-19.53399420862448,-37.724927271448855,-54.06382808851138,-72.08136343287757,-96.87786378811323,-119.26830720680977,-115.22445405173475,-71.84750118710534,-8.961439875469798,40.23074768001617,62.92084329450296,69.27988167790713,71.025639858346,66.81966640233867,52.83477817712828,38.78369601914754,36.62596854661676,39.989966340859894,35.724510685533104,24.59422948390508,11.247441407223153,-6.023022625946101,-24.771007232762564,-38.54014092942896,-49.88094700978666,-69.8056398329571,-98.70950356990731,-117.08060785304194,-101.02417317328634,-50.91569747224244,7.015277146346752,49.58925972619237,70.8870361928011,75.35979225348683,68.44187470352338,57.084177863911755,48.97757462031778,45.37793943461854,43.22560516857137,40.921357225246,35.564655501038544,25.874356586685224,13.690657349049923,-0.22123389732050147,-15.243717604652756,-30.320244118876655,-47.251621140278,-69.13176447916173,-93.86886229809205,-106.29209933587798,-85.43013411518213,-32.75282040520124,22.777705046170826,57.6229689594025,72.97970514875671,75.49326179072719,64.48736702733072,45.116199507460976,31.576336631655916,28.586648553012253,27.474148268885745,21.340169102399983,12.408765439812056,3.2793374011994816,-8.751127585311101,-25.055729663234686,-41.99606346325822,-56.407520175979634,-71.52785764058196,-93.38567396230714,-113.64162188250002,-105.23658421353336,-55.44402832659202,10.117148171952891,56.72628606674993,74.38429796514271,74.08830653005865,66.79237231585685,57.373504642487916,48.94815254929919,42.75459038231944,37.447241705359424,31.61505720190193,23.572971483973667,10.9976300081971,-6.09999876067368,-23.098290995050256,-36.886114287453246,-53.086787971867224,-78.55596120877914,-104.52381113422393,-105.43718235159209,-66.16815932278314,-6.152932474245133,41.458443663572424,63.668552364042995,68.61507054011736,66.56071925646592,59.99054236367432,50.379904297030876,41.67438060779906,34.99568982694278,29.396333642266057,22.990004968999497,11.988789579329676,-3.6831826386322493,-19.653581439261824,-35.13983683396222,-52.49187568328221,-72.41415689267961,-94.5224583018556,-108.71019405943667,-91.94308013786322,-37.91806497797754,22.97543456315829,58.7747745883574,68.78267938574602,69.55130416318448,66.85023965902735,56.12684019852272,41.67422668398309,34.88129594531238,37.20744501366689,36.981993132546776,26.122959904338245,9.487077973674143,-6.570621874754784,-21.410607157468057,-37.13789572112831,-55.4605370624779,-77.60051611479899,-96.30429410034358,-90.17512454168114,-47.580819734203274,10.832398943562179,53.70443534579212,69.87883983080268,69.03255171108606,60.90059056224782,48.19711483047068,36.674540840294156,31.63433983713413,29.26271118257048,24.285842017844924,15.391293371081495,2.4662763407713992,-12.51578470718788,-27.006628122056853,-40.79027926340231,-56.84958338738527,-79.25328153244311,-102.62040631614076,-106.03691132878339,-72.66760547847497,-14.310305399919756,36.93823791773965,60.604149034027195,63.32017284020367,59.25893359289743,51.56285019360455,43.33976488678926,38.79419666214526,34.33781085475704,26.99306039767671,17.791388338107346,6.026398855369855,-8.488674059739937,-23.566625158376585,-38.16798741343033,-54.95537067651343,-77.43496439146787,-98.89488221331612,-96.47935799795475,-56.56832331997069,0.716863057676065,44.18840201386143,62.888754866788105,66.35075979446974,65.64368511062216,61.22239799742538,51.61466931311515,42.77610430027664,39.73942790457496,37.89164373304737,30.129655916919393,15.26173052427845,-4.314805393003305,-25.247731630705772,-44.22576546495318,-61.90303069906245,-82.67375087339714,-106.79624780620775,-117.57572325955019,-91.71493264670526,-33.99490389171413,23.21374794548982,57.42838127350056,70.65746268629697,73.0354086709363,69.65776469032886,62.11595267794447,85.0,124.0,82.0
63.640289052330914,48.064305725102756,36.805804625459125,37.75382095323897,39.80110106938844,32.891081323510285,20.974783955269753,6.725833795019888,-11.607206237971258,-29.412494304750123,-41.60905450491116,-54.36377600904386,-77.75773550445294,-106.31945847925611,-116.62619595322434,-89.151930824657,-33.66924360782693,21.47991171574205,57.81216509684097,73.65688423936248,74.28673392032726,65.22912963015573,54.188967996435,47.61131154666268,44.69808168840892,42.66184269090324,39.8320620605585,33.14731403119525,22.537581861239936,9.849439537700365,-4.514640114759239,-19.585970473192816,-34.86360995402179,-52.9882500870581,-76.36034721207214,-99.74841251739696,-104.27912768925036,-72.52066753547977,-15.521430265751341,35.31975119538135,63.63656381022916,74.96648723502867,73.7372682453394,59.161891742384384,40.06635658740067,29.863423412221596,28.548898491124156,26.257660839741007,18.834922013297945,9.835799207139933,0.2636984130354023,-13.112550886353642,-30.10093941012793,-46.425729784247736,-60.377955524167426,-77.07835696138316,-100.39600416081532,-115.38785658587359,-94.6274798047895,-36.34416561727071,26.554652550325265,64.52259460233444,75.5180326270986,72.41179566032864,64.13858522925199,54.725684411219426,46.95682396807862,41.208318284894105,35.869515212462794,29.619507423830292,20.49153047226461,6.388559812834945,-11.278077234640307,-27.340433214552593,-40.88848919416852,-59.46740172320955,-86.95263602156932,-108.55649142874945,-98.02948421829177,-49.378404376343354,9.985466021251051,50.378023204725814,66.29517716128717,68.49813681733738,65.1311810722494,57.35591004713285,47.638299560816954,39.57693327067511,33.309641817169314,27.78020944291915,20.42231614783964,7.765705162939124,-8.423814550344517,-24.067287966500658,-39.89872387327148,-57.968834686205135,-78.7069120634322,-100.3382386710736,-108.00679247703134,-79.39788759443502,-19.1896212251101,36.56256820542926,63.62266932171597,69.34436338074352,69.31352485569715,64.66033466410467,51.81847911518672,38.54835521305112,34.977442196025514,38.010247747035166,34.910874693619206,21.53922155181553,4.654343183665163,-10.896626965403671,-25.780616124507596,-42.08439810876854,-61.50308611038912,-84.10869059938743,-98.11470342824697,-81.29595357333102,-30.80097113158162,25.835509193855774,60.931128732677614,70.77855239176498,67.25719991645471,57.565116638749615,44.37813248284645,34.55935938948288,30.985406501505217,28.200935655108225,22.138367219829448,12.0354272478398,-1.7900324858099121,-16.817209617620716,-30.994010922826096,-44.985833775485105,-62.602043516893794,-86.59634664742327,-106.7581148797873,-100.28593258863471,-57.085661177217354,2.6212790175195315,46.77854777025671,62.77870265490108,62.512437794059714,57.40332115358752,48.95266263978831,41.67013591840959,37.753331437219735,32.475438003845035,24.513110945185467,14.715841312728228,2.044629849977018,-12.892184233664619,-27.78851634423755,-42.59441246670485,-60.83885561569954,-84.52116449192758,-101.78334338377257,-88.53325492477217,-40.26950310202832,15.689715977498935,51.96882083150058,64.81364516791793,66.35406202013772,64.92067652094893,58.84552338803727,48.615013906351756,41.326227098065445,39.46640490821793,36.43157617922197,26.481448860607607,9.961739406803872,-10.399847151084247,-31.005755662336806,-49.30776227543582,-67.3848443884687,-89.63743904892905,-112.48235067775526,-114.42485709340389,-77.11170482121304,-15.930346471490083,35.750320094858324,62.93633817390084,72.10383722618407,72.5753888421377,67.8148005165749,59.522692279578095,50.473989648355726,42.16205721918418,34.60386571243087,27.65911986029304,19.704641714211125,8.017897562730125,-7.324525527729511,-23.78276806318603,-40.06050468430781,-57.37915147753034,-78.53978239147976,-97.89680999350395,-93.34096426722063,-50.731238712381916,9.037606173476258,51.87541717636748,67.75773062430018,68.48333625557126,64.2134594823465,57.49323892900308,50.13440612262767,43.86158663521449,39.13896669753788,33.64840784477818,24.535811136943416,12.15802043884813,-2.4500383917860598,-19.9646616979783,-38.80312868459803,-56.391350439695486,-76.25112887353157,-100.7024602432686,-116.09980060027435,-98.02666125978715,-43.86956249609236,15.578735822768104,50.00750082582495,58.294510109373896,57.346759017554646,55.1259098877988,47.36331520046922,34.47685279912582,25.381239920190374,24.69695360048762,24.714280898084503,16.567812706030384,-0.32557837849992327,-20.24975376926151,-35.875407432550496,-47.62970234947223,-64.56070310038386,-89.49078074736036,-105.55921510227093,-87.80642928916737,-36.560720784788614,20.00727989642448,58.78913614955602,75.54511142838369,76.83510703320847,70.36180366854262,61.00591055454453,52.28394645534557,85.0,124.0,82.0
75.52329888689654,70.33564745994285,61.391548375501046,52.23291318481924,45.15079309757598,39.687107645770794,34.22384372971255,27.388118525459717,16.969317522003884,1.448515645412841,-16.292941258797818,-31.299775725842082,-45.33060107152512,-66.7310112741615,-94.9609731959457,-109.7617485824261,-87.17109512492398,-31.691176729864093,24.348587224535773,57.1421453887062,67.80983895299858,67.97669150808389,63.311394372533606,54.546728510191485,45.06958794206138,37.629311710698154,31.695560579833412,26.02830660642519,17.36469777563922,3.227623233126628,-13.072119884096416,-28.492062571784956,-44.86238977737069,-63.662404371485174,-85.17400204609808,-105.07524161142288,-104.07154095710068,-63.95302188961928,-0.9437525620874955,47.508545808545634,66.63903238214934,69.55597015242454,68.72619859066357,61.682489280537894,47.454482041636574,36.33715382788365,35.70362886000818,38.22715915772118,31.89501182198363,16.688523364940814,-0.02501324237624715,-15.161099925037611,-30.276114337203076,-47.28681398950503,-67.89486103274247,-90.00522853442138,-97.20745679278019,-69.36145246742869,-13.520217236864262,38.854442997434845,65.93731650552255,70.61827272730625,65.0061504562493,53.885510994379814,40.87200639314901,33.03859616202097,30.379391112285685,26.84086005034267,19.65420286980658,8.346738299636877,-6.1402481810037,-21.030150591406766,-34.94296043251468,-49.478803994578115,-68.98117744370185,-93.72911732505844,-108.58494777984879,-91.23455809690708,-40.03872446898575,18.10471381770323,54.07691723807809,63.617145736486634,61.396679463945816,55.21553031176615,46.45890100928115,40.349334935018604,36.555477475486015,30.375551305460633,21.90210981884641,11.384386576007671,-2.14151833255716,-17.274937882526572,-31.975337058782298,-47.307584926588746,-67.27351915412464,-91.19073754687417,-101.97864673105593,-77.40784473408043,-23.343541280720398,28.83739399199844,57.68057035753464,65.83323273644683,66.19534705438465,63.78514234947589,56.061454315574046,45.89877142219441,40.40545510414502,39.08128664176014,34.345442693225976,22.275245289148074,4.334620796662498,-16.502900575617346,-36.534273567425956,-54.35080914161689,-73.25769877987456,-96.80214531724383,-116.42012914976826,-107.72451590892757,-60.38021828110185,1.1822168221484577,46.08527702504827,66.93598840903992,72.8750489085729,71.68653142910466,65.66348143971544,56.87859091571091,47.98351300136913,39.904412174175434,32.559597042220126,25.595354060417485,16.787122383263974,3.8602914023494974,-12.068866518385732,-28.49974525478989,-44.8322703493655,-63.04322038962989,-85.04135892124356,-100.17499830292054,-84.70363786704972,-33.56107645975289,24.21670566832576,58.91085080756808,68.8875913961051,67.57026103340394,62.466122702982645,55.336929689714495,48.158259219465656,42.377061278137994,37.798224904685156,31.435584425357636,21.217681408719532,8.178551753643266,-7.196075342333491,-25.44292359913419,-43.99221015373897,-61.62012382784698,-83.06533639660474,-107.16578272437094,-115.15822375213037,-85.18002820118662,-25.50815091669546,28.757342894101143,54.42107211699895,58.28240459321161,56.92694720497338,53.64886445916887,43.85897675430145,31.03421641123284,24.461787221552456,25.142771378711316,23.384171692817127,12.423928280947937,-6.131250695106147,-25.413041469349768,-39.34922805011176,-51.5803711091108,-71.27810191896668,-96.26266575009566,-104.62020772871598,-75.46777319653424,-19.386133149783376,33.54308147508596,65.71678275732235,77.11685442154081,75.50325005765804,67.78478664485856,58.28594970796912,50.249903208020726,44.95735867892781,40.62266162184178,34.5381819997684,24.28015761399385,8.621727469797067,-10.150200590141127,-28.393612224754317,-44.90687661527883,-61.16977878273852,-83.48125347886321,-109.98127293038858,-115.72188169255402,-80.72434169112638,-21.89784423871072,28.321062892207998,56.5923324090118,68.22374898151938,69.99758658530484,65.57414269001113,58.030822054770574,50.16615848443824,45.025599467219955,41.308430585855305,33.610759347851385,21.46891268464939,8.726893583828097,-3.878994392782605,-18.749910551571933,-35.59310245684465,-52.54827888062468,-72.28729837911074,-95.04229473910158,-103.41209496501087,-76.28627196363671,-19.607107619717986,35.54747920480822,65.61295929907355,74.54424334679551,74.2081517571918,65.41655393316839,50.01611239778775,37.36408356709909,32.50598194746032,32.36689752932176,28.24335626296871,15.134954047619043,-2.7191873975667713,-18.039358278345638,-30.866144972513954,-46.16016085416523,-65.62282472780808,-89.19027960427013,-108.5936345873327,-104.14906737627264,-64.84222672658734,-7.854065279902201,38.558755141664584,62.878884886451736,69.31624065988055,63.84456240752427,50.80495268963307,36.47814499570749,85.0,124.0,82.0
62.29883442266306,50.00286532089588,37.86174377479764,31.997983168876615,29.662500387245327,25.165936845354707,16.81912332155379,4.37430274582064,-10.510650239768598,-25.142796035607066,-38.92129927680717,-54.40129749575121,-75.91819313935514,-100.10647568251818,-107.56957337951994,-79.13876221016397,-22.397409965236434,31.543936968626582,59.02273192494297,63.55435917938236,60.00291100495042,52.75507380414947,44.24043495618585,39.261461853926455,35.103603167975436,28.093743898419252,19.13277457405406,7.779327949007311,-6.467091556370597,-21.598120915001253,-36.190704495228,-52.4281178487506,-74.16412573805032,-96.83155619891599,-98.99757865735725,-63.62142441498158,-6.668365528911973,39.85859332589488,61.59469460312024,66.27251020278752,65.86994427600966,62.15184864064737,53.03473803468678,43.63629867057516,39.89066003853983,38.374061641054844,31.607582222505513,17.5759632571157,-1.5437332942554074,-22.523778018738316,-41.84138243217746,-59.47600582216647,-79.5944582804668,-103.78524165886482,-117.89731919417721,-97.51489917403306,-42.4239217374165,16.71039720285539,54.300931442264805,69.71459873336707,73.09651233925138,70.38764161494649,63.275116817324815,54.24035785216035,45.568355109936434,37.704822983588535,30.563695589619606,23.38124525562821,13.496348475559119,-0.557384041846522,-16.83875820190885,-33.19351774724536,-49.745901890375805,-69.11115116207657,-91.09681529080487,-99.76220094589601,-72.81258228166728,-15.840294276537563,37.24018403840396,63.78281250378729,69.13996707745336,66.3801466037171,60.53742074114405,53.184516887664884,46.30499127395916,41.01921023291558,36.29972187302203,28.873504401889587,17.67154446629504,4.019286619817874,-12.214610728728987,-30.940402720476463,-49.044272092420925,-67.20619186071751,-90.23686217226464,-112.33443713122581,-110.80927480391038,-69.64599276140301,-7.698027784352243,39.31572916253145,56.95067137752632,57.95194112696243,56.4080219742035,51.553647997585344,40.053387625880454,28.177306880424894,24.23732874193507,25.35229309405466,21.225217385365454,7.6133203865469925,-12.000890263034002,-30.052401126073832,-42.631861374852036,-56.23364067402978,-78.59159239939981,-101.65924133219298,-100.29522153042019,-60.73697650978026,-2.5906323957570283,45.22514269095192,70.86119275583064,77.61643206853441,73.67949986267915,65.06393969887077,55.69887975819451,48.47022114789168,43.72960603112731,39.1570503145946,32.10034719495188,20.28575716547993,3.3336396797614323,-15.578367365970163,-33.34468731781591,-49.43726069311232,-66.69560322326161,-91.41791273343205,-115.18048025761954,-109.77649433901279,-64.64294448993854,-5.407512863033883,38.70040432769673,61.282645995747366,69.55920315161238,69.21470761563874,63.59203123126566,55.65348579760719,48.313257673678486,44.0506604525916,39.65649900996129,30.406234005646024,17.706539641677324,5.176026158225898,-7.878018136420024,-23.517888871316508,-40.48271527461004,-57.73843073149792,-78.94289258363827,-100.10480612171786,-99.63780506969759,-61.82220111929381,-2.014358681092796,47.12408453400303,69.70135100570656,75.16790222932015,72.64506203101429,61.28437139706647,45.693923861101574,35.14614389272429,32.31666657324382,31.966656478833738,25.35742663308663,10.098889550860667,-7.60189321834688,-21.764623747306427,-34.89488449413346,-51.321522080567235,-72.12078964068672,-95.95582025951954,-110.67503004429626,-96.16262107001603,-48.840485621223074,7.5820115818007405,47.832067002904175,66.25762111220615,68.77101715210895,60.62951444977412,46.46577308363005,33.121553124971015,26.216065564499477,25.521722658218458,25.639853806015193,20.441378382094324,8.276534482083195,-8.179396470558025,-25.236081328633674,-40.67065907474597,-57.67299258780405,-81.24073165747795,-103.2748819323431,-100.481841669126,-60.17331998493071,-0.9268751028064309,45.65365516487659,66.44282005698746,70.29418755938522,67.80756339717936,62.54672729833634,54.8733346863565,44.42658884463112,33.947150806502066,28.675767379032692,26.247289529456893,19.92262530399147,7.111774936203119,-11.819179166586453,-32.59552795650254,-52.393501504573614,-75.04158990709571,-101.5182010996993,-117.4408534812118,-99.06757983069123,-43.32006066022353,19.84108845659232,58.96498826652283,71.19406194078269,71.90346822098167,70.36999734675857,65.57244985397003,54.55387595057402,40.015957462956294,30.388275539124553,28.37191778073545,25.21708730577224,14.256979369924814,-0.7274394140712718,-15.274953249298562,-30.38980774799235,-48.03816376768007,-69.54582323658842,-92.10648209141428,-100.42884715982032,-75.5866921548795,-22.160240098327346,31.068211450712333,63.1262988478735,75.37061938039324,74.27811613233695,61.57049817811392,42.93263191888319,29.24946912753499,85.0,124.0,82.0
60.728636100442756,51.647392374985,43.22249948941844,35.567352264619906,28.58217085583249,20.933277958863332,9.828686933987026,-5.160505179059252,-21.597757803292357,-37.886576829972284,-54.89691303736319,-75.51981929463759,-96.11755179607013,-96.15826945223785,-58.187283770053284,1.4529799572118944,47.82979297689759,66.84542410597908,68.79153238910557,64.9490079743622,58.47409045974724,51.07937283129562,44.59683859777678,39.73147332261229,34.55484240121607,25.975375971567118,13.936814567221184,-0.3523347420043262,-17.475748310897742,-36.35511684952049,-54.05486456282909,-73.27522093392986,-97.46821673048372,-115.50352061565398,-102.87017836904238,-52.251233644769975,8.69372076618683,47.21506855895462,58.09522562011087,57.53713747068314,55.625420840012374,48.82066011847826,36.196655368339385,26.07457490152828,24.493336261953363,25.06773126559719,18.224800354956567,2.2709314141349495,-17.719329732380448,-34.150248653644326,-45.98353330529845,-61.73160933146593,-86.10672079283717,-104.94374351533497,-92.50822388231548,-44.40007932458972,13.199872887282416,54.958459074147505,74.3982715585591,77.24795956993499,71.4767518464631,62.28448068210918,53.30754268684402,46.91914990225847,42.51470467540171,37.482576566829735,29.256093024365867,15.832055390634784,-2.1163831198542584,-20.889310398054818,-38.14330877928499,-54.01491737219339,-72.94646099411592,-99.45888728469153,-117.80940272021263,-100.22161230376257,-47.375277287234205,9.63451180211083,47.19388779128049,64.80725474585432,70.18833676179634,67.99156995417104,61.42006758392098,53.317111239562564,46.768430051159676,43.07789882391944,37.54570957754461,26.897062741544044,13.9983471515831,1.5913504641172356,-12.123082920579037,-28.400754745777707,-45.34343083603614,-63.306397947923635,-85.74845493216164,-103.32755345613279,-92.50184214216266,-45.393098842193545,14.555594844842172,56.27899304150043,72.38633696899716,75.21980865381799,70.28420818219087,56.75787779054708,41.85161209386862,33.62157431868276,32.36696221869489,30.99439285794891,21.68300633246383,4.858978562668263,-12.114815077380294,-25.396286722313015,-39.23114950401865,-56.84538074960837,-78.95288175194487,-102.03843162998763,-110.19739108864239,-85.21837763530736,-32.07825585754623,21.50884124566434,55.20982183254177,68.327085886126,67.34149106894198,56.89018887235733,42.20176885203403,30.345775133917837,25.548570058872258,25.78017163723745,24.869503117934542,17.572527444863557,3.801748167383224,-13.20448394841822,-29.851178369120287,-45.125059286859674,-63.79303787774646,-88.63152682835349,-106.08653218434071,-92.45264963272173,-43.53697994717187,14.945190585569744,54.184715513933135,68.69228829556111,69.96278666494726,66.52569689534688,60.59888017880073,52.122156607346945,41.140055937016335,31.785179439199318,28.017209782905176,25.017570803753227,16.920784303560485,2.159375572041769,-17.877642422701875,-38.34710628484123,-58.40890283020389,-82.58745582295373,-108.26770411859937,-116.47707731699553,-85.95650588032288,-24.09053685094306,34.3584718455923,64.66803391776656,71.93292418041237,71.59722774683611,69.49668400535697,63.05799269703909,50.39200715607839,36.37393546882575,29.254029293140334,28.067985832664025,22.844247569313527,10.040375891463308,-5.007070305159086,-19.480615722459977,-35.15911188049977,-53.8289624988871,-76.34764505931204,-96.97038254413607,-97.09305565014546,-62.050472394490576,-5.3965937241730515,42.784828424252915,68.32560779821287,76.29474108015891,71.72025305832025,56.3154654281335,38.08244761798926,27.023363287027507,23.514819061883593,21.065371152766716,15.14725363000325,5.548903347107868,-6.82976197069285,-21.703662587959972,-37.91867694085161,-53.838998467118245,-73.213418967492,-98.64754369961457,-112.87608279419068,-88.46766852702544,-27.936703396508506,33.12331124514029,65.64677034121847,70.84688898281661,65.47521324416213,55.68222011146956,40.22607613471935,26.799796997355912,23.653460087610423,25.457625605162455,20.987827700836643,8.116155043124175,-6.01475940315446,-17.666048055196573,-30.661242323618218,-49.49790718709279,-74.09801615411858,-95.57053542325674,-92.49323597601145,-50.730274743996034,11.946044629292537,62.0602786109931,83.41142526275081,82.26822411190584,71.10064060156438,56.34383416321294,41.359003586957684,29.96383691585175,24.271691576506335,21.05960378590967,14.14190592431278,0.7379913393489141,-17.43610407317715,-35.0337187352926,-50.03872598222761,-70.426740668674,-99.25473958826487,-118.45109880790686,-101.17822820746773,-46.89785344234275,14.580103382993176,56.234343842563135,73.57802580387589,75.5099878978537,68.60659534976553,55.32869665156745,41.22070755075893,32.15355511652575,28.314582680523404,24.485217880472796,85.0,124.0,82.0
51.15558012785179,45.54709034926671,41.244689904308856,35.54008110308327,25.96007052030663,10.974534035214097,-7.62039254250365,-26.05980769511528,-42.79929417009754,-58.8188682979135,-79.99002573030738,-106.94064950073488,-117.2085178354526,-87.48382486523434,-29.839538651133655,22.873522187182118,53.97873931155161,67.34590287626743,70.18858456078401,66.40622518363804,59.11868158559314,51.11240905025796,45.520586783961065,41.935680425998044,34.95664803146858,23.202132008815074,10.37376654709721,-2.111185319581011,-16.609248823636236,-33.32580173538746,-50.24311173964977,-69.34433732448714,-92.2791377951537,-104.06172159095316,-82.09481092757211,-27.834269072904313,29.413659342918805,63.141598114162946,74.04407230260527,74.67941466540437,67.12180257211419,52.11670062190601,38.62367941447241,32.73217387459682,32.41511484220357,29.296428375490517,17.327562378449358,-0.3678220059790943,-16.245784498810266,-29.09764904288049,-43.896446386649686,-62.75959213990369,-85.96541680373885,-106.91190797064452,-106.77695685557731,-71.74057412279743,-15.352137233510154,33.62476352078472,60.83045438667612,69.2449245156973,65.11424119081202,52.778579069266314,38.19428249077449,28.206042774673637,25.32742253402037,25.93893683850678,23.525424743790882,14.1417637952646,-0.9445637527130955,-18.185510009176838,-34.30400226597784,-49.864576931809715,-70.55274916102051,-95.5009892840927,-106.15569490915148,-81.24813662193708,-26.083080468097034,29.025961767974863,60.52817580082328,69.88009039068271,69.28210925507716,65.04659477228968,58.44237522746599,49.12781919938432,37.97903364361686,30.17313479019456,27.420476161978744,23.326004162684043,13.354016015286998,-3.271596822910031,-23.938401744901498,-44.0151196858089,-64.81650114978174,-90.38327133208657,-113.59990200485036,-112.05992072475499,-70.01475386269558,-5.229458586021467,46.290266529483674,68.38724069870477,72.12215340356646,71.20232049096302,68.2528963408047,59.97396469922767,46.081391297269185,33.38118103560178,28.69263179369321,27.367983376775676,19.766076127389994,5.666630344977742,-9.202496253680334,-23.79462463648103,-40.1780685328683,-59.97671630932048,-83.10070485204106,-100.11042453324737,-90.59938910845543,-46.58032541247209,10.521987028734005,52.46312498741206,72.08184139818418,76.20821192188464,68.19875550257787,50.80172370675929,33.91333460832877,25.474229180415065,22.995197716070045,19.777422647063528,12.708963951171748,2.2305516405317993,-10.877649958688988,-26.361292365455178,-42.51923658900417,-58.77775794335234,-80.21299415690613,-105.2570682194577,-110.54019502896901,-73.45507423479962,-8.589684415138962,45.984385387346215,69.23422289330654,69.78438491458114,63.20414202787739,51.672663979503774,35.597689013711644,24.792855375154915,24.203416990261445,25.16054107131835,17.894349506399145,3.832936387708924,-9.571361987219454,-21.023203494426213,-35.40739044789527,-56.168278912760925,-81.37706033572194,-98.2718962367745,-84.26709115140338,-33.253530873533556,28.9424669242647,71.2245891855538,84.79242468705239,79.65388927477971,67.05747906004379,51.876722305560044,37.534329829530215,27.758456076781485,23.36969199988892,19.662518983726265,10.932788636747262,-4.200674118525439,-22.849462642211247,-39.4275642923331,-54.94609576484243,-78.24256182266497,-107.10168344137196,-117.98738548649456,-88.31639916890094,-28.33396738667704,29.28803628354784,63.43669914464735,75.29921732384386,74.30327228198628,65.27282407896354,51.004359971929645,37.956048236686584,30.65019790492273,27.5281880864882,22.441876054411562,11.472723404035918,-2.1221265283139124,-14.671713739412695,-28.484159469128674,-46.70892565356375,-68.74059549388211,-90.4647827572438,-95.85573955834423,-64.74343714209,-5.025572529358737,48.18738172194583,73.06446101107065,76.24338949290242,69.73720256689859,57.161599384246344,43.16506362795995,33.2985770665022,26.719027476612684,20.992425215055935,15.545678779846801,7.926228918194814,-4.5286233766823605,-20.78561959826022,-37.1376139705329,-55.050233348479544,-80.62577648284076,-105.96715260901887,-102.76978522174902,-56.35640810243456,8.444314884928117,55.48971825719371,72.82803278917308,71.14608159740618,60.45505108677919,43.0190684448901,25.83430824773097,18.561825952304975,19.40627642816067,19.365038054447076,12.444436446952276,-1.6730031959175902,-18.679086494913193,-34.27091403571394,-51.48246925306464,-75.72735182036324,-97.8533107618364,-94.5976931381758,-53.23916953495478,7.639485812880322,56.37036128745687,79.14072219675757,78.77315069376176,63.469288184362576,45.12721508619054,32.70381613716493,26.092711627968658,22.06220353791688,18.217760152355467,9.973028585648667,-4.792553335638267,-21.56068688877813,-36.88410848299105,85.0,124.0,82.0
34.60213022393268,26.704823556433183,25.41784341549274,25.82611917331997,21.559557801513638,10.22354961053373,-5.872167365440724,-23.048340711655406,-38.66151673090255,-55.07267871611623,-77.8070914661854,-101.21670622795565,-103.04870129747921,-67.32691609634497,-8.69336606845031,40.94058306343619,64.95402441679083,70.29757369671883,68.327217194612,63.37899295751461,56.05626633950607,45.93803914465335,35.11978062012597,29.058550078572438,26.682765045952625,21.120487521595987,9.212892657247053,-9.065620765638437,-29.897176438988797,-49.71456115619119,-71.70261870245051,-98.10553539658028,-116.83713037871041,-103.99569134057961,-52.03601858677022,12.363723337166398,55.55550469054462,70.5756589859267,72.01102679725196,70.67786678309822,66.54068414634997,56.36620161419763,41.861184010442855,31.152476900012882,28.454640660499347,26.06029340463776,16.09971218164659,1.2764980588443184,-13.3566753098901,-28.264966329942055,-45.48446714792869,-66.4621428103297,-89.44652436579885,-100.9528631507857,-80.99027832629095,-29.968656747463235,24.99755110985507,60.18009113587325,74.59196330969206,75.11954373359394,63.8244196285898,45.34485679318671,30.534436409830313,24.449254896180843,22.381291555460063,18.143641659079105,9.985833727470105,-1.2990490980156693,-15.138855330931001,-31.074349650404834,-47.07176221777018,-64.18164185457731,-87.69618948746103,-110.23547501825372,-104.36698571797344,-55.94928425013874,9.759164786805021,56.00417328459233,70.8839148117314,68.25314506443671,60.52876275781278,47.18962108719464,31.45031202781184,23.74962080775863,24.887867516599577,24.086769265660706,14.186450055898558,-0.3402618976563031,-12.918616807361214,-24.6417258045083,-40.716073306803,-63.27978365916206,-88.05799734687923,-98.27984280905486,-72.69661915272873,-14.812448069690593,44.097890587627255,77.86209821770343,84.6140382497209,76.47353970750571,62.80015059134339,47.47363422256277,34.109189786642716,26.046708166423635,22.531324219041178,17.810697193609588,7.165621660880734,-9.462676040852655,-28.04182629813778,-43.65635201502954,-60.583171767287695,-86.69186583034607,-113.45875790288872,-113.87698046392256,-72.75895420420372,-10.06722323897364,41.86759401967448,68.73049515474834,75.99281846827648,72.44349633857664,61.46116961193249,46.800074907991004,35.213343622200995,29.531123900502816,26.563585109913433,19.847300875574035,7.567996150913688,-5.864884285602157,-18.32833551147082,-33.26920889927905,-52.75815501181008,-75.45246912278509,-94.76873412528593,-91.03620273995624,-49.089060047665775,12.573132566519028,58.40686463211955,75.53703907579452,75.08486625503774,66.62591915429638,52.9451289319045,39.79607781918139,31.221550674843492,24.998867248746517,19.453574660314008,13.715919041386066,4.876356497928,-9.004366560687473,-25.600734233482058,-41.869038003645656,-61.53228188664583,-88.9913781181083,-109.29271836600846,-93.39683046259435,-37.72596587167035,24.994560486288023,63.31143678707289,73.66640728831285,68.81534843052727,55.994226713864705,37.49616215355853,22.529787405118036,18.34972784450177,19.854215694931753,18.19239383124926,8.982811489053248,-6.548347063923969,-23.375093747512526,-38.73735844099903,-57.77904041732285,-83.24417904040885,-100.55831510213133,-86.35296673811408,-36.16189974967054,24.044431240278005,65.66186107463898,81.12152470317501,75.41237665994821,57.93626129511368,40.77393396051597,30.36191255070311,24.758423179523806,21.08717766616175,16.509999288563396,6.2722587239217305,-9.699248654965565,-26.096883939926183,-41.50831697216038,-62.22975041340756,-91.19054516360346,-111.68457481720874,-96.20821827518728,-42.20165276438772,19.1824179492655,59.115832967689386,73.62055210232366,71.73203386217263,60.79849357454371,47.18291411264945,36.368354115890725,28.63679166149391,23.262947561633506,19.222551385667064,10.755992666207534,-3.803162499694654,-17.856832149915217,-30.29193704297898,-49.71721639460203,-79.4861745756101,-104.3808369425527,-97.70210573318191,-51.817015309660825,8.274197772242822,53.2320341421213,74.14937895569899,76.38802336936486,66.98802906275728,53.39676457823871,43.06908506808165,36.714892451767454,30.51816112281095,24.93903856642721,19.307080501240517,8.260765769463406,-8.96544291303499,-26.370349450825938,-40.94584000773224,-59.04492997599758,-81.41572597028943,-88.6993962116459,-59.807802710452584,-3.7847354744474977,46.5563186959885,70.78012524792805,74.69923037499198,66.68982248597743,50.81877867060277,34.98956254293192,26.16688154604313,23.296582474136684,18.91588032827595,7.020752615308329,-10.575796374731981,-28.498380720708347,-44.13481027634842,-60.71595039422974,-83.99157129703308,-109.9499531840521,-118.04528036479775,-88.49543188527642,85.0,124.0,82.0
27.957964241802635,23.76672454383066,21.547659201903034,16.168128439066386,7.004021898567189,-5.035981980050497,-19.594678620838096,-35.77254810355741,-51.66648906623157,-70.20542561737754,-95.27675632465207,-112.75316561141273,-94.32348096932927,-36.92637966152163,26.289928191526798,63.21038123355466,71.09839786424844,66.41502081272439,57.342242516391586,42.43371152243552,28.05690134265702,23.535565476366365,25.3791165216949,22.159432920844942,10.079878517296054,-4.286536370620009,-16.164954665473964,-28.652163321271285,-46.59770899766264,-70.66801991344059,-93.58444369919474,-95.10978689939766,-58.21098088738064,3.662006628926127,56.96831440809343,82.15046900309109,83.2270396216401,72.87337651845996,58.399634613125954,43.232132141975505,31.154828492516447,24.75635180801268,21.581066715955515,15.429288269600978,2.8761578390771283,-14.908791591651456,-32.90809819914939,-47.95550307012141,-67.10764307140951,-95.3517207326359,-117.53768934805261,-106.01646192793643,-55.32187585719048,7.157559453991304,52.210029644580594,72.37653385662688,75.8350691174746,69.95623410042239,57.30939815586453,42.888009744214486,33.001710509073064,28.669299188845827,25.247922105343722,16.73788692409279,3.586750071093156,-9.477691392382006,-22.20895167741571,-38.459116644575126,-59.09163858046841,-81.99613196330904,-97.14210569247642,-82.75436463486739,-31.654240467700287,28.657567427235232,66.05010365583941,76.57869559555503,73.3199128356887,63.03540072263094,48.78601181363975,36.86621968664303,29.324544304981792,23.327967015431845,17.91906140287147,11.621816554908131,1.3707181924150216,-13.717775541095008,-30.331586982599603,-46.85884674929782,-68.81470517528356,-96.89285128281738,-109.4028913069337,-80.41332871580832,-18.534860899207814,39.29025381636781,68.68565443448324,73.29553356758551,65.86743900848923,50.98441145199934,32.28078322435468,20.22972071142205,18.630211857480173,20.002804880513185,16.352348327935577,4.965621328684591,-11.520646572738404,-27.879787432059018,-43.51821400294828,-64.75003060868296,-90.15461263966911,-100.50038928802343,-74.86205653460375,-18.237808754282494,38.72146749222425,72.69922500354464,81.31565610619155,71.03997851951148,52.47184303979141,37.05180789959781,28.416702167179356,23.580139654386834,20.063695126638894,14.291491693437425,2.0464970848741055,-14.610163326659933,-30.487840846239607,-46.58742023193094,-70.04144445305137,-99.25704682750421,-111.79884464531925,-83.60502605500722,-23.547973381387102,33.55778815076091,65.58234479734479,74.35847931419198,69.24839306390946,56.82716205505386,43.6615341714082,33.89079263347931,26.81983732324662,22.140867515815728,17.503067969820677,6.960674606297039,-8.203310883433371,-21.332482999444558,-34.78023247628899,-57.523635900089886,-88.35194291734307,-106.67962081726495,-87.86924984931333,-34.35375959053769,23.635190429231592,61.63901911982647,76.37891968921944,74.57548396112084,63.11472853248634,49.86739591542726,41.00889233972614,34.989332506223946,28.746150900706656,23.53260890381121,16.864855075140643,3.734982949985362,-14.285253741591081,-30.72323988418454,-45.46777812466618,-65.54576959554257,-86.30231316779339,-84.38572458739168,-45.129375347315275,12.794006180507331,56.339403134095335,73.4633188226455,73.45265483184345,62.64506940950734,45.8287967865539,31.592876658680066,24.986949869999762,22.564740528108974,16.321525794388574,2.2825931999314704,-15.925877991853643,-33.23030238251215,-48.538934863220945,-66.62533064414589,-91.84701198864883,-115.28499325128779,-113.68606661829476,-73.27969844260627,-11.781724271971747,37.308201294626464,59.18690770620185,64.7769675133382,64.12722222682413,54.58439536002021,38.82995879006491,28.057336519894243,26.332006536301737,26.67682826105668,20.444322323287345,6.258883730893393,-9.656713440871295,-22.60444598281292,-39.07793867884004,-67.21997318142262,-97.39823953536104,-103.11566299224006,-66.96881677124459,-5.150853289558951,47.50130440568739,73.76224338497487,80.11763427644082,76.14974202642347,65.02427418000802,51.23820944468703,42.12825439009704,38.69535415575374,34.620653735010215,24.432019220343843,7.926479257921635,-9.983967079701927,-26.21648639879681,-43.14000082058469,-63.03898332084363,-87.6073352863945,-112.77897078192021,-120.26889863791672,-90.72972615301651,-32.05177935841228,24.312123792420007,58.138096911745855,73.21094860254466,77.31508150181251,71.35472670761956,60.07632757466591,51.37216022230321,46.0566533872674,40.77513004953596,34.14021959083476,26.171484761119842,15.163332374248487,0.18318866786652757,-15.998645189696449,-32.596490800912235,-50.38734825443938,-70.80070403576774,-94.58847516120483,-110.02702972566837,-94.91918500836357,-43.641581751363994,16.722693453096294,85.0,124.0,82.0
23.45213156904836,13.207026081010847,-0.3475962998762632,-13.02753577155305,-26.415646646756464,-44.02599078043345,-65.65843244141045,-88.00665172839467,-96.95579359951422,-71.1238171121688,-13.419620088470404,42.59554961331326,71.33186477185984,76.54440390740965,70.99391277823283,59.07229676889914,44.85893258115398,34.3446813871122,27.527448972674307,21.715866305395856,16.323568780744797,9.184407582044297,-2.5754044404611633,-18.549566071316313,-34.99171255112331,-52.31840891838651,-76.79243101948043,-103.55076569126598,-105.77393780694358,-64.46632251587855,0.20604612102380593,50.99757571481071,71.93809861016383,71.99902358442888,62.30628930669351,45.57930658747353,27.67943899934029,18.891556290316114,19.15199241369083,19.694587919875925,13.830856701187283,0.5004231537503668,-16.450947858059738,-32.25804956000844,-48.81919005279885,-72.21173401141807,-95.8324297427234,-97.24505343829637,-60.58044792689086,-0.35958749108102717,51.31701664273553,77.58000278064632,79.90595906412383,65.96029245100436,47.33267852144492,33.94622713648595,26.771655025415875,22.521850835398737,18.867277732560428,11.478591320636825,-2.573576241164418,-19.407202184203317,-34.84283027416918,-52.33503565629547,-78.50008464370508,-105.96581499205814,-108.2531627958003,-68.14015873452323,-5.258597679298969,45.65995508351047,70.06965932164829,73.97170134630959,66.1437169373088,52.8084245568378,40.46729922766662,31.624003872240024,25.213641538634757,21.066084527278623,15.22780169837773,2.7284623383207127,-12.35450849695199,-24.778107564312343,-40.11741019052115,-66.15073940439933,-96.22251333365976,-105.67336322360795,-74.919300277344,-16.58200630440774,37.16738869194132,68.04338385425987,77.24108262119351,71.9438040534274,59.0954976506781,46.77128554390901,39.19586938745397,33.19577254768934,27.099660895592454,22.02916825291522,13.829029123157667,-1.2412966807406602,-19.423485978965736,-34.863922028074455,-50.52101325823454,-72.26158750983531,-89.24156693652029,-76.69047364286722,-28.785490574297103,28.000540842981035,63.747340484173336,74.77843748453881,71.31022695997181,58.059280031266525,41.081451724995866,28.89710598940578,24.188278422371233,21.485178508608463,13.01479689928667,-2.8082644773827425,-21.173337275061666,-37.75102910458761,-53.169206193126314,-73.22361245341816,-99.67405567267016,-118.47195032802028,-105.84169204257913,-56.184379197424924,4.92470839114982,46.26525311157727,61.75395537466923,65.20919542303194,62.43407814719917,50.204706827449925,34.781133114611116,26.782007849180708,26.673009255176726,25.78972185797313,16.989787541423308,1.4818234961396146,-13.644005543668516,-26.48233488743106,-45.98943297929152,-76.7298331536718,-102.8015629043596,-96.95939197578737,-50.213294391021364,12.321793434591582,57.816626967619776,77.09521679034313,79.81133034469075,73.57299473423754,60.97827926164663,47.888232458988014,40.761029603096084,37.902807893392556,32.42888701541398,20.164467459889124,2.6353726205872365,-14.797634645067495,-30.90497857325233,-48.503549453744554,-69.62582903529943,-95.34446943172375,-117.85738144202033,-115.87316207910465,-75.55788454988505,-14.137122995035964,36.58215817475691,63.93839144379277,75.40976342938963,76.5884320998351,68.23147919681603,57.10222847879155,49.62795183976102,44.65200879440677,38.98481674908351,32.00909703111478,23.415412673851144,11.161677115593303,-4.487849824805502,-20.69890605983377,-37.601272004356886,-55.88407709800407,-77.5156601524037,-100.84808931706529,-109.6545946610401,-83.15256934978636,-25.466038814663065,31.026795635680088,63.50317863183091,75.2436004639831,75.5443121592579,67.65357175881043,56.26836656350789,45.978913206039095,38.50910739006885,35.315207372071576,32.0310830598459,23.44610638206846,11.425254669761607,-3.447474153644623,-21.770375506294172,-37.702420045148465,-47.636196925296,-60.60870780092552,-86.79151024656935,-117.93032768858272,-125.31626179822487,-88.56853887005201,-24.48605146888372,29.521983605649016,56.461641237124454,65.56046012300865,66.17838073212936,60.76464038944523,53.27664921321549,46.30646446355527,40.47145819104351,36.36574627089185,31.929629895866054,23.571566708709835,11.93892670728466,-1.354869782901617,-16.540294555442042,-34.45579885369443,-54.147609273889536,-74.63814628187139,-96.1460150588413,-108.60116929274692,-89.19381060021443,-34.524374744292835,23.912584561496306,59.350475248426754,73.87940660980145,76.50010059610591,68.1588360819388,52.23499351131585,40.01638440455224,38.018448935010476,39.00310129807612,33.45916878907561,21.67581672194303,7.295943583293714,-8.228311738205317,-23.919303937708793,-39.776630820307716,-58.56092906640941,-82.71675684843923,-108.09739216368627,-118.36771231558568,-92.09963881734186,85.0,124.0,82.0
-39.333674804540394,-58.90566647664087,-87.22624806000404,-110.52017326235874,-100.87149240155533,-50.66672169392073,11.860454090537328,55.40252811522723,72.84436821576257,72.63145454246421,62.56379361065995,48.906209865824536,37.59464311755188,29.53860928137571,23.830749499340016,19.869055158500004,12.314348727481834,-1.7321611484692225,-16.18860581815004,-28.447920991232166,-46.44911976859654,-75.25853938013843,-102.34816101601034,-101.06018315068245,-59.517206886525166,0.679642537132739,48.65080643931977,72.60986948207518,76.90429579537674,68.66512523852651,55.14292870029902,44.1379205622247,37.494297295281726,31.36050232239005,25.5958116547548,20.258993430590525,10.160262344180408,-6.499694513400594,-24.25771917667897,-38.98617178011002,-56.211451067412874,-78.70643837895153,-89.5721044532431,-65.79244613859493,-11.674375055318714,41.23006493509742,68.99826093394053,74.9573792365536,68.32664883826584,53.13714554805468,36.77905402806767,26.885180508559003,23.57573635069522,19.87475919958337,9.046028866349817,-8.104120553291928,-26.238220081775683,-42.13109955989286,-58.208839859579136,-80.47196595634492,-106.95062062638941,-118.90669621195231,-94.66350712957264,-38.09161613836513,19.78092712978087,52.91044008526207,63.401477369680585,65.20436646042522,59.85507121212893,45.524642590993906,31.435928428057796,26.231930059145924,26.934709873737518,24.180326425406324,12.928712411995223,-3.228023093433778,-17.345609527681074,-30.94333710565436,-53.9966169829912,-85.94279619850131,-105.41477540371876,-87.12094923228638,-32.08694934325538,28.179033978392653,65.80803421700851,79.08206468103454,78.8005670736355,70.43122568438045,56.87851664821823,45.104009940891764,39.78685459372968,36.86784365100471,29.632004130209857,15.422885054177447,-2.6094293492754397,-19.469843511690886,-35.73353908344333,-54.15446858755419,-76.6532776313208,-102.92881447458542,-120.85217774349398,-108.03169753078099,-58.51113254144344,2.7216675532735928,46.748356034426706,68.45118238515204,76.79776335380492,74.99974325148163,64.88205700923817,54.4966978355784,48.10236954460921,43.16511849790285,37.0848886009295,29.760778611880692,20.336528189799385,6.8482037270120175,-9.16966414748011,-25.464351742152708,-42.70512218157518,-61.67261032107181,-84.48860768841641,-105.94821149287202,-106.15159388433408,-68.54745410907172,-7.483125887296517,43.120193997234935,68.5122672478537,76.28953321160334,73.97920563176292,64.44538210686734,53.09362403933859,43.43741098928895,37.18625936551853,34.7218136986355,30.115226722790982,20.190027490745663,7.522314299787286,-8.519957758417144,-26.972614033955676,-41.01966739559028,-50.456817022421816,-66.70060543506207,-96.29815882432345,-123.91638141633968,-119.2689776052946,-71.2159751863762,-6.447459456053775,39.97570000576256,60.30925344120194,66.46609742788934,65.10749694254908,58.620903726384824,51.187497703605786,44.461906061302116,39.11975367935761,35.31270641141649,29.97557922095398,20.444299151320354,8.24574366985331,-5.499412008928257,-21.434675922420897,-40.04748104451664,-59.954188778448746,-80.85472430570434,-101.59890116546075,-107.15140366560438,-76.09815423448067,-16.3166517915017,36.88097883124537,65.17176322447429,75.69914187110064,75.24067829153167,63.93018002032957,47.796418013140965,38.47344377059961,38.54205680773288,38.250716471844314,30.496939226445548,17.69362507607831,2.889401000479357,-12.789063073305964,-28.40990394113077,-44.73898931151682,-64.99016575347815,-90.38462353630096,-113.65660355177837,-115.15354322360194,-77.00949203793552,-11.763239416347323,44.08850615793505,69.59440639837321,75.0178763742763,75.81947088583348,71.66927876191744,60.10117280369659,49.68729116142664,45.895119047274804,42.76171514527744,35.20329385808772,24.278042005781266,12.65055019616117,1.6519539306469806,-11.972576117146277,-31.63851502671955,-53.5251269638822,-76.16013848333785,-102.32132540252528,-117.45026261996931,-93.91745972162728,-31.074816690478215,34.37712879633314,70.43141420238402,78.65616183710846,74.81350798936377,64.17678998402995,46.43308115066733,29.56616273930008,22.37370624125241,21.692395189858782,19.59115963647063,12.944721398507332,0.06080518387218327,-18.11352988818941,-37.15066995250005,-54.062213817395296,-69.76794837672297,-89.64508956377412,-109.64506962908774,-102.97097492948754,-50.84115424161092,19.088168644379294,64.69744097186636,78.40899441442812,76.25559086380261,66.23024941829983,49.32069362600865,33.43907234832133,27.51883852689535,27.239235718436316,23.358553868536838,14.729476939914733,2.018385610679917,-14.799883990482153,-32.045949067915075,-49.000200716035906,-71.57773839181439,-99.0289278429004,-108.72259605806907,-75.23417570096396,-9.712329537239686,85.0,124.0,82.0
-80.57762051379802,-19.92996964277454,32.34679900134513,57.580764482584314,64.44533821668576,64.62991851605304,56.4188243674625,40.87435975960149,28.923897652520633,26.220368103574124,26.872798247144146,21.799096219141138,8.427346042005096,-7.702658998816013,-20.926375355966584,-36.27087293954621,-62.905670454781436,-94.15604059600689,-104.68314209655622,-73.97398930171009,-13.564027222190537,41.93981624538535,71.68447962712533,79.99744650482099,77.13253210123491,66.81475156255078,52.94155294085684,42.93133800047049,39.02696591266799,35.442341825684416,26.212440741284908,10.340605979660669,-7.701622744910084,-24.08366307601282,-40.75185966835953,-60.14601733938501,-84.08106379762363,-109.91282756853168,-121.16492763474606,-96.88049935939928,-40.461158179743585,17.948011216656788,54.950665557526015,71.91776243283927,77.35180128906583,72.64829670407447,61.550041491298465,52.27608403019936,46.693680181862774,41.559061347903516,35.090174202023995,27.352310769116162,16.884940694224632,2.316962923816855,-13.842840477947398,-30.322552675684364,-47.92695531826677,-67.82875637487423,-91.46961827341343,-109.26858559059849,-99.25304280648163,-51.821471817671735,9.454897918334082,52.942832579850084,72.07450679032043,76.53835952132802,71.77303341399187,61.10835120253904,50.07383778280704,41.17361586614327,36.24490946275373,33.92233580850391,27.699887060546974,16.748553772136134,3.3258719091239444,-13.853380884613266,-31.756500762344377,-43.85209571820379,-53.87855934959207,-74.06780914222993,-105.76673729498715,-127.07431706704418,-109.30081527192606,-52.4079844881744,9.8343224823356,48.10687515828923,63.04485343296135,66.77185431403372,63.579942248586654,56.429126138315674,49.15684015096362,42.734628359371285,37.92248822303303,34.13279187168577,27.630862003625847,17.104623883901805,4.435655113212097,-9.825874136110343,-26.571377330313087,-45.73792043027029,-65.83049766444091,-87.16640936151937,-105.86593181118977,-102.41558418277752,-60.37328116102522,1.182022550448057,47.571169049823226,69.54099679694936,76.66471842804702,73.02092851777735,59.2460135945185,43.997170733781495,37.81529590524983,39.008788621338134,36.79267302614537,27.12414405084931,13.557786843785845,-1.5927190129841566,-17.333600588258424,-32.93827794283586,-50.040315253541415,-71.90252882529546,-97.96992894034518,-117.41211863652536,-108.39462250563906,-59.4667955275236,6.877634726555633,54.608605500542325,72.31859259664826,75.44901368262248,75.41253093899677,68.8838551577709,56.488708011542904,48.03192110766663,45.276617889441624,41.06997747799533,32.27058718435789,20.881693546412716,9.4465050237596,-1.7631810605016625,-17.0778706084109,-37.98075487589066,-59.79650266997139,-83.49917770529059,-109.09241967556787,-115.50572523259399,-78.64523592370418,-10.484714312182588,48.36565027061645,74.93258656538357,78.27854158780902,72.51108239338005,59.61954168446073,40.933870830989065,26.385015203299446,21.910445709998783,21.45521960768693,18.208050663980423,9.917387312988923,-4.8196662191190764,-23.713937016923296,-42.31101007481445,-58.532110492284616,-74.87861177302321,-96.20479509197052,-111.94369327491164,-92.265472018313,-30.303687849396972,35.92273653989126,71.31396144806827,78.78246528609579,74.1424463570708,61.888551766653116,44.08543813335501,30.60631444648062,27.356693225405216,26.695371637218383,21.265617818240386,11.524555217546164,-2.5232223456167917,-19.91845267865668,-36.788005102731816,-54.6704966594301,-79.56223055547703,-105.1155791939118,-103.88742171285607,-57.995577745183,9.44812609857174,59.20942904824904,78.02504820065336,77.65483501901029,69.91520677851558,57.57375911366476,42.82824839111036,31.019395747107424,24.600169117087386,21.112171380170366,15.837316237370365,4.618633324833697,-14.731785403894454,-37.077499470776004,-55.453498716817954,-76.40733667478582,-106.42068161666685,-122.21173768575112,-90.7342343030827,-21.106429398462065,41.54952371342938,70.54199843027509,75.68326860924424,73.16443340710542,65.22775359270206,51.47742678630006,39.719139360149235,35.46184488924699,32.98701274723908,26.21375194437822,15.861020909344578,3.3342051601133744,-12.65376296717811,-33.23608312827461,-57.93073211429625,-85.17260867600383,-106.18526672955875,-99.60546631559559,-52.91527227566562,12.979141716512466,62.6014454837664,80.92394660529101,75.5286638861963,59.89406772855515,44.37906276910703,33.836155298573374,26.985663849237987,22.393094550398814,18.82837454184016,10.813481236932216,-5.118807986971569,-22.57054848084473,-35.738938291034565,-51.245820740625184,-76.24573163939499,-100.59356747362031,-99.17496913683662,-58.419582490238426,4.2865572352097425,56.215077964043,78.81743074546546,77.74556150041644,66.01347020699147,85.0,124.0,82.0
24.69479603464488,60.62020899009172,74.47055513603861,76.0283506854837,69.04503648578293,57.776264971009084,47.22686352214323,39.258391930342626,35.577366729520726,32.739068410947375,24.86470987457369,13.146683309259679,-1.2243872667179374,-19.28768064409351,-35.97074314213542,-46.43900781556992,-58.22390256758938,-82.57274511103917,-114.43500198549664,-126.75690445777296,-95.800754690663,-33.197119176192395,23.87318315470366,54.21910775478714,64.93001155076766,66.4955744283983,61.70790492372793,54.25964445785572,47.188720201351344,41.14945524686009,36.843041618660465,32.70183494491314,24.92514796611158,13.600599056425624,0.5034790023471155,-14.36699922200444,-31.925499740470013,-51.48501972382416,-71.82396691224739,-93.39156697021556,-108.29103744117569,-94.1652023472909,-42.8941808164583,17.189511356901367,56.08848277524562,72.74003411172441,76.7614935734259,69.88321372843477,54.41698990024885,41.05260176356832,37.84681281871746,39.12846490013023,34.652098117774365,23.44903147224513,9.296657078853048,-6.127473677141198,-21.84742919255875,-37.57673499185901,-55.76345674166332,-79.23205613556163,-105.09639296830954,-118.73734569458459,-98.03279479962545,-40.366958682586166,23.769826783233775,62.41099949602062,73.87950157497987,75.7427394481311,74.42168570502797,65.51930576726447,53.281193578143125,46.924663165292756,44.49395472972783,38.957334884220714,29.123719739665646,17.491091244164725,6.304770617601462,-5.541297883177778,-22.71396635712885,-44.34000476927917,-66.20761782748596,-91.17807131760995,-114.30899768220591,-109.66519762674186,-60.532870394050555,9.176850718702783,59.408626976732144,77.47926498006953,77.2489888523363,69.61549532731452,54.49499561262799,35.811939600832304,24.146637731612753,21.77697535993649,20.943272498365392,16.412704232794923,6.319371589935565,-10.063637541128791,-29.26931370070971,-47.246581143300475,-62.974786522173076,-80.51113253976314,-102.48057396676269,-111.12235698599352,-77.6550687453675,-9.4482104026192,49.86576202752701,75.52994029799649,78.25437119831528,71.4087248000494,57.00610967134751,39.238326625665316,28.745490346798913,27.397450391785068,25.682247423060705,18.833934832314903,7.9542618053849665,-7.379184401805457,-24.947003924619082,-41.569587579052744,-61.00590522805325,-87.78416767630819,-108.911295161218,-94.99508150576945,-38.8374510237691,26.914051806339504,67.5536447064857,79.1932828725475,75.91894589190514,66.8092810192222,53.33975462807314,38.90555741126449,28.63846713358884,23.492964964574725,19.971518323732052,13.371719166961295,-0.18034842710357457,-21.315093378254453,-42.814827130532485,-60.64203336565317,-84.49718772186183,-114.21957825991448,-118.65817136566274,-72.77939294658087,-0.3358154141078904,53.47107444478308,73.56889048774376,75.38639628000577,71.56829014611994,61.64572942444052,47.43268021840804,37.795046039616636,34.95967588251738,31.539219285423055,23.475610332124795,12.485195555681978,-0.8462340143426895,-18.12890711383319,-39.98747111271907,-65.68828916566014,-92.64367494578885,-108.15598126903336,-89.98137089113204,-34.18602035336794,30.209300881981505,71.06155708906118,81.18940438467041,71.52549862296044,55.05441307827995,40.795444631990925,31.593422099517582,25.429185435490727,21.418480343891147,17.270100962679106,6.924890816294747,-10.450041813301437,-26.74439262631423,-39.48544779201038,-57.51904389924071,-84.33953702702392,-103.92557106941845,-91.26301008160141,-41.124918153859575,21.688963684663687,65.90355888561163,80.28042253870139,75.08752673132685,61.4129494613839,42.786702185250746,27.181451626082037,21.34429822044053,19.13164296982728,12.68739454465392,0.8644515582322395,-16.13162228610459,-35.110987548696045,-50.79146558759862,-67.30854603500876,-89.62453864015194,-104.12379457376187,-85.4821926040396,-31.414663518907656,27.646418430313773,63.75535263788947,76.37989892958393,76.86793697211009,69.2039047462903,55.43163558334682,41.81836420294137,33.05153897759647,27.89953611858702,20.909362904297378,8.686294487732788,-8.082355347337293,-27.40020966385281,-46.293662215912946,-65.5343242301363,-90.63737557225723,-116.93933475355297,-117.37736248528026,-69.85868924173487,2.076972998649279,54.39838633083807,76.426023207283,83.21263480350781,80.69232916035132,67.19869518793736,50.06378747481031,39.830825797204064,36.3355034076256,33.261212631141674,26.32695854175912,12.84890426765448,-6.586007215308447,-27.433554115621213,-47.346416058562376,-68.9631883733606,-94.97162847743276,-117.92193969069908,-114.01590151332965,-66.74597855958073,1.4987248921250367,53.654582310868534,78.15337032979572,83.49300252951133,77.06534940835499,63.685250121863625,50.16409923935669,42.140108328289074,39.79952730101158,85.0,124.0,82.0
-84.31849825712622,-20.72119929269705,38.29561683447859,67.7983402867044,74.74925542247244,75.86082161904667,72.71296105580412,61.828124981118904,50.66805335479082,46.17880755843554,43.398466858054626,36.46390103963141,25.829115101508428,14.158181182884933,3.146685894262494,-9.813334991413546,-28.7591668601139,-50.6395154045916,-72.92441179639805,-98.89092549186505,-117.15330595208515,-99.78473398678975,-40.580661657462294,26.9855738991331,67.56817814181102,78.54504151360655,75.69655349155036,66.05329663951441,49.00865022627557,31.345715282485035,22.767181933907363,21.735890805858418,20.100335273228836,14.155956467520351,2.157053466022353,-15.54328237394611,-34.702768943403306,-51.956947250876155,-67.55702825144581,-86.66878228075284,-107.77081394774169,-106.49759534949926,-59.84778591280338,10.4961620591978,60.71430276808678,77.84638386677895,77.0282001070116,68.01826154141601,51.77609939417543,35.070184042122776,27.747237393918954,27.353063745889468,24.193257937983336,16.09553328891418,3.9849162961045947,-12.436652670279846,-29.836083092919885,-46.56770027233401,-68.07958442365756,-95.6891522852582,-109.61726874754129,-82.25622057970192,-18.87496921460964,42.033083741037686,73.35874992727435,79.17030989467195,73.75834732390913,63.312211694183475,49.00902509831971,35.365713103672675,26.7155717022699,22.527449912911024,18.566880470522673,10.314133271289785,-5.683296488318254,-27.91305110591959,-48.11613308611042,-66.39133225384634,-93.34649647138505,-119.87969675394585,-110.50714910042554,-52.44736360944242,18.625595457377788,62.35133467286968,75.11579627452215,74.73196394181633,69.43292625893535,57.637931560381006,43.82627511897257,36.52055092886841,34.37093231316222,29.658332254934656,20.50897733067374,8.931469720631009,-5.366839137557806,-23.99578697026024,-47.0611165663446,-73.61891840766742,-99.25678797123533,-107.18542533406347,-76.95281712061418,-14.72427799771366,45.27389951724459,76.8369700493658,79.80226165330834,66.98087403225902,50.44000530207298,37.67475451349288,29.58320648254764,24.061345721237114,20.471794706684804,15.156674159106956,2.367330493389928,-15.643326359823273,-30.523597747804764,-43.71189603858187,-64.67445031506817,-91.9073992152491,-104.4219032076945,-79.99231516874143,-22.730967507779255,37.38594163528892,72.94009266922578,80.11703601127043,71.80040397836278,56.34249863396538,37.47516489892302,24.53442660268118,20.805762697339965,17.846691759343383,9.804976645069708,-3.5387910217676906,-21.71064965335234,-40.02508608443248,-55.069668320724475,-73.3172013869239,-95.76526703810632,-102.97882508548608,-72.58281492667551,-13.199074391037309,40.971667222770996,69.28547028112703,77.41813086621464,75.47731746741243,65.63002394463011,51.181451634796936,38.72312571278802,31.395995575648058,26.313264472208928,17.93435203805377,4.236390628137944,-13.525744100695716,-33.00363651843246,-51.59450287808889,-72.01063568221969,-98.91782503802058,-121.25499899316657,-108.52486934339164,-49.440748799679525,20.54195008700454,63.32391052629893,79.35732577242439,83.56155789922501,77.82172475283531,62.059114648119746,46.15732536233933,38.40754331287279,35.642524522609136,31.794491256604722,23.176520695116352,7.6821890481225505,-12.667938228223594,-33.243415970369206,-53.228287820696686,-76.0588713895588,-102.69502454697897,-120.81254118696117,-104.6092438256155,-47.35484221347994,19.35555748653383,63.34609314114539,81.21888605438684,82.65401523064891,73.64333241619599,59.47916526682485,47.14311906121246,41.044786304716816,39.45909765495942,35.78467530818212,25.009970312012296,8.584947821355012,-9.500273415981056,-26.862474731000134,-42.15902827539073,-59.48745125724683,-85.86890959491902,-111.55952974374851,-106.36876261771323,-54.16340883217151,16.434825183485003,63.872439613465474,79.49434725886212,79.46703442792885,70.35383797522023,51.22119882721142,32.63954492489844,23.604293197366594,20.759010188531857,19.12607963186558,15.574772207998961,5.728576734902434,-12.53993782607181,-34.813522867628926,-54.708539138026566,-74.16201163653746,-98.88904160356748,-119.58118599002476,-109.77886704369551,-58.228946179921174,8.67296912286326,56.3450029092671,75.99885168883026,78.40645513961975,71.4651711944408,57.22333140515469,42.46392403661143,35.06670721949144,32.9488044116916,28.243668567875815,18.308999198300913,4.237635989777647,-13.154880054275694,-31.813267801261226,-50.01539786367893,-70.65307834919199,-96.50561893539104,-114.49299641388266,-98.3186983736352,-43.62043668703258,19.075229079210278,59.62393478279358,76.38970831625078,81.33199536454119,77.24693123363896,63.844592074906444,49.34327037384419,41.60871289621574,39.223916290646194,35.6133301805174,25.31442347290829,85.0,124.0,82.0
