3.6351092378432215,436.5503807130852,585.0531385025231,519.8083565453445,445.895544433241,420.21662764327476,401.05997563353833,369.90823643913564,335.147015712978,300.5730560513107,266.27819239616707,233.21429708916506,200.82130336093488,170.05821184079352,141.52094048251513,112.0917317295502,81.35465337835828,51.31009782296215,21.014118050813245,-9.179076204623355,-36.13841848152627,-57.797964394635805,-76.22262808223658,-95.20774135135977,-115.14525233059896,-133.31373313966364,-151.60063995338842,-169.56435257689472,-172.43275473242844,-147.20213079197836,-106.86805279451619,-76.77582007024972,-64.2932399200998,-59.429221668585505,-53.87595930832056,-45.31108710200336,-35.15813168336335,-28.23575082406405,-26.089869244184957,-22.175652513607016,-12.818003830263956,-2.7323406739636495,4.117274878456302,6.934881340506306,6.027357031630712,3.9344475255444236,3.7436586633052498,3.39423137421731,0.027113133973835312,-4.456911834137051,-8.167895590964335,-12.94790971031875,-20.280110523639667,-28.53982833319546,-34.35017451535643,-38.04717974329471,-45.3088630472088,-56.27841788081814,-57.89412813818114,-36.06524198345949,3.166346364279707,37.32307709115296,52.490455438486315,53.65305442456616,54.24970196904108,60.47150200041309,67.64072989570174,69.99504240188071,67.7673426436301,65.26615743621828,64.55639943558202,63.911899064730115,61.57539161607668,57.752107281743015,52.0475192248686,43.32655248398914,32.35217136790211,22.15333051908714,13.654861567701532,5.337021512078433,-3.513872866521205,-13.316273421300895,-26.484725328660513,-40.99219309546919,-50.7941749087156,-56.57557976408725,-62.39493449199285,-71.40819885912045,-86.16592952914661,-103.49240183052744,-109.78236494467997,-90.66107422703328,-49.121645042762,-9.072093440025693,10.114690731993413,13.813070176321471,17.89950464258144,28.81303788649905,41.119425175880906,46.75314396970288,46.64602026722327,47.36034505485776,50.44488969653621,52.155981776099196,50.04078968473001,46.09267327082194,41.66797937525318,36.59414380534034,31.862336564919385,27.67181255573343,23.10136977100704,17.099837798967165,9.033519753356847,0.9963676010395075,-3.4388244734990843,-6.837828794453888,-15.37556421891805,-27.94412208486648,-38.39933881055612,-45.761540654471474,-52.91380196047229,-61.782279993139674,-73.77396666681858,-89.7700298117542,-101.51525353653342,-92.44592239403926,-57.48195201489852,-15.136519315477639,12.380302859578642,22.468141138072298,25.84691293602222,30.228867042142813,37.35917736513923,44.36688021463781,47.06991604245252,47.43573924771874,50.385843121112046,53.931826998764215,54.259194572499666,52.99334679553673,52.29597466157989,48.55097787650182,38.43817199051295,26.66202887077858,19.134162622610315,15.601436074872716,10.999010689865795,1.000383980885599,-12.764862541842065,-24.231109533229322,-30.12769105780637,-33.99339277570843,-41.99809826976917,-54.67900400518649,-66.05066296095502,-76.9790818546422,-93.62330383170233,-106.21604047721307,-91.85533976678003,-49.38162596218459,-7.024728770922457,14.583684515606226,21.923961196498492,27.41446371334674,34.27978236583714,40.960573420114635,45.2242784417197,46.2999623217614,48.26713143171807,54.64636513697764,61.11797215116994,60.56973699453083,53.47382665813153,47.78239625098288,45.783417114651584,41.24620508175059,31.79144841959961,22.199928338125673,15.134593757745984,8.77848897913808,2.290030933307823,-2.2251891891816586,-7.085797012850532,-16.349430189058648,-27.467649355470588,-36.991374255493085,-44.912575051796566,-52.35893943007778,-60.97416598814237,-71.441367429207,-83.24146046402119,-97.10914161519213,-104.98762291368655,-87.90366281254298,-42.9501255602732,3.530757543404687,27.05283024868608,30.557373068526854,31.028029467722355,37.735863463703694,46.536976359578645,48.71192145406253,44.81786849440589,43.324981126761706,47.28697971872248,50.326112397904836,48.888844727967886,45.96823236260485,42.68950866366779,36.86711027178117,29.05614587373835,21.677596023846895,14.29273052623824,4.562470640282545,-5.94528436780558,-12.956201743759099,-18.557603195658963,-27.572509714622782,-39.37538867871414,-50.76617906514538,-61.75199118354705,-75.9994256069142,-89.30512178095894,-86.10698428576842,-57.12076594037649,-15.373725349122422,14.936227845902232,24.131984826738503,22.690140454390153,25.716714147175065,33.95570882305373,38.57778308504126,40.008096754005,43.3975132408436,46.42634468254109,46.15966558353282,45.37145315251077,44.91814376317224,41.23458226509591,33.33353205674238,24.300556338926192,16.932242372601216,11.57447149471361,5.015378281211554,-5.750353597886474,-16.592882395307775,-22.94950161234304,-28.669496175597075,-39.83785100791344,-53.496588225739416,54.0,122.0,89.0
53.685826242785375,53.363259793869425,55.53616862071256,62.770615196037014,68.94047548000194,69.64994698352882,66.89843449179615,64.89938889798282,64.48599411063873,63.41840508704653,60.612975466407626,56.34983721122764,49.86611524353113,40.26704320975259,29.209109713878398,19.57672193776068,11.298266251387588,2.825215309019885,-6.1657183972072245,-16.696895210303797,-30.843411293896914,-44.43729277152708,-52.68688857361031,-58.103034834857795,-64.53459636473784,-75.03762654329726,-91.3294927087033,-107.21759024128005,-107.20824345633376,-80.17555603907005,-36.15928525706111,-1.1556854964591692,12.036771379934894,14.409288486575308,20.409640371308672,32.65558607287968,43.61279025716283,47.01474150399976,46.554229610905594,48.12212376834928,51.27421407173914,51.912328697358404,48.96233687056859,44.88578029708447,40.23730077556281,35.15133814155829,30.626367985943663,26.43822447723474,21.56032776419736,14.966524164080202,6.518046749181544,-0.7100114463477254,-4.21678001997284,-8.629440874078368,-18.876507150124812,-31.363985585996442,-40.73310760262288,-47.726005658712175,-55.25697627495833,-64.83036634268362,-78.09090941340826,-94.29980961854068,-101.67757918824412,-84.59045331397007,-44.798936644195884,-5.118320629452086,16.694695648762472,23.65154048087029,26.84673962159009,32.045608966401986,39.62382968071651,45.66133390953696,47.14777586735642,47.946516989898164,51.598098858464525,54.38135929668911,53.89432217908023,52.77309684227538,51.793541657192954,46.2209454950869,34.86483771084861,23.933420128826743,17.870676916917503,14.648858031564743,8.722899961972962,-2.8239160258410556,-16.580207131269486,-26.469229654839566,-31.16661609056176,-35.67792605803514,-45.40654272584943,-58.30932137664716,-68.90724226337986,-81.17768254055841,-98.69141845730036,-105.59604797392008,-81.55328293459561,-35.71052513331297,1.4887690777215052,17.491530342104294,23.3853348267797,29.30097745034431,36.316449951641275,42.54652070308573,45.77178586270111,46.517982814887084,49.688211734536445,56.86745156291248,61.87042393658332,58.89194346111766,51.36339895166861,47.02324543237032,45.022028914098826,38.87081452980983,28.810245304425987,19.924764273952594,13.342045755209345,6.832128928311006,0.7464939866863481,-3.3389113906638777,-9.29546648615296,-19.590656034757018,-30.433087771939782,-39.398791848111976,-47.054259585033286,-54.64732924731658,-63.85159126260653,-74.67406237309721,-87.09738029719588,-100.77017307081015,-103.34798866112263,-77.02751292452642,-28.193321056971573,13.092769506922552,29.394290843287042,30.342712739369674,32.271264333344874,40.507683198111884,48.06335909740737,47.8872630414805,43.78346717412481,44.089175155795935,48.58348219165688,50.29620959951687,48.05216153723705,45.13526490912815,41.34025239864966,34.68307374794013,26.830387908603132,19.650540791956097,11.778932426878733,1.379899252908762,-8.398646084691642,-14.452437710018872,-20.724800688808543,-30.842176826958948,-42.81574946866569,-53.828304182392856,-65.44728355130817,-80.50549612389813,-90.8083575741289,-80.26457709336336,-45.26650172834264,-4.582310409581842,19.607508600712062,24.02618304278974,22.712642799754192,27.961236349495515,35.90513654555941,39.01596076755198,40.737389502102516,44.54582059146524,46.639774959806154,45.8301785934112,45.33024832741788,44.33494797092934,39.28855899374147,30.679602707144717,21.932153977204194,15.243512591576787,10.024022712298402,2.2962817765149444,-9.187327283069727,-18.891222247275074,-24.316488629556073,-31.257854056415773,-43.88056242569228,-56.84880131945081,-65.71886409772306,-75.50001324866777,-90.98387275551308,-100.33637913286638,-83.14245952799821,-42.11754959052636,-4.862776491784134,11.989113826420873,18.245401607528777,26.47618927307073,36.21250154391276,42.78437455669474,46.56027503677115,48.92817063002231,49.7559893215123,50.333605577306905,54.21545318101661,59.42636335586529,58.511783262297755,51.148297700901686,43.854747469918024,38.732402001317766,32.889646097727514,25.63492448674415,18.548262363393473,11.748319377869608,4.903733304831089,-4.0081565236628975,-15.715612539374348,-26.130787057419603,-33.29462914113311,-41.57736300042179,-54.93084158942486,-69.38433390952092,-80.47172375968933,-93.41935679578883,-109.96901489557467,-112.81143102616288,-84.11522462032806,-36.09949877648116,-0.08584509744465424,11.639511628026161,12.300061442856077,18.498060396497984,34.24081116508136,49.565703334040506,53.856777772260656,50.75483165600878,49.86685760296845,52.61803573994075,56.05057570055222,58.31362907766176,58.723713959436274,55.68939807887095,47.26868739955793,34.94381587320964,24.172076937543817,17.983272775113775,12.285625458472893,4.050114214101224,-5.120468804604944,-13.18803378807198,54.0,122.0,89.0
-99.67151656841648,-74.66690672793914,-32.17310294827022,3.2449648453525097,19.71851916516143,24.573821639437536,28.041984243144945,34.09467638259387,41.75851327687406,46.514405826774315,47.16858662710931,48.765873889463215,52.71763324039965,54.51659457763734,53.48923450135026,52.618584969930474,50.87742045603943,43.34408548641837,31.34723050246868,21.658623434952563,16.86990163757072,13.451347669186354,5.930296421290139,-6.854641170806084,-20.035306620959688,-28.227303689878507,-32.18392452199918,-37.856960305535274,-49.118452281160884,-61.65614623444849,-71.89472973547856,-85.97479660190571,-102.93030740641782,-102.15399326954547,-69.25890381976367,-22.916855209839532,8.046645523231264,19.589813022401056,24.917645498343283,31.290214349321793,38.29268272472714,43.86425587835359,46.072344195895056,46.96248239203559,51.50877415492218,58.90436028165633,61.88442590684969,56.79423622308818,49.59462332413833,46.5062114086836,43.85271524967383,36.13130351019359,25.964277199787645,17.8684409643155,11.532299892433544,4.902190049454256,-0.5742852768898233,-4.620053151058355,-11.926718178215795,-22.856189125841937,-33.22036725867279,-41.69678400867129,-49.18365824418022,-57.085557015012725,-66.86627881959917,-78.02224895712784,-91.15318804703668,-103.574073457554,-99.10568399210341,-64.07811486229068,-14.175688577999487,20.357500213330997,30.421829095096538,30.293506795697002,34.133975888665006,43.222507137574105,48.85516577034112,46.69857089175831,43.18876286836379,45.25961120591106,49.5918807915772,49.901275481395196,47.19285527798237,44.247259368043764,39.71333681015607,32.402728602858254,24.685212021552466,17.57471114622714,9.00869400451888,-1.754483677587763,-10.476339943290572,-15.973125974666324,-23.261094111749856,-34.27067067504935,-46.14207129486612,-56.917777324548375,-69.51896453594003,-84.68321288652447,-90.48289338442586,-72.20502386293487,-32.91301061590634,4.684166555660848,22.503922490446076,23.45400450250466,23.417503731889195,30.458303698212358,37.34517464055167,39.34687504862094,41.70921465081372,45.52210228865218,46.56942144973297,45.566386881887496,45.27119431233924,43.37670470610458,37.02513670998419,28.025750422961046,19.751428179619115,13.708028307470562,8.247094140997639,-0.7991960332730341,-12.449437696114332,-20.76317654136507,-25.819855405910353,-34.40638239564629,-47.941075130437675,-59.78084685893684,-68.06978344434725,-79.51200221628577,-95.31504456640688,-98.64405944001864,-72.74287309482038,-29.694383284265143,2.0500457778538825,14.127196668013124,20.206031953656186,29.394081467008544,38.518328426171514,44.06280412560467,47.38236450692204,49.32994250808746,49.79699619044305,51.016166848326655,55.914470529489996,60.0255915755463,56.78641810969815,48.78858179106299,42.248434702501136,37.23798608096835,30.860899210376566,23.538322463970378,16.56412888349087,9.81674065954647,2.6686740786360734,-7.224312082483413,-19.062741229238238,-28.442294243829625,-35.291572344019905,-44.934404791763335,-59.318621589333645,-72.88500431908739,-83.6545359015514,-98.24232697020805,-113.30012953919463,-107.92518373543668,-70.8497764865426,-23.31742127574854,5.539639369322328,12.095620220710448,13.044334240403098,22.294574359379457,39.35113363506279,52.08185638317379,53.230596782078045,50.022730619168904,50.41814881133627,53.65059436158644,56.86814825898595,58.65136848939464,58.31954321236748,53.82886522543186,43.92436023341217,31.39974166789432,21.996342299906306,16.528480880591793,10.14783457285704,1.3879632255196173,-7.6308180203775775,-15.126019857849377,-20.505544136301083,-26.417865490642786,-36.95378243568109,-50.511440248209254,-61.79456618068158,-69.64050057671136,-78.91502706233044,-91.6661995664202,-94.33665284137727,-69.43890908347348,-26.39516475005808,6.584933157182505,20.300538304432372,25.225701206390866,29.881936718735435,36.249366277250466,40.85809014995136,39.54050586812426,36.84297555416573,40.641521392111045,49.94310117375955,55.768105560404834,53.177798359775416,49.43565611799202,49.324729540073484,45.88473658693332,35.10318914520403,23.975368259309732,19.085539353834406,18.867139376397315,15.665094158956935,5.469109944182085,-7.020114657636258,-16.94287553096902,-23.93229487199937,-31.325719731822197,-40.91913170095318,-50.72000289870753,-60.65150025044513,-70.74056769904887,-81.05290465064473,-94.99690848521587,-108.92358762868187,-104.92830349679313,-73.3047322463935,-29.90306936486471,2.067497450254898,16.01674045355487,21.289944385936913,27.664163134563026,37.63553820386518,46.5092413410428,49.27864283803147,48.80476536291086,51.2492737159151,56.014069973948345,59.10504379395738,59.424747932900544,56.84733976355104,53.08623816672951,49.802509079057536,44.08541053340333,54.0,122.0,89.0
-51.34128725009739,-59.7043421323891,-69.97937960312657,-81.54386700139253,-95.2653431463985,-104.97253484227541,-92.07303014102841,-49.77139420683074,-1.6163225359510354,25.40327563136845,30.618401388107767,30.666619039388184,36.51449011036142,45.61079435559024,48.91090873216443,45.39058915586436,43.14901981160788,46.64045406274897,50.196450555223045,49.24660612585833,46.35021215330518,43.22684209809899,37.81797543623414,30.10457522406307,22.614944663253823,15.371959142743455,6.0051408275009965,-4.691900378750609,-12.2282363919584,-17.676156848469812,-26.143348164070392,-37.76593881285196,-49.33388289143556,-60.16530590230516,-73.91112179375213,-88.10707791797478,-88.01704797656073,-62.23360802168164,-20.74363090534663,12.14255547313411,23.895633523773775,22.862052916751864,24.842713312620457,32.912915112026496,38.28428244653956,39.755376971376535,42.849475766531114,46.21701646312498,46.310585221045656,45.40962772217653,45.08181020562356,42.00516268360214,34.53295885558864,25.447209797473025,17.774665940021787,12.250079720858048,6.128281704473052,-4.157933204890665,-15.381488791448513,-22.305990359387376,-27.66154548459641,-38.04042683399433,-51.81668626162218,-62.34379965748468,-70.7173136360414,-84.03650634504578,-98.6227844951816,-94.27755538731601,-60.77963924423304,-18.384718851076624,7.148240311932823,15.820880458680588,22.524349195332213,32.29980135569944,40.47966675298854,45.16921780035736,48.09802969611294,49.59048531289384,49.883510441253755,52.07153261940524,57.56926844111487,59.93069957501852,54.63639360688546,46.60707313109803,40.79122950885967,35.59593423497119,28.74957839649641,21.48540087435361,14.59506775024023,7.874151630843392,0.177952710481015,-10.636312028299496,-22.168233867021826,-30.497868782065648,-37.54627588313394,-48.7542265814934,-63.61187195971728,-76.06436581124629,-87.23254249553291,-103.25592185268559,-114.86408885318906,-100.12739653176416,-56.65404047202418,-12.302689761247066,9.158987994823546,12.117234687650067,14.583359578319337,26.83284213044809,44.064170984633144,53.50905423782203,52.24342164391305,49.668762476007394,51.20962989826327,54.67187646118929,57.55757951299373,58.828243894594195,57.562065521947844,51.48907694879886,40.33200495946446,28.155981730516626,20.19878185735289,14.96150942310209,7.786648647964742,-1.2887359465233028,-10.010109922652768,-16.863316404849645,-21.94246651055848,-28.91013368151885,-40.801107934675194,-54.18370120091637,-64.28739468705919,-71.8939243621116,-82.49538649950117,-94.45505709785449,-90.24720896130847,-57.61884602563058,-14.849091223187267,12.21647987317653,22.100737072873482,26.41151100100773,31.59506673937093,38.027734219966064,41.09033427161678,38.47959412178262,37.10154389069768,43.07753211547188,52.41914204868391,55.749591008951704,51.76813479447235,49.18087611970464,49.073097982485756,43.36728260889745,31.50240267824874,21.831776706251148,18.816027871421298,18.606214699480155,13.344636955077865,1.8071821968746948,-10.256047654134914,-19.16196971962469,-25.854655983418983,-33.93153718349153,-43.79983214886401,-53.527116508356855,-63.604572528150264,-73.58507188008603,-84.5828715595996,-99.62607257506723,-110.47828729312542,-98.37624044019013,-60.81852901434708,-18.778562544970754,7.703679046184827,17.896921463454145,22.74990793164722,30.27765300358533,40.61739162073072,47.991486812910736,49.146453652581876,49.080805404543405,52.585650000449995,57.18674023040137,59.48361872180551,58.96509702208282,55.74077146960055,52.1414424937218,48.57558679896199,41.62010092545379,32.030471029410954,25.67555220778442,22.969619781292977,18.50428216371097,11.521941157041292,3.490740678989734,-4.723470982696392,-10.900323205785641,-16.856144044156178,-26.581207518778015,-39.27876370880866,-51.724644173124794,-61.78166742840192,-69.60848628538106,-78.45535339958374,-91.66889096252291,-103.58364757836623,-97.57543615202904,-65.94099319164056,-23.20815385724584,9.3681929646424,22.93606191881225,24.157362048551395,26.523386453160644,35.43402466170382,43.419611817979934,44.02378490600513,42.52127984588848,45.500875807220254,49.134721910334164,48.94930186858885,47.602491636098286,46.8047750094807,43.2396624127278,36.56277626797999,31.616422296141433,28.2942301850771,21.72540521491956,13.839225635466251,8.810746670320837,2.9677804064566726,-6.7875810728126105,-16.914936515386493,-25.665590522035956,-34.72293850916249,-43.425181638531456,-51.46112051755852,-59.634601248632286,-67.69830557579719,-78.52578579379542,-91.51725026813759,-91.59617040720332,-65.50431446603685,-24.061172152322175,7.270636300747226,19.088704506623454,22.178274230670148,26.44130371716733,32.57642716158836,37.07021328425119,37.068801647809956,36.89861636925087,54.0,122.0,89.0
-55.35528788413098,-64.67166305048802,-73.85454334544461,-88.81120094588465,-100.28314328679595,-87.22928140516676,-48.03055182034971,-8.69895260642978,10.732770608465326,17.44347403937319,25.172526378505285,35.03925092788806,42.120561805401984,46.146536577114055,48.69604864278617,49.72517166791747,50.13199023707728,53.476792963881735,58.946288878656226,59.115109566955,52.26286965435239,44.666569785059494,39.38830043808585,33.781281057130116,26.614295070968996,19.46906626420912,12.64256788488128,5.869354011280184,-2.6163535464925007,-14.121955564204692,-24.95820975639768,-32.415415816991604,-40.19665441924996,-52.93011894937199,-67.64391235428155,-79.0774101178119,-91.34169080075814,-108.01592907004655,-114.08370865829747,-89.68108217161459,-42.4287963184928,-3.4213922534082855,11.145671880950438,12.16203481188463,17.04506696673346,31.854089401425835,48.046759419215334,53.93947752627064,51.19150115441927,49.7181854387533,52.1533539939725,55.635875847838236,58.108055476685465,58.811334831815735,56.38593001543119,48.69516310930262,36.63641185440641,25.32427273051746,18.653336059987218,13.187047022522085,5.256091021540886,-3.9281907335988953,-12.227591467634975,-18.421942842193054,-23.53626076023437,-31.871049666108863,-44.780669621770656,-57.5404879243386,-66.53027566989886,-74.44066223747777,-86.32465675546975,-95.87357467336432,-83.52873690969679,-44.894062234251095,-4.826666142693819,16.33108912654131,23.49166689266561,27.702343074819307,33.453564966993405,39.51306595514892,40.76666477551266,37.5306579692202,38.05231258228073,45.83795308461388,54.333751392651806,55.02772427389962,50.54585978117418,49.213965104142346,48.28476970426555,40.262489912912294,28.12496243086392,20.299210615505736,18.817850703916953,17.868272350096863,10.444019477963147,-1.8738766903662498,-13.19827948045594,-21.17264703324779,-27.920831830737544,-36.70988916958285,-46.63576757723065,-56.38260881334429,-66.53806577713497,-76.48361309232018,-88.53409968155708,-104.00973512115537,-109.98701232251864,-89.51439254055695,-47.97380443063949,-9.103803010772186,11.900332491966392,19.362347706190974,24.486687102090208,33.17130512377679,43.3349083729431,48.88329925935277,48.916712143655054,49.71782339396046,54.01488155778681,58.13850863109737,59.63517602194397,58.253335256597666,54.617947370465195,51.23832681282478,47.029608716614064,38.8876848085233,29.64723150407918,24.75327300294593,22.02399847274203,16.648618382791682,9.295073482422797,1.0399837016883888,-6.7628108003494445,-12.422331578806663,-19.209048947256537,-30.090813936402775,-43.022415264134665,-54.9290337779253,-64.17950986875483,-71.86027951028191,-81.80722307807753,-95.87123706615994,-104.42486358268684,-90.80599690411955,-53.70484959814878,-12.03946012748906,15.202239910225142,23.968575353423578,24.21131901729614,28.576660686120977,38.30507894106533,44.33160572723554,43.371125458770095,42.900087804625,46.815841578676604,49.454653184857975,48.49575975057064,47.405193597616204,46.21685139213847,41.44677807566847,34.7808119170765,30.72125670507348,26.834236060912797,19.294018459818755,12.116880902689937,7.475006820656417,0.4806929959899251,-9.875855420658775,-19.500421864453887,-28.235713689035677,-37.329784230230125,-45.77147418658107,-53.812091501582664,-61.945185053029206,-70.34200689417992,-82.46978188606246,-93.74599223430936,-86.8015141351332,-53.99232740229898,-13.040084484812704,12.430299153134733,20.25624395238767,23.12144480298922,28.134666517548535,34.24159469255629,37.505161122514146,36.67991147661952,37.818928779726136,44.351396208951904,52.00192695174504,57.028948244136956,57.532206269032486,54.224897177896054,50.91873506220548,48.397846346434825,44.06036564941136,37.220252120530816,29.7877266953775,21.998109962183502,12.110019486094565,2.3994162687427942,-4.3376955211310735,-11.292639795794484,-21.168825111073662,-31.566989805456974,-41.23309534195373,-51.51744894826409,-61.80138530884373,-69.59129083979894,-75.47569976784257,-85.00317686306644,-101.12565139162709,-110.5888919879751,-89.49750129423471,-39.622722487197336,5.312438231611244,23.949641351430024,24.79551482591398,25.045343031833028,31.90542252529883,40.660906816729955,44.493301404620645,42.77902484220849,39.266827054407045,38.57947662768021,41.93592903384564,46.249637240334955,48.57070001017835,47.32921610890927,42.88527565965031,37.174452196429954,32.57726663113176,30.246825034547083,28.64649968324353,23.846570643442924,13.757658742535869,3.378232011312935,-2.612166469230207,-7.342365425469766,-15.40562615618082,-25.541310995298335,-32.87929523408554,-37.96826641710602,-45.75930740706955,-54.9243212002841,-64.86220891828917,-79.99802442671412,-94.53718482563303,-88.60727380218327,-53.44787518764338,54.0,122.0,89.0
-14.257673396908249,-19.859137664628765,-25.41989106298882,-35.26642231864952,-48.73623804290149,-60.53575334918173,-68.65540553453637,-77.39949775052574,-90.08191781309453,-95.3568248617273,-74.36574364950418,-32.09866086935744,3.4065154091758285,19.25625383590168,24.691778296088465,29.152305064433268,35.37550371771105,40.55674439189535,39.99568242160135,36.939052788072864,39.68350348380835,48.67976517630583,55.50463345744474,53.82091007477904,49.68758662387643,49.32162558604655,46.81077030798902,36.77317916523744,25.16310116461228,19.349084702882173,18.88115232216484,16.51445782619967,7.106873043303734,-5.441658182840742,-15.830364813621276,-23.067645666112444,-30.197712892568877,-39.58395887399345,-49.43366074051898,-59.294578896661214,-69.42495894856765,-79.54857276296546,-92.88926130446157,-107.64979561963062,-107.10699048203905,-78.75296309796241,-35.425972918773,-1.070896825086176,14.92863053806637,20.675043773101365,26.575916055766736,36.22078936430885,45.62878466440714,49.249890761505924,48.78631036024701,50.699783809760426,55.41116756917323,58.853927402238384,59.549098211969536,57.327686386669335,53.549684981615755,50.28806380882703,45.10397836426555,36.035843522724036,27.696747896342796,24.032079316044367,20.801407679382756,14.637913666649188,6.991176736767731,-1.3874863441458425,-8.573440157387234,-14.043693427741587,-21.946912597762935,-33.77313678310891,-46.67190006347837,-57.8925082774388,-66.42669005575226,-74.30469909114939,-85.58914024249879,-99.68299762303542,-103.29599797698988,-81.9193311203271,-41.09687935775872,-2.1860295091430153,19.39748415019533,24.266390893439503,24.697709001714106,31.161600629693442,40.81741694843956,44.56913679650299,42.791148525509946,43.732391598332974,47.985267389187456,49.425322082389975,48.06396991058638,47.23435506467133,45.28251513005888,39.4667705503633,33.28161188138908,29.855372555849165,24.992103509223305,16.91232121139457,10.672147803334864,5.904134166341316,-2.3329776164421845,-12.859670008630886,-22.004071102215562,-30.85947809044426,-39.86770927099861,-48.0801137993581,-56.186349921079206,-64.23158808820416,-73.35531918904967,-86.4581660013589,-94.38389120871736,-79.64841247796122,-41.75047468927257,-3.4922181292573478,16.011052519729247,21.069412124140598,24.29969059441335,29.935361431847575,35.65834083859844,37.52947196326407,36.478945006703135,39.257423188860095,46.678711818066056,53.81621327544418,57.698642059559845,56.809729825336184,53.133439469812544,50.2064332888047,47.4332274286249,42.27738266315147,35.05030738473771,27.664162159552543,19.362321130570468,9.08109944063608,0.17868094793454214,-6.096920663231072,-13.894289044003587,-24.250393027568556,-34.388719904524066,-44.099676953142655,-54.59998287640492,-64.38577590660832,-71.3117916138539,-77.56033579575384,-89.16342468507096,-105.64290372540427,-108.37329830847258,-76.8538478968689,-24.571739296519006,13.470166465245704,25.19858683986511,24.344795161902507,26.387701080919395,34.60952663223699,42.43605158462407,44.44389961830477,41.737312294029515,38.61321799060035,39.23125155024262,43.23914397687194,47.223720389268884,48.60181263193711,46.308328022115404,41.259917125277205,35.63828597042539,31.683524302112403,29.850092754605413,27.782710133010504,21.386474997973874,10.456271203936659,1.1985835621996004,-3.8411258998387763,-9.251570574152282,-18.338227785294745,-28.09889658247935,-34.33407902175033,-39.85109033953829,-48.444747330041785,-57.51901402032704,-68.62077118958933,-84.98774823684847,-95.82949327928026,-81.03667546047284,-40.2988965746258,0.727784747458601,21.767059743405675,24.48509108799706,22.311806401609832,25.412611292009778,33.00285636710515,38.12607213669329,38.462121878123064,37.86555181270607,39.609040541311565,43.09596040058029,45.03871596891938,44.59632474829986,42.55082523538431,38.475188460925885,33.03109540279447,26.681567134913553,18.490704981150486,8.275661338742935,-0.5745235765234856,-5.301461293698084,-8.449801274317652,-13.499035058341835,-19.682938348330275,-26.60846871356291,-36.18367379364203,-47.45229347315694,-57.76534024941425,-67.12169946649232,-77.54896960236346,-88.22235637003007,-88.02778953295721,-63.870218163794945,-23.200893292365297,9.461268504265112,21.092416917120303,21.430083141740454,24.654669512722037,34.12288330504455,43.09453184501908,45.25661210634283,42.9968231420676,42.88603690640478,46.39799023780043,49.95635009828838,50.90753263382601,49.46011509433502,45.0149758872604,38.38010373302863,32.77610357903395,28.614094720723337,24.54582059649304,20.683027614497426,17.16854522187194,11.60177543300297,2.2962150730578785,-9.258031928559511,-20.62248367297436,-29.51255286795955,-35.92717895878783,-43.323787879905495,-52.85198381031117,54.0,122.0,89.0
42.79696447695623,33.245277139366806,26.21393345323658,23.33164182734703,19.28926576643762,12.523660696367013,4.610163116399734,-3.7101217301725775,-10.193341731708065,-15.89571524718802,-25.0464663906294,-37.538019574559556,-50.17335802662104,-60.60840254847503,-68.6028051950836,-77.05638519781651,-89.70903251838085,-102.64233319908047,-99.92120757663245,-71.2908410695202,-28.702611562038225,6.107399701014623,22.114419723572055,24.204857691710828,25.792930580926672,34.06357214873949,42.756527272252626,44.2770999987174,42.50825277157483,44.899852038134085,48.8573502988201,49.13704591626112,47.72282496697396,46.982400972048225,43.96747753643406,37.45591114806295,32.082886630896205,28.848360022699005,22.811891892918442,14.74073176374116,9.390389180131034,3.9849833206222463,-5.3591148822710295,-15.675557290622196,-24.500950537364698,-33.50630636503196,-42.32148724203367,-50.388561301271885,-58.55416921169113,-66.56957936162685,-76.80087535886187,-90.09345059867755,-93.0003133922924,-70.37583269782215,-29.50896942247149,4.29727987140182,18.336055141322614,21.807575947971568,25.7166258300419,31.757135134050323,36.721023948661376,37.25154104049477,36.65421443133645,41.12824866369488,48.95450586498752,55.359474446815376,57.94039361813499,55.840553782643084,52.140267645564485,49.52169843532371,46.24452667250003,40.30820582855975,32.891022422947074,25.472473095437607,16.515529837560226,6.1847789810073115,-1.7709574937196573,-8.015646282568035,-16.741710951450926,-27.287518016256847,-37.161666355292965,-47.05796439091399,-57.629393149727726,-66.69875742825253,-72.94216065418817,-80.12684866838396,-93.87492656455132,-109.05633613880107,-103.02318750270253,-62.29909088518101,-10.914184073104133,19.245513419410326,25.400798755526463,24.226186717828003,28.318048015051037,37.267900032439385,43.67211622811866,43.985704617029974,40.656555773307005,38.30900340023591,40.18694517951426,44.5307571813773,47.971848935818336,48.31209012685293,45.04928770878739,39.584338513869156,34.254619610620615,30.985981412372194,29.44988359239331,26.533355113845218,18.487025853402358,7.329017897746024,-0.5700989856264249,-5.1150196792608025,-11.517272244137493,-21.340562799988724,-30.30037673796454,-35.716756042985736,-42.061790461067446,-51.1224048142849,-60.257408732277575,-72.928749066068,-89.60713801262729,-94.8309615402737,-71.08719298409916,-27.185530589765683,9.16909100047091,23.924991074875404,23.736968159864215,22.486718367576334,27.431231506676962,35.00006290939997,38.60628878289916,38.17975085882021,38.074949903625246,40.56931539292038,43.936678366235626,45.098823999502365,44.184162103304985,41.580233251753455,36.99620200713182,31.30617021149259,24.566700579594254,15.66047902295754,5.377709298302655,-2.350929670333668,-6.162918451757892,-9.671364479131398,-15.25884623028972,-21.523277426212825,-29.061176437812787,-39.402432154731066,-50.59200763918725,-60.49525751562091,-69.93253495586434,-80.87308387214851,-90.0219892730407,-83.71156615258191,-52.826944398317416,-11.916035416382705,14.90242759494047,21.595069231039858,21.67686182936896,26.912249473241705,37.17355181307236,44.48334618228095,44.75717422449912,42.53193604533925,43.64311847170271,47.6032179648335,50.516764051974704,50.72952964347664,48.523593757467545,43.18149290607914,36.55581493877089,31.496258140151568,27.454799903932727,23.3740038956309,19.686197118682124,15.912673918649793,9.274587772401775,-0.9175403463490012,-12.669969336469489,-23.52164672383823,-31.504994410357718,-37.808320103100286,-45.95137995082138,-55.56796635638271,-63.22008843565935,-69.4120560299244,-79.67058112276223,-95.27765099530708,-103.40766409382157,-86.488326564249,-46.236104649812454,-7.022608979670195,10.823330719918701,12.687262575120718,16.888397963710016,29.523298250219348,42.4681900639947,47.912338306917775,46.1597095140374,43.90173484178613,46.29326231819439,51.87837173934172,56.842396539478344,58.113665240264616,54.294202048400855,46.63026407655751,38.52027009832414,33.37083085004187,31.688260920920282,30.29475846631429,26.0112430033921,18.56455550394029,9.592507921307117,0.2634666941049934,-9.097823847606723,-17.544436392910136,-24.655756099010482,-32.48920391893294,-41.309832317529,-49.972643877138424,-57.304858317173625,-60.96407959325478,-64.67694333678233,-75.9958713904848,-90.13275492476917,-88.58751879924448,-58.30283009493921,-13.885912430506394,17.114001496701793,25.36646246108136,21.99225527829149,22.175720602233543,30.109958542812915,38.85031310273708,41.87353268457384,39.565065723830166,37.50785286618324,39.42683274181023,42.476204973568805,42.34292916460094,41.22073228993793,41.28678390664763,37.05301369358436,27.375309057699063,20.195729207332835,18.146019180798145,54.0,122.0,89.0
37.32774338419504,43.29511541190386,51.08587122263918,56.58516352131353,57.75276137966932,54.7427797673798,51.276025271028445,48.7811029498972,44.806636401931165,38.211919026107886,30.762109467139883,23.139074707826182,13.516545128030945,3.526291316085599,-3.543639561108937,-10.190597027372183,-19.7522088080212,-30.23860792273727,-39.93775617466084,-50.09813017342839,-60.52883432730215,-68.73567971896232,-74.63058527876501,-83.308542793185,-98.85699320566248,-110.6533523505245,-94.46126654984361,-46.80065088754391,0.7285927321241428,22.885881082772705,25.034914706227152,24.64253823653863,30.703163152271422,39.679145210335996,44.35571281989034,43.2128182380191,39.662104638612206,38.402042428546004,41.353814292574896,45.73866372279722,48.450296449975426,47.70811841759497,43.60146996046339,37.92033259540236,33.05931961201882,30.45197917052549,28.945505719766878,24.811939722883263,15.28502264976909,4.530435578016499,-2.0169202200004333,-6.575427561276527,-14.115396742495719,-24.26191382201142,-32.137767656017765,-37.204600844564474,-44.549057725597365,-53.73619784294609,-63.307579074115786,-77.70043728644052,-93.30633358635161,-91.2028429176596,-59.303919948069606,-14.826412884224347,15.65998996084769,24.789778702786748,22.951682216462338,23.259171121174315,29.69174466083551,36.60972921460603,38.71840920199418,37.94407338322895,38.52845573343504,41.61703712636558,44.56008323758757,44.98908992259509,43.6393954422852,40.429540006610004,35.43397462381921,29.50424587170351,22.257624791572145,12.686166708558838,2.7133476358576503,-3.7582963987315567,-7.010276333842646,-11.103629306516305,-17.051110545076906,-23.460020955466707,-31.78115453200717,-42.69174536161342,-53.600255076353214,-63.175987967122914,-72.89862921012889,-84.13609509287669,-90.5134017846058,-77.15019769376482,-40.874315730839854,-1.9500108121507718,18.510911141126297,21.577508071437194,22.43769845774584,29.65066904688059,39.94276603763731,45.219845562830095,44.03805739054673,42.400695701956444,44.659816233737835,48.702029314175846,50.8326121250292,50.36888780107888,47.30041035189889,41.22994820660213,34.89518067088174,30.301559530895055,26.27893658893486,22.23917928204205,18.70806584876943,14.39561560291219,6.6322496359491225,-4.261700229301275,-16.00714655700782,-26.15877326732937,-33.33303184450474,-39.87825866185205,-48.72792374124668,-58.08846081781407,-64.96183758371345,-71.70730353877991,-83.90220404054006,-99.28831967408604,-101.5551951207843,-76.45418071231653,-33.53305185567504,0.6101840457361393,12.17729064171353,13.029715796557488,19.872701851820988,33.70343373097747,44.96104738310028,47.92287984997422,45.21817299676993,44.067098098093744,47.753413362026386,53.52978468560836,57.69493202737262,57.532132394089274,52.348595969130976,44.16311888910453,36.6222681305702,32.62097938505559,31.435309371133858,29.426846331130132,24.124912261771982,16.054212912147012,6.913229269327124,-2.4560432897720403,-11.697500954796133,-19.672272232990302,-26.761550450888066,-35.002516419492025,-43.851132049047706,-52.3410687354282,-58.7660671474611,-61.62884347980428,-67.0416428598324,-80.44005201563908,-92.22853659906579,-82.7356224244658,-45.61678004515581,-2.6445383741433273,21.614267787886842,24.829262612149517,21.21026708371515,23.853800586061894,32.948348732160376,40.43215195527465,41.56208498554846,38.6724956650101,37.6593023339096,40.44268477016581,42.81424333271631,41.88865019445321,41.255310327861785,40.78460021729283,34.542150240427745,24.70127071810437,19.269572538365626,17.63983388597139,13.241819061266744,5.708825059227112,-0.6396101515501326,-5.111542623797636,-11.796778136379249,-22.03447997115471,-31.932620489433504,-39.056001178471234,-46.19366972992813,-54.7418609306608,-63.60723271010121,-74.08555002581448,-84.33402577603027,-81.01125272047877,-53.185394694916894,-14.057646183443325,12.2058942656205,19.823580853020907,20.61273345954692,24.986936385608573,31.535690084506385,34.72783116603973,35.6088934819136,37.835202008598486,41.16036998616087,43.834889938492694,46.95768547980643,50.33544835376873,49.01533718583796,42.44193084783866,34.920841664558715,29.07174254495812,24.52055445767726,18.960206283679607,12.9655662145938,9.497485009302029,5.676053377303124,-3.6028757995731016,-14.976087547132778,-23.071659923159935,-30.20816153292604,-40.784368415749725,-52.856243969966535,-61.353816253414585,-67.67209558143523,-76.55727322208487,-88.94890981943996,-98.75765361826222,-91.87496022160389,-59.492523808109105,-16.4917127193273,14.155205099671093,26.547949061172943,29.09011003534357,31.641078444373164,37.89751779027236,44.577152369542105,47.5120379408852,48.2348675636724,49.7543129985528,51.38273096221152,53.15305850011769,54.0,122.0,89.0
-46.40385818788721,-3.795491843685974,20.247543901175245,24.723968868696637,22.414957901204588,24.614816414864265,31.98834270670818,37.75681442806144,38.57716292810142,37.84589904501722,39.21970340037064,42.65159391970254,44.94164629904342,44.74695379592128,42.93545489788058,39.1219895352031,33.80395879746646,27.601912032747265,19.729917949334617,9.658467000401725,0.3761984791928249,-4.864687888630581,-7.95653461085358,-12.713297162985446,-18.849615582113504,-25.564109030807682,-34.747483347964064,-45.96683114619596,-56.47750504099275,-65.86319596173446,-76.04460758616281,-87.07358779843959,-89.27673692461026,-68.48315803339406,-28.698101610878805,6.299234182195068,20.563818555650645,21.44048257449549,23.810265677825907,32.686096039831746,42.23587445451203,45.36099790291216,43.295834139529546,42.64741879598937,45.83418094695253,49.61384348127302,50.92889706999811,49.801607899786816,45.79441993515442,39.26420678029075,33.40837317355589,29.144883521602534,25.09233669045765,21.15986705873778,17.681859885313056,12.561423325510116,3.7172011432079337,-7.676296995583239,-19.208699532722335,-28.51634093366394,-35.100812617255365,-42.18197797531762,-51.55861056633297,-60.35696887505952,-66.66467533270873,-74.50768311280295,-88.51592760164394,-102.19878769998766,-97.23508620077014,-64.7988129791717,-21.661744254774955,6.1567288010649,12.60875885027492,14.000615433469644,23.516641360884893,37.62967820859085,46.70461835954159,47.423756009735236,44.43896255059249,44.68407945899727,49.38637607977414,55.042123725947526,58.171777585275244,56.51330381844729,50.14147928274806,41.75227967358923,35.04773153877833,32.12804911094269,31.10365376117363,28.261051318388514,22.000061074857914,13.462623098691887,4.219769608470852,-5.174846570676728,-14.180645056292414,-21.706242689127205,-28.993090041910705,-37.56274203208093,-46.36673398031597,-54.549245650961204,-59.86069499344391,-62.50251798485194,-70.19139122935076,-84.83058284092142,-92.46322480874451,-74.3447831758978,-32.429802210441615,6.857357396477953,24.245696978628285,23.73249295527896,21.05173902434398,26.130136281329374,35.6193195121361,41.43482853157299,40.885948567906745,37.96796276060889,38.176832987667396,41.41732067785708,42.81210823301716,41.49322150370016,41.36384165145592,39.725865873471285,31.67902878724975,22.47247835847679,18.71031689063137,16.84317293555886,11.202576608591112,3.602907689224129,-1.9892552946041377,-6.6332523673507575,-14.501901446809851,-25.135215918691962,-34.22561234866066,-40.95819694940296,-48.57757489195295,-57.26735682815812,-66.38123507889937,-77.44285793295808,-85.54615707625108,-75.42880338977666,-41.872395429298535,-4.405956716698852,15.974280114161973,20.111973231084008,21.344422650360723,26.95837365655803,32.90253049337955,35.02270103714821,36.037184248192766,38.787187598706694,42.0118684111615,44.59468474134054,48.08836318347613,50.62105155105162,47.48564486553041,40.19096913153539,33.01950570151333,27.715837285455446,23.094533510473916,17.115639209493857,11.673389347998596,8.733284262929509,3.5966528985840482,-7.01038408475542,-17.698682781118666,-24.98228049442459,-32.83796036502777,-44.3901422518966,-55.7706060420873,-63.175126487980236,-69.82754080932632,-79.88995145764369,-92.54314920796283,-99.19419203838567,-84.96453915974456,-46.9912321190815,-5.707529134632777,19.38977217599691,27.79428041481366,29.513284967434547,33.10604253410514,40.03429259772546,45.86304385571699,47.75553251573601,48.57329358936684,50.26519692062829,51.821517503372846,53.80706296325843,55.30533247516236,52.48252919924505,45.68233587322875,39.115900780982784,33.71162310875491,28.85761629312907,25.17046253288501,22.38367636835612,18.689010472673566,12.51351575105864,4.03344954817308,-6.1708005793402485,-17.0971976236774,-27.41885973369323,-36.46703539622829,-44.99492321819591,-54.812133435817415,-65.10659251641164,-75.57989972278288,-89.69329223904525,-105.45867461395433,-107.89089091539431,-83.11879887108078,-40.84996846055818,-4.288499823648262,15.33629824599268,21.07443651572568,22.069598185941643,27.59999815282313,37.77151407464454,44.88940424997141,46.32623349249152,44.617575523381255,43.105393346678994,45.878970718873546,51.53724780434128,52.26612975358275,46.16298753746939,39.54211976184919,35.710159805882604,31.81732177692255,25.938854575746184,19.418264802117413,12.825813552393754,5.997338516998156,-1.2716075622012695,-7.994124289570043,-12.252539820726065,-16.92125032172577,-26.92878839246398,-40.28054219814035,-52.586183190823185,-62.42281456028017,-71.11480142584728,-81.38820584347053,-91.06910183173059,-86.06116322533063,-55.80878628376015,-15.077634457837286,12.945806777199035,23.01865446253349,24.84310576180474,54.0,122.0,89.0
-54.335118537560646,-62.36773568087968,-68.4858032152243,-77.90160053561839,-93.20452969876597,-103.48796872195896,-90.42199919927657,-52.177612349184386,-11.225271259906538,9.744797160074876,12.65578525083342,15.780772432900129,27.58301949209339,41.082236851842154,47.695418674414334,46.596021668059166,43.97748159298621,45.70708167188595,51.09255739793185,56.33801509819124,58.23253209836348,55.081451674819064,47.76076405044041,39.489628182351694,33.821137845811286,31.80632546568435,30.602942854030548,26.78935039521073,19.683594923408425,10.821028232319092,1.5144825651523572,-7.871297671747446,-16.518035218251576,-23.71610549840661,-31.35893779219445,-40.13054713695882,-48.84767496692289,-56.508609398256624,-60.65701926336207,-63.84217775279649,-74.04106652343239,-88.68467900321214,-90.3976668347079,-63.76437716763512,-19.533235353370724,14.356525843498181,25.30452001574846,22.50016056735464,21.643275171602777,28.80588922279335,37.938350037429515,41.85960756353083,39.99857520880305,37.568540764472985,38.98655131411722,42.20685078461329,42.5325533385209,41.26118143371238,41.37293575654148,38.03742131245276,28.70892292109226,20.78711826062712,18.324307289885358,15.663865320466558,8.987225720382158,1.703884435128669,-3.230253074592696,-8.465534079530732,-17.46859207039457,-28.079500476355147,-36.281728989798914,-42.970858001139455,-51.05557694769093,-59.80008551650169,-69.36014376673278,-80.65029288321753,-85.17027650565103,-67.6845100665267,-30.225372587251464,3.6403893880799347,18.3034399972344,20.208429079981595,22.533369121235516,28.952142510600254,33.88938430743311,35.22967225396016,36.646108536804704,39.77620850898188,42.78149104713306,45.45827081361287,49.172763593782136,50.372978997151066,45.592782413893474,37.97224049935088,31.292449170162282,26.4290563592262,21.5191047694258,15.309562252132226,10.652350310571888,7.777570197627725,0.9798150212593939,-10.403204231566132,-20.073592782114222,-26.94991760447133,-35.83608570127155,-47.98113122339219,-58.29092791530287,-64.9324006305872,-72.30149584420398,-83.4877733521064,-95.69861531526352,-97.80883834276082,-75.87507363130969,-34.23358361023011,3.575462745207373,23.164982138573787,28.497360939798547,30.143907736202927,34.89394578082766,42.066175363370256,46.77058369844238,47.92164647118832,49.01240344439422,50.74279470087536,52.307294647974196,54.45201708212112,55.05500898905848,50.741041815116894,43.628668973105434,37.486794591795594,32.23463989963414,27.65072272642619,24.32996113613784,21.50856263584435,17.178488345028573,10.271413563691913,1.234644158043484,-9.316984397157482,-20.187835208171844,-30.169219138203093,-38.89542523210698,-47.668461822965185,-57.82794812910783,-68.00099385330297,-79.14606682012354,-94.51542275607366,-108.40147060234962,-103.63811022790364,-71.65834696231047,-28.857433471268596,3.1735784976404577,18.086809781980993,21.37027124922551,22.950825571567393,30.372632608909182,40.424434873732665,45.8083851167941,46.025546458074366,43.97302190476044,43.347926262083085,47.52502983424567,52.55712835171748,50.99526837870902,44.01294846385416,38.201354589332404,34.76194006543464,30.287718399183206,24.062491363967847,17.528467482106233,10.885096424958526,3.9432153723459913,-3.376647685865882,-9.48416489043741,-13.27860475020651,-19.200417901875884,-30.678708105473135,-44.062362789670985,-55.673385089461604,-64.93188396894163,-73.83341803450045,-84.646966674478,-91.94041202170013,-79.76982088637273,-43.93443398110869,-5.017889944205051,17.417577423864277,23.854119976376154,25.40167009934534,29.871189361115096,36.85711006049003,41.661611838545916,40.91417836136392,37.43194903292201,38.698931559378615,44.63953367367111,49.25939419005408,49.78003197915628,46.02664462965243,40.76424882254085,37.01435305399472,32.901514059179725,26.9676444696451,21.53836968845298,17.299157559243323,11.453444775850032,3.379504065706019,-3.877674582090032,-9.806456774971904,-17.57597502366978,-29.63798043632818,-43.02246087340385,-53.519994807145025,-61.126802551682694,-68.79471050805968,-80.39192647416817,-95.95736563455199,-106.28859613063763,-97.33131164706685,-63.4500365516642,-21.742260496010854,5.147366805653935,16.36689318290494,22.841640954444166,29.19887677350837,37.42020037043647,47.65011089256834,54.03691827552336,52.56228147625404,47.534022618815854,47.02256868552161,51.34240463307198,53.57042989595971,51.176109997581264,45.92994374514509,39.91192484485047,35.124372678263576,30.688151169050453,25.45210478948301,19.08103666707593,10.973128282071356,1.9081746994655069,-5.330064491367599,-9.63123999302784,-13.506940089201459,-19.618737330464427,-27.2461166311362,-35.27727211688741,-44.50039030729184,-52.899399402972854,-57.11149481570371,54.0,122.0,89.0
17.9008869058036,14.088310811026243,6.7292513117290955,0.04604084836840046,-4.488155021094734,-10.661049067473419,-20.583787572426637,-30.781437414143653,-38.192482857090866,-45.13992413004115,-53.57631589142049,-62.38229533279735,-72.55512692641409,-83.36493756673156,-82.82624596015128,-58.09241400208078,-18.952122291754854,9.911915833009541,19.527617199129796,20.415944761105298,24.138855452835173,30.785337596727736,34.52814496991196,35.46475815711315,37.427477623383815,40.73884022832148,43.50284882938078,46.4565647288409,50.04839870757035,49.56584194956339,43.46622649283695,35.85209259623531,29.737033416858846,25.138064656205866,19.794197446887864,13.652930178061796,9.837891893176474,6.451105240923174,-2.083718396748771,-13.602230455233578,-22.168278540900978,-29.11345043369115,-39.16522218138528,-51.3870683770913,-60.45301428406046,-66.76627190202817,-75.13167858715465,-87.22632071818553,-98.05444327505057,-94.27865937391596,-64.97698594060263,-21.886102330118863,11.202562278000821,25.7125927247136,28.922233157867325,31.08656425833606,36.9183018182485,43.8592764739046,47.340190692534684,48.11594671083314,49.51475828875013,51.184909750772086,52.86834475905934,54.98440504037318,54.34413944741944,48.753112643059985,41.69508128178072,35.92573304530276,30.806077867195302,26.56079470362798,23.541189444960757,20.49999424804236,15.439999873867874,7.854384939198967,-1.6971828770939619,-12.489376668654002,-23.198661266611342,-32.80315183306757,-41.32160734608878,-50.4892914695703,-60.823611405862636,-70.94709806673171,-83.13102699773455,-99.31100388905702,-109.73576129821951,-96.90428216275869,-59.26804247686809,-17.888330113508697,9.132202944874457,19.840125185776863,21.53213418555141,24.406641066512236,33.39727105720734,42.62295408497353,46.28008596287668,45.53424948102146,43.437142593729604,44.051959645734165,49.276688949251586,52.951279616827414,49.22952789574842,42.009571893516416,37.095632839535675,33.699044968381465,28.59568166446521,22.175041152942505,15.628750639749024,8.92210544911968,1.8434691909639185,-5.3848279395708145,-10.729573071144436,-14.48738917270546,-22.00943691694795,-34.57635726180071,-47.676368032323545,-58.5460377377061,-67.40374552817076,-76.75965614679363,-87.7124824630352,-91.10470324090474,-71.29420209843303,-31.82370057359398,3.5063754174075803,20.48648904224738,24.310931464924472,26.265746266958597,31.813698305850632,38.68043483172197,42.055477891753824,39.846364665671544,37.09498266451703,40.19487934841546,46.32100894877017,49.86492180446473,49.08839771345725,44.45833875871283,39.524005709372176,36.00939221594591,31.314707600422935,25.229665476197177,20.28286433422938,15.900452486619393,9.238324851994921,1.0837546602737196,-5.632320384233091,-11.682344754104248,-20.64529036991623,-33.60380253218403,-46.4414618638587,-55.91515292544882,-63.16844984765434,-71.59374604583726,-84.71488232486647,-100.08124346874308,-106.26244636197865,-89.79762725746318,-50.980834565671216,-11.926954054385194,9.499442005972954,18.36960813427871,24.628279751226344,31.27111063351321,40.34101168723292,50.19928946695435,54.39064642514185,51.09273970859702,46.682382123498655,48.04660228709844,52.46559999128193,53.287902663522985,49.87666785414068,44.151232026416636,38.38565530263734,33.887760814288406,29.269490162443013,23.75445943570301,16.930975047843997,8.347082746966384,-0.49024803633368375,-6.818956856288849,-10.634814333376447,-15.006060889671009,-21.762088508329214,-29.49933687229819,-37.8127786450541,-47.217172898105815,-54.5492645863632,-57.958170315005134,-64.35870549158543,-78.94075845261008,-89.66579460698719,-74.31658777055053,-31.57939955714627,9.17608251243328,24.729766180034403,21.595338855196648,19.052027407169348,25.99743880449215,34.440899867312275,35.73952765426976,35.3713218609517,39.564500153871215,44.573657549743814,45.81293224195166,43.71358689795942,40.81118599269552,38.901221264154536,36.76779516985967,30.998834447735558,21.718435588510342,14.056224872706148,11.232392825178774,8.273945933871639,-0.5666713025943553,-12.183683241316777,-20.354559521935236,-24.169102019582333,-29.63231958691353,-41.30443023965945,-53.67242332218979,-61.896436232231174,-72.31753628516718,-89.32721461346604,-100.56167593151021,-87.06072207943953,-49.76335820702933,-10.821567875371437,12.303241580832552,20.697889341816552,26.18873115120526,35.93550428311347,46.24714042748284,50.92091233257271,50.30021887948728,48.52756095248614,48.41558840416843,52.33710266416648,58.38209560165977,60.873668344274265,58.14635987735725,51.5563513710667,42.96568734216705,34.44625927637716,27.327731017859918,21.20839501694064,14.166435122331054,5.1759969448673875,-4.32481937064078,-14.290319939220995,-24.94113140807351,54.0,122.0,89.0
53.501665972127114,55.28117731508351,53.16806701662968,46.65333102529895,39.9004443722136,34.403693547879115,29.450860348433153,25.5854800753862,22.757909677390266,19.309179133100383,13.483869207954822,5.274765328906629,-4.739380068740604,-15.651781532977829,-26.11207084421905,-35.330595819266456,-43.81022429576251,-53.430289476961896,-63.76681635069527,-74.05666568128137,-87.54015406136521,-103.69923946260946,-109.01242176994178,-87.91129213730484,-46.60701152419933,-8.241653442105026,13.678005955867912,20.817469920773863,21.82486747859122,26.465484512689194,36.43305936570756,44.296872753113426,46.382074306820975,44.92051686267606,43.13340816512526,45.21184649383987,50.89897899383828,52.64269273113909,47.16153664216134,40.25466428328207,36.134822565661146,32.45744164800842,26.792825061366674,20.28806786787263,13.714222665432448,6.9291100848074105,-0.287674869245958,-7.222210770789357,-11.792457177533626,-16.046948879381418,-25.28905871811636,-38.49501232109292,-51.08746137027533,-61.23339994011904,-69.91843925413725,-79.89289038312744,-90.22228449089081,-88.17944764746038,-61.00875699030584,-20.150246632080524,10.353374768426116,22.422990688286365,24.657937423964157,27.485898976449317,33.88119771379008,40.19642596588318,41.928050427580025,38.713613879128445,37.33078507111765,41.95843268266406,47.748564081198296,50.10652174401739,48.04437233456435,42.87903825391008,38.44296711338665,34.880744739172165,29.587137794170854,23.615784586437847,19.09465522034874,14.279884509166564,6.878505322574529,-1.0580516462374012,-7.312232208047306,-13.81640473106227,-24.093688252777785,-37.549687704742965,-49.54417521397182,-58.114377194701376,-65.30093667879704,-74.82496582307606,-89.29312342736957,-103.45830777129504,-104.25923136335582,-80.21320203403349,-38.52771935501323,-3.777062512269203,12.787084338929105,20.221374556873435,26.43502432530725,33.572786508016236,43.37305539249624,52.23629519705329,54.0586216762967,49.519733819101816,46.39427836452207,49.3567863565911,53.22879152032828,52.64424972433986,48.3809998668871,42.37177416874185,36.99244010838657,32.62957955008996,27.775076932709904,21.950482598030636,14.619019651153708,5.687484249633845,-2.6575203071351035,-8.073367306719126,-11.693903181785819,-16.73464908391896,-23.974234968282172,-31.788004014225503,-40.47482503229875,-49.757826217243085,-55.793758284629504,-59.059571309656,-67.87883231976501,-83.43432095901144,-88.65904847745865,-63.86322979742828,-18.070119933398498,16.498395632438605,24.889695334923907,20.07252667495399,20.171351698143255,28.875249471898584,35.55773531865417,35.35045963743996,36.128379303497525,41.21762489688902,45.38327828852992,45.44524643142214,42.84329237547395,40.14011706052521,38.45288217129122,35.59001357093328,28.50866409131911,19.07916585244047,12.800093721143858,10.769408144290358,6.352801235736371,-3.9449539736436017,-15.085117948331183,-21.74353843278399,-25.224561305961412,-32.43184785729588,-45.20102821797538,-56.37868999808992,-64.26036810526195,-76.75135912966844,-94.10876343276188,-99.7194501330717,-77.95870000532211,-37.60061540011486,-2.213667595954457,15.784982531890419,22.062605350581368,28.553469734003546,39.19559978582503,48.31109942447027,51.101069962707825,49.75735127564213,48.20980947848808,49.08216082652165,54.12472220565339,59.64599449911581,60.58052508496608,56.56266191690577,49.18807173554555,40.41303454652145,32.22610077615376,25.522819544426138,19.365307932296,11.73041588709215,2.4246532255102773,-7.102580519170943,-17.361183559039006,-27.868954624544426,-36.73477704372862,-45.116180830982735,-55.97740187383169,-67.91264511393128,-77.0006537106853,-86.33270418508691,-100.90947865963068,-108.4152336179088,-87.6292117672592,-44.36604231387927,-7.647299853078302,9.033200188386385,14.019142959757383,19.1986069455331,30.343327678567274,42.35454678929166,46.357007777530626,42.93787970787209,40.97436400529341,46.05761248695028,54.43132691411793,58.82126573549368,55.02035321416223,46.900520604419015,42.58633242264288,41.23423063197983,35.340036313785085,23.72170640502652,12.48159324891057,6.546498018159759,3.504886079548188,-2.4472287627087796,-10.464486286929183,-17.734348864561753,-26.253764230806024,-37.61545674096891,-49.47289802622538,-61.94495663241541,-78.1567477310213,-93.98995774997658,-93.55894032176641,-66.36207269729472,-26.426463469063194,1.903380855205003,11.904107150468993,14.811586613364591,21.067926498530504,30.680662325751147,36.75045585373917,36.0994426069686,35.19502695554682,41.34892918316626,52.11845487892049,57.22854792102382,52.23831886056902,44.07879757397623,38.27761166616611,33.50053581588895,28.845629831144223,23.384883265820225,16.086511443139457,9.550344813181514,54.0,122.0,89.0
25.11180887070507,29.050049045978504,35.944048478031085,41.307529129792464,41.32355145451212,37.75432994497829,38.14715592988422,43.80646675133545,48.861141591557974,49.971464300004605,46.71176583709993,41.39570728101664,37.45941985325796,33.571563722194206,27.79322393201722,22.158443623182624,17.887751521001075,12.40326485233445,4.474566894660894,-3.0255438003140482,-8.999563350189444,-16.298290625489372,-27.8412289713743,-41.3488365876591,-52.33218307525832,-60.1897597670664,-67.62729530780982,-78.52934378871984,-93.90054880988038,-105.72265749073715,-100.04688656751486,-69.0038406497383,-26.770781525074906,2.690579866961411,15.34772942422647,22.01855152787895,28.301379700633028,36.14495611302757,46.349605814766456,53.63130577780806,53.14046043697528,48.08580398738866,46.698322004287895,50.73945336495085,53.56325771439541,51.699149969294666,46.729579263593955,40.66174646893915,35.699996031324744,31.3168589887092,26.20391448526675,20.01958783898294,12.153662242803344,3.074245269824904,-4.552256724801844,-9.161816935525586,-12.890827413154247,-18.67004923898974,-26.211681328422483,-34.15147387642254,-43.22467828381792,-51.99639276180388,-56.73270457224907,-60.67583791933673,-72.102694080938,-87.10655183016496,-84.92206809296111,-51.465167758556944,-5.647856200009986,21.423626534276615,23.923265367197548,19.06687605233897,22.12579906523405,31.532959788277765,35.9849880497493,35.09501402440203,37.31531568670957,42.76760818331445,45.815805379099345,44.851545593528115,41.97271960606775,39.578721538304556,37.91812911465993,34.01874202494257,25.79349545758802,16.733188474509213,11.967721504769614,10.078003030194362,3.871542758995411,-7.391969971618582,-17.56329081772744,-22.820754317850238,-26.628252231183865,-35.77729176169126,-48.91821228724297,-58.7218672060786,-67.06802134697531,-81.72686698417998,-97.9146400543826,-96.39610633865284,-67.19374258522306,-25.947970192430926,4.810581464640028,18.24688804681513,23.50847731740142,31.339149984916805,42.3175692228924,49.788606684284716,50.92972335529356,49.212451696905774,48.08767140221002,50.14530757116232,55.96369901298231,60.48376854323526,59.86664779463984,54.69733092144605,46.7010556305667,37.91678274706024,30.142893572564624,23.772740997484192,17.385174940213155,9.136985848661942,-0.32047494395237996,-9.953276809753469,-20.467551105127928,-30.63378699619624,-39.05309401975943,-47.94151382291933,-59.52294647027733,-70.88718008547103,-79.31566950930456,-90.1032007537737,-104.8844504834184,-105.80135781177181,-76.25727407159,-31.936220174377787,-0.8923566577979768,11.097441713420308,15.070568031733746,21.81562735913856,34.18654080245904,44.54641825644656,45.81073360064894,41.80584250033595,41.7286773711124,48.465211723638085,56.39637053184926,58.58113295030829,52.71795367871488,45.057498127287786,42.218538269297035,40.247184933820755,32.37390521325619,20.119491226480083,10.169975952921117,5.663420836755224,2.2124560891477056,-4.751023819840995,-12.632330346523995,-19.916231343548827,-29.30510239484576,-41.09689401095101,-52.86214666713613,-66.19086251656036,-83.30138097791605,-96.34621132462962,-88.32831480046977,-54.962966178002716,-16.27573253091654,6.367406569312722,12.8481371533758,16.068893853425493,23.750243129922822,33.11294688032445,37.12407663905271,35.43566624349476,36.12662292401891,44.383124451036416,54.614852510731275,56.668485166904205,49.7995575288125,42.15060800256851,36.88216871491146,32.13927207428789,27.45041726132146,21.398500514597302,14.007830277959712,7.890021076248803,0.8005329892868749,-9.903415557341564,-21.85597683741524,-32.78687461518961,-42.7739008388752,-52.1387028811106,-62.58200025891806,-77.9246271601241,-97.97193681665098,-110.23093970856671,-96.75163746241888,-59.72046124553041,-25.17326731537463,-9.378523214442092,-2.614051233980421,8.978972583934617,27.797511396981946,46.46890633099222,56.4397012051241,58.153692001344574,57.00521706411791,57.29437959654607,60.21599886867626,62.91865573216728,61.34989248342766,54.9081641596665,47.10317619084663,41.30749901512522,37.46343031402306,31.465781952618777,20.733251235841188,9.562710623912404,3.276584157555595,-0.3673150150364537,-7.618213926547484,-18.798092847434855,-28.520995841901943,-35.80813177532739,-44.55684334484754,-53.97068204963379,-62.288476253645435,-73.09599539585369,-88.27971236042758,-100.47175943779631,-92.40381953643903,-61.04415332237809,-27.66538062705346,-8.272085405971875,-0.2943900575723146,7.1779871276317895,22.860798426851648,42.69665233737077,53.44134076706491,52.23012309467781,49.09063405954252,51.60073175019143,56.81629409642222,58.673028267553136,56.90013418983001,53.4679366148442,46.5283117071277,36.827592046451706,54.0,122.0,89.0
-57.55268461007414,-63.009377913758414,-76.75955824056162,-89.31440002436781,-78.30537618618428,-37.93990570453395,4.99902934907157,24.132141551739224,22.368178077398532,18.847309857673412,24.693097374191915,33.6785799972761,35.890203240479956,35.18149506445133,38.81359568838148,44.077521065591604,45.88875863999808,44.09722109227565,41.15712681472713,39.10407594656107,37.194018655751634,32.0396780355585,22.994088914754517,14.794147947514475,11.431642658027748,8.965431646736876,0.9168158355333432,-10.727852020490088,-19.578414156617487,-23.742768482970497,-28.54670544005031,-39.51165065486387,-52.274617612474266,-60.888762924385816,-70.50026939574427,-86.9502990740158,-100.17879963451557,-90.55507690036433,-55.380182873187564,-15.294565254618137,10.273109432894312,20.01917615130056,25.24927869843137,34.44205334728435,45.11220951046093,50.68614518048283,50.53020412929215,48.72163926143946,48.23576475921242,51.576529625974445,57.67815299453934,60.85792234452587,58.76993370414025,52.59385673698865,44.149257534561514,35.514348176891524,28.18975333741643,22.027319799111925,15.226775537644487,6.438962041198441,-3.058484931298351,-12.899673545067083,-23.54793540633534,-33.22051925251953,-41.40829529028233,-51.03619393316803,-63.055057204722814,-73.54202499134082,-81.84199464192754,-94.3727590986257,-107.71386234345286,-100.37371282837431,-63.55700445692326,-20.811299431126976,4.162324608683135,12.506086600541602,16.402469648418073,24.987356636194328,37.8573155096992,45.89113562493235,44.78469262760095,41.0523256849883,43.116614586295725,50.975878138503084,57.85469050982822,57.60080003667453,50.25662012082288,43.70897985395824,41.94427373294441,38.695724481450526,29.006758576906154,16.735669106972658,8.372152949296364,4.874443704877895,0.5550294557343172,-7.111938581473382,-14.713773315319306,-22.296252958009187,-32.58487518902001,-44.53688471624298,-56.3712844112099,-70.82471366589364,-88.19207299380172,-96.85381887368068,-80.78537686807375,-43.11265567301406,-7.635742426984387,9.391117048502588,13.569574395466843,17.77421077811789,26.605374729147364,35.04732072034178,36.95277433066522,34.9935310191641,37.772126940725926,47.62208973210887,56.35165845341876,55.2892538782531,47.34862208104322,40.458748866054,35.50689126233317,30.798143695119077,25.932891441961818,19.26712755821526,12.086741392287419,6.149757893168074,-1.9536362820418272,-13.384721656654971,-25.139745990447604,-35.75204819489971,-45.520291059078616,-54.89246686838428,-66.36302727924355,-83.50719415523467,-103.19640510463181,-109.48026798810103,-87.56289235098912,-48.25269512459915,-18.724877717051562,-7.268494779130705,-0.09770170135150674,13.857363055831325,33.67718153473038,50.42643219667845,57.54488905434635,57.89819158733142,56.80211282276271,57.933160884385885,61.21133033960395,63.03472763324315,59.878441881737814,52.60659216571313,45.13820399667944,40.121025954506706,36.17186911728787,28.787245973584444,17.23908947749812,7.166796625938196,2.2528152369980448,-1.9093988598647555,-10.649904451278974,-21.96252097687198,-30.710502561047708,-38.0834646933835,-47.380771422402574,-56.39631368361644,-64.9672039151225,-77.11923868835393,-92.78617070246533,-100.91339397375215,-85.07293453646525,-50.52833299444187,-20.451697154549464,-5.216638799548307,1.397669887754316,10.73210999785828,28.736401848132594,47.19910349353287,54.00510031778678,51.008139680258815,49.17894360132295,53.14951766477997,57.84424138641853,58.399487229854785,56.09758198882072,51.931901386787594,43.769528461806416,34.44626250422093,30.013302413467915,28.356745114349316,22.16736655355037,9.815296026900642,-3.2039277624456433,-12.363272751664727,-19.607462980487874,-29.11050749210405,-41.074522045622075,-53.22151464087846,-65.49408499093038,-80.02595143855278,-97.2915639112466,-108.29380269282164,-96.5903851735719,-60.63948733515934,-22.979526060822845,-3.514197568838419,1.3737836525574185,7.42988283953107,21.66442864926279,37.59004288531489,45.29047766335687,44.91686086961852,45.456987529894654,53.07336524873002,64.20524481339105,68.05044031107086,61.4950453537346,53.25640876249537,48.305509145832985,44.08760623212593,39.172072045343064,33.87605869607347,26.62713068977332,17.472478202562783,10.408291138416994,5.633211684075272,-2.5633636387332825,-15.689623163667706,-28.0758062335901,-35.22981785511366,-41.29451676532265,-52.165706544499365,-65.58836329545088,-76.40569572273655,-87.88776855546548,-103.57488687679567,-108.6457687240361,-86.23526604037195,-47.521313260880696,-18.22497286294242,-6.326985049646643,0.0819099236558604,12.72456848013964,30.749273489874557,44.56649562893453,47.704786603484045,43.56026011407057,41.40766132074479,46.78967591633442,56.069139677481765,54.0,122.0,89.0
-26.537222731906137,-35.65135312468488,-43.898805982685914,-54.37521787370678,-66.43689281318166,-75.94156384334305,-84.79002194930945,-98.8752657947942,-108.72547345716454,-92.21366104050784,-50.37388206801852,-11.37767412618796,7.770930986650135,13.567639100261143,18.189447643104717,28.59128134398183,41.08251038914376,46.38938746953579,43.52477010550829,40.85128940401447,45.03550982676582,53.39667725405956,58.67981132300207,55.95887001578352,47.89345111587054,42.84670485604721,41.531888030888844,36.53442050389944,25.407688659598076,13.718556545683647,7.03648232358977,3.9905072849059033,-1.4392406507773017,-9.428507438940684,-16.770550120962202,-24.939057968204807,-36.01157343390764,-47.921792656292524,-60.113229364023304,-75.79263776564329,-92.4069200030641,-95.15068584899731,-71.27111790612435,-31.512862571912414,-0.7064455776540955,11.298529024743615,14.360704882646518,19.9350144151705,29.43897588695282,36.36472606455799,36.41159612488323,34.99552521574629,40.08866332682893,50.77643297423367,57.173889128885904,53.29559316175321,45.0555844025868,38.94014637377972,34.13284102805795,29.466296884478318,24.235819705714604,17.08235634404627,10.324775229832706,4.202657679567384,-5.020518869432923,-16.8745534989085,-28.315792303930195,-38.651331554883356,-48.217965067239355,-57.80606673827896,-70.65893523834222,-89.40583576767744,-107.31049719190798,-106.175503071821,-76.78466733914922,-37.76127909695256,-13.958455614681004,-5.472331602748357,3.068598467861575,19.28322408598865,39.2855831583799,53.49787240376406,58.08217893948966,57.527755807828534,56.81395929481644,58.77497327515673,62.08769652323741,62.69900122848428,58.04233292987945,50.29854829244778,43.40563760469543,39.05126195118566,34.565700064209665,25.707313703261534,13.882260630223076,5.270269156607451,1.2966747023553165,-3.892359630331465,-13.925327067122426,-24.85494058246806,-32.76487155410195,-40.578368811898144,-50.15848815756621,-58.74641756699573,-67.97536788958172,-81.50880103544453,-96.73645325659145,-99.17494205342123,-76.03257678121102,-40.508018243943596,-14.591590697970418,-2.908990954194013,3.345784992282646,15.122517630301799,34.68693958605693,50.609386469921986,53.684199685831516,49.93642352488791,49.82911527300037,54.752043984706894,58.472794255181924,57.893704265917584,55.174598579710505,50.01764847623339,40.87934078008929,32.546182942776966,29.58328949994428,27.276009099983426,19.076221273915785,5.818527313916798,-6.2797123472023335,-14.441733460604748,-22.012074783218747,-32.42018357028455,-44.629487372305114,-56.6831544943325,-69.35075748156625,-84.88624493344525,-101.83201091104196,-107.8243023946546,-88.02719627448936,-48.69830821832683,-15.189379432604882,-1.28124272183613,2.4081379014118918,10.780384847632478,26.599513947977478,40.91586119906873,45.68042601187683,44.56655791169263,46.877660643203505,56.35745938235251,66.49905303810321,66.95050156020008,58.87398320441066,51.528495937476706,47.15599132891372,42.706151789118636,37.71798822137979,32.06656619541871,24.040131907296633,15.051757658003897,9.001071603339469,3.8510600286350973,-6.011771511379484,-19.661047912340138,-30.668491194950757,-36.74196095917979,-43.86424557888809,-56.07415165210628,-69.04306899938845,-79.29651366018375,-92.24427889735492,-107.18294728254617,-105.1258128475411,-75.52719376836609,-37.23251136918116,-13.299063085222793,-4.610106053111653,2.8723822487124933,17.73496720372498,35.61476784719244,46.61494520619764,46.87708547439757,42.33721669632559,42.17748974294104,49.42276379475655,58.32936936957918,62.689014053731185,63.3593502727058,61.7203040906491,56.65277423261677,49.058464461848395,40.72034065759559,31.390651910721914,22.583201895256096,18.53712077507045,16.735456666204136,9.91656747431729,-1.0454606288515824,-9.475633130350689,-16.04412967166045,-26.307399239356386,-39.39087084812375,-49.320559679423226,-54.77957103680028,-61.37696554643432,-72.38495305514107,-85.30498387907357,-97.30736423976336,-97.86454674077443,-73.66385194621908,-32.16159836830633,0.4334886793626876,10.141150350210355,9.348422203609056,15.54071826101666,29.34168105112551,39.93363330980612,42.45718336068392,41.994392548838874,44.338877858111054,49.32445798207537,54.01269946560066,55.575845444028836,52.558863705098986,47.015487139632256,41.52342766034694,36.27437024648009,31.75008597056754,26.86196611114708,19.90625344920083,11.212203014952408,1.5996786668125802,-8.866702073844728,-21.018771163034824,-33.45701030547425,-42.91936181051559,-48.18567740081477,-52.983708578201615,-62.25393714815933,-74.92988860752313,-87.03564152223696,-94.19398342254208,-84.16091714874963,-50.306358661061765,-12.084412207091168,7.032128920710596,10.531926973629119,15.860046774256302,54.0,122.0,89.0
8.657346868328782,1.9534962875480029,-8.32551278042415,-20.305601870157414,-31.39533298817588,-41.48750777765721,-50.896519433023535,-60.9906560674503,-75.50760113896827,-95.33516832570777,-109.78088099973839,-100.28511573170233,-65.15194314706251,-28.748223462130635,-10.580587594546467,-3.5950050351879614,6.9500658106017354,25.071293205096556,44.36498408157561,55.6965233822842,58.20172291020085,57.15159591013732,57.082107302001425,59.747986623966725,62.73082721686246,61.88382030550244,55.93863015514016,48.07672530885752,41.91697806502504,37.98758673344161,32.54861059317219,22.33977690955962,10.830134099112977,3.8235598581298635,0.21827265884374406,-6.3417137352116155,-17.275769907996292,-27.432802691490295,-34.82238739667975,-43.27033108103743,-52.80486885639666,-61.13685007093527,-71.38198898983629,-86.1310679045083,-99.63488689800676,-95.07644345610302,-65.89714906584237,-31.44025608881262,-10.003723037048054,-1.0677432875058372,5.809761732037649,20.2778787881519,40.31607152514307,52.82045081146174,52.76657241521932,49.24111059957695,50.95837709887385,56.224411156727975,58.69546368508008,57.238020783353946,54.06571211935296,47.711085614786114,38.05293445906513,31.176727491450965,29.218528635259,25.644893164325822,15.520439891152748,1.9480450090003394,-8.978680247978108,-16.47141362727959,-24.692642921556992,-35.88491922577021,-48.14799609954271,-60.18562130565316,-73.46425346635004,-89.94860457813989,-105.49695449430867,-105.03872164590415,-77.6755323258167,-37.3431857243044,-9.212708801529866,0.06533229404619313,3.9312386691229264,14.835731794919695,31.405692153450172,43.34779179441349,45.541594687851386,44.54365314308281,48.970101460769186,59.73770729309539,67.88558565442176,65.07318975513267,56.38185657902811,50.08842965262324,45.96830563435183,41.28026861713345,36.226293976874864,30.034333664739908,21.344458527715425,12.928250655398374,7.702223020753675,1.6181370098424352,-9.817555096712514,-23.383655757691674,-32.7764494919637,-38.35985777096065,-46.929557379663734,-60.0419470086217,-72.18630885857631,-82.44768277698309,-96.9350954420887,-109.31295736445524,-99.06119290389063,-64.07132872992399,-28.321513725537574,-9.75164547499078,-2.9425250980850763,6.3735811597814465,23.036735794952087,39.859923642861126,47.69334448364144,45.62628689789174,41.52468154447405,43.63265877657704,52.20016714397697,60.14350815713111,63.12293794719703,63.16979601909894,60.625615490991734,54.61890503867535,46.695783316024574,38.15847115720552,28.584852070606775,20.842016741427333,18.132497445131968,15.473259759543911,6.8596805132081915,-3.9160907170596126,-11.297759566204862,-18.488869587635758,-30.052614941941204,-42.79897389335804,-51.19490939001817,-56.27604394342843,-64.17328679708447,-76.02679212462365,-89.10131300292821,-99.37844487016258,-93.63948216681811,-62.417777681131895,-20.708389296225146,5.466018021691331,10.036808861445296,10.011248147616062,19.170897609151083,33.17114700406274,41.40093092528767,42.2892400014894,42.27862668637467,45.629873704852834,50.842082601950956,54.896093833038535,55.1570980749131,51.05393087491228,45.39280685266598,39.97233341787765,34.884914856186455,30.481623423202073,25.08222467760522,17.531045030816184,8.502267472274744,-1.2992276509770826,-12.199225249690544,-24.72297142379472,-36.62593104544253,-44.80584997579164,-49.34865244202189,-55.10845596180685,-65.76550138895544,-78.60998807143054,-89.97792513136557,-93.73286978727769,-76.4645126565401,-38.36768828058674,-4.164572794200038,8.836197911354606,11.331247587918668,18.81149083380312,31.224851795769318,40.780968973794415,43.54715746462743,42.70061025176962,44.51473775053501,49.59888212632703,53.603813473515814,54.4255743442769,52.482163556013326,50.54121736585046,48.14391632325967,41.491511826962345,32.75873674089164,28.043216217766467,25.662441850454332,20.253145962979506,12.633962812262377,6.4076493242941615,1.1068462260679324,-6.031664508649546,-15.182067346616758,-23.491812355361102,-30.895711834839418,-40.296954832220244,-51.89125178548343,-62.99239735780294,-73.51545800532737,-86.06495537001636,-99.86491629824891,-103.98184751272882,-85.15157433193568,-47.24466952413318,-11.241749920499249,7.6422896702947645,12.579462670008958,16.554741683811198,26.10596569750135,36.50604230826085,41.499393112063196,41.130176905580406,40.48681725912439,42.558748232004916,44.33172088751338,44.80984864171019,46.84235565209411,47.06454467978511,42.10657682244486,35.978707863214254,31.1383810772617,25.419935591108015,19.326002479260435,14.800195301486568,10.220810538126917,3.7810180736149213,-3.0737744900439177,-9.492825403109332,-16.4881458616274,-23.602418115203413,-29.063934400978024,-33.54124465097379,-39.36795877618895,-47.73955901719338,54.0,122.0,89.0
35.4907728412125,30.291763196851683,28.701922636824914,23.40473810272705,11.653499334670917,-1.6574346415856427,-11.35295933487621,-18.57886825713936,-27.656561212458378,-39.430780302935105,-51.62643735656853,-63.784725256761504,-77.88222701431629,-95.02420625898901,-107.81160927427098,-99.80772877557136,-66.15087070790068,-27.159284288130447,-4.960206887519606,0.97805181887622,6.1470197175604255,19.42934104160606,35.78625895319984,44.87162010044863,45.12762649818007,45.02754367915221,51.665957065884896,62.9053554758316,68.2381496798776,62.68669986671546,54.165626153003316,48.84355149626028,44.70084926107237,39.83842177628085,34.64862455404092,27.756406979588224,18.665004358217455,11.13352094103593,6.336268319195223,-1.1265961086164102,-13.824420238136717,-26.706825706946276,-34.50992181608721,-40.272844083048724,-50.43437549320729,-63.892527824911056,-75.09768065718225,-86.04838155818322,-101.58668722364911,-109.40563795235244,-90.71669177349152,-52.61364917542125,-21.027216188992337,-7.243512132228953,-0.987951236092111,10.576782954211966,28.362822589034643,43.29361386599241,47.87970228345912,44.203601401330715,41.2903602768444,45.68372420768473,54.90326699080317,61.48401282324146,63.33904019674111,62.77302152632809,59.217833734483285,52.42740653686176,44.30379816407838,35.4785434330896,25.92030781783396,19.593466967701058,17.74476978187792,13.62671228266563,3.60817199144485,-6.424283077775299,-13.094521259519292,-21.366225732541363,-33.913015432495904,-45.79250940087266,-52.74745239585597,-58.05493206207597,-67.32912237693169,-79.75587919636637,-92.75225930583349,-100.10133415535394,-87.08920310980388,-50.20800331770275,-10.709573771780729,8.514115738130803,9.585519866932195,11.584851741399303,23.247429276599267,36.44181834084812,42.1960185738579,42.067369590226356,42.89066342104212,47.07964355563113,52.26118920624304,55.451860688833634,54.343134495341275,49.431656607997084,43.80540608390366,38.43719341213788,33.57611543313684,29.12279288869141,23.10801854519234,15.034417803733033,5.733635689707542,-4.282369299735135,-15.693669351021262,-28.380839207917973,-39.46280971923351,-46.34964990718896,-50.61925459066317,-57.69951369220546,-69.45615517329361,-82.17048842125848,-92.3685392037416,-91.4220547868363,-66.81743056139902,-26.81663836358406,1.7537332996692663,9.74175179692607,12.678952162279344,22.222536539767155,34.58197617421931,42.26788400673408,43.38208760617856,42.754856981902414,45.83118465676808,51.019293465833336,54.19949377316614,54.04756528961323,51.81954022708573,50.07441715357345,46.74068312202275,38.8720943815422,30.85718869222529,27.406910610693437,24.514956681548863,18.089924395399628,10.616599426560752,4.90554112778697,-0.6748410013390205,-8.578354468738064,-17.768653610543637,-25.607157864159877,-33.302620439382025,-43.53605794721185,-55.234300550884164,-65.99391896488407,-76.82837575374518,-90.19488191478243,-102.76069656740141,-101.18582536261022,-75.39170160068977,-35.661737608056065,-3.8291168987371416,9.972427904917472,13.293471351449755,18.794671664892093,29.372429893072866,38.644970854006495,41.764349870067576,40.729375131239934,40.85253306088332,43.28251367199076,44.45636873864021,45.22994938250251,47.37898228962345,46.08691163811042,40.22255339142124,34.51373597906192,29.651428141611753,23.570673586953287,17.859390715225906,13.616367977896482,8.536154920042332,1.7500082234441596,-4.935407736507968,-11.424600616409666,-18.617487272996236,-25.387024513361474,-30.35526187966258,-34.99597171110066,-41.52938376231255,-50.54836571143208,-61.03462712739465,-70.71122853844221,-70.70107421550784,-50.93049372764821,-17.791401458995807,9.59081646991605,20.545215036975712,20.08777353933521,19.38906415183287,24.235996578691886,30.75573195733132,32.284195029218,29.850103651899072,29.698724198237286,33.77453506883105,37.96026135757798,38.64715852231064,36.09425548989419,31.37690461471999,25.166002778932828,19.826506713852247,16.143056600705236,10.030204382529266,1.4971749692964167,-3.229070156362029,-3.4585750104340613,-7.127493972938313,-17.670667299388217,-29.51911355913267,-37.96698252909028,-43.73192218959965,-49.86522561321309,-58.35721295221088,-70.3830416108625,-83.32402280814561,-84.96832960091585,-62.914235406639676,-24.09469832913181,7.902952817812607,21.553379118949465,25.539893669751894,29.95236466709477,36.5464960288385,43.09090319699881,45.79437417287965,42.821150191862806,39.06632391420259,39.5600291729811,43.39711442557102,47.120255681034315,47.98495988772676,45.65727065165395,40.12146382991708,32.44794798182358,26.730956524702915,22.84078448474893,16.786977560847497,8.057972106755683,-0.3994180805633387,-6.677645598626456,-10.862915790989776,-14.73947345807095,54.0,122.0,89.0
57.338130365812205,62.39273562720181,63.38873345971181,62.11976145121626,57.520632421718744,50.135646293717066,41.86749212153245,32.693780909658564,23.54461539388363,18.790435522304332,17.143155117313896,11.20274746641041,0.38032803305947155,-8.578567586697748,-15.046863564634677,-24.665430662950424,-37.70965185336597,-48.31543912205875,-54.13975519650678,-60.22862573916873,-70.74733485793266,-83.5460252266447,-96.02059747597401,-99.04826138945103,-78.34351224454232,-37.76713496289311,-2.6008442413402677,9.917436368539667,9.303178666707087,14.095947334652,27.45031820346839,39.006529702980295,42.46219801456547,41.964456784590155,43.81812555178332,48.61140018326141,53.511739453864365,55.63005065228265,53.185951351860226,47.77508759385449,42.240952786528915,36.94212869482347,32.32269333135215,27.616812625672818,20.95381954255874,12.43780075770152,2.9156016995542973,-7.385853881657366,-19.318893123585976,-31.903188996195837,-41.919959942391884,-47.64084550820103,-52.15247425796037,-60.730198712516184,-73.2071537650128,-85.55665024381842,-93.89133097536177,-86.9709320504748,-55.72290568858818,-16.369963808030246,5.754383351631148,10.27709995615858,14.700355690416801,25.884875443608443,37.50703492262371,43.156813807825564,43.06286877204883,43.18039265018053,47.33876116017706,52.24630432076846,54.50494424297595,53.476594982077714,51.24017249952424,49.487716526174445,44.8922928680968,36.23388314845157,29.418291291179564,26.81143098018531,23.016130241497258,15.839578657372318,8.785572671035768,3.4188613061511095,-2.6781111370863044,-11.24990044671105,-20.206532340074038,-27.69802832402021,-35.95527744669445,-46.90796422024637,-58.4694583492589,-68.98901244909146,-80.38785160289864,-94.34259540997542,-104.4626272574907,-96.2075274435247,-64.37949368049196,-24.83405849883722,1.9488774886189104,11.391091086036118,14.27050890873327,21.52668876574615,32.51306289491993,40.218467416149856,41.65785621929174,40.456215421028325,41.45715093805151,43.85617052319234,44.532521428532014,45.83613913775958,47.59033938843985,44.67535201118685,38.39363190538353,33.143750477456834,28.022640865321517,21.759106645468133,16.546525218561353,12.34940203579014,6.6836662426416265,-0.25342821280115974,-6.772833387328957,-13.432586153281482,-20.716402494416823,-26.994751260822774,-31.617178436062048,-36.619677695247624,-43.91244897751765,-53.47666895972214,-64.13307320192233,-72.29047749517046,-67.14519200776894,-41.9455547410188,-8.502087446611059,14.473509099790737,21.09178857750731,19.480681334668358,20.217759261506007,26.304310421202814,31.852951674166764,31.721293793869492,29.343154554354722,30.550040744286424,35.20634901375699,38.56401322670918,38.179799289670925,34.93173039090375,29.672819564999724,23.401592298386934,18.7163642839681,14.805052685226805,7.572691293550524,-0.49965951306933043,-3.490393151804751,-3.8053136460978667,-9.607478115187787,-21.27287766086618,-32.36236109892439,-39.785570356650574,-45.337356560347445,-52.02983379357882,-61.43132381884167,-74.39246300095984,-85.671660880439,-81.22594414284899,-52.47376316520909,-13.179581438886736,13.605132673583958,23.107876156055692,26.55557892783675,31.69910023980372,38.58375657976515,44.44813310172795,45.42547180247577,41.49448605187519,38.71436054325198,40.46391678755439,44.645365057732654,47.718715610827246,47.62196426603052,44.4063729848868,37.96134289611432,30.46031508012221,25.593284863022447,21.443616236092605,14.430410739749975,5.4587155435108725,-2.466812560457009,-8.051251614530297,-11.907429831941743,-16.15806148087486,-23.261114910758202,-33.71497869849404,-44.03853897126089,-51.0514593039491,-56.47083273831627,-64.05349924714776,-75.57752754595309,-88.39076484589661,-89.90558430288704,-66.05147129316775,-25.22450053487671,4.414272862897125,10.911859750760627,10.069158448459184,17.858765147076806,31.74428497223493,41.518886277078735,42.68401981616248,38.34980623888072,34.18192881379685,33.214042206411065,35.144284599682585,38.60823967083151,41.21506375344545,40.43404202225847,37.00498243369757,32.72992393229245,28.244134880694485,25.657652831767777,24.054567754064117,18.45890837895209,9.124367371255273,1.3650333763931042,-3.4792445524845697,-8.791090369304614,-16.93488217815031,-27.028922585623583,-36.152334813608036,-44.75724279324935,-55.20807486556921,-68.7463864887122,-82.0550606039754,-81.89740688402752,-56.74050824477897,-18.2520602035702,7.896034455507988,15.231904216593367,17.208696025648482,22.570335884642073,28.506001018340324,30.09557894886992,28.697499102309347,29.363440115392205,32.45744484005219,35.39315557352059,37.45403721800757,39.06460311517156,39.144465143375626,35.75104406382912,28.86569803701585,20.418548467838377,13.530280759767113,54.0,122.0,89.0
17.382531642530303,29.574259415512774,39.88664414658796,43.52226058541549,42.774582541719774,44.00777588068743,48.898057905963014,53.23559367032406,54.515830094572514,52.80181727675754,50.74958078662249,48.64895943754956,42.637842254235856,33.77949514449597,28.401474196321967,26.082454870802987,21.187738420604315,13.619795693562569,7.1269787561261095,1.8663134430377286,-4.920936607050616,-13.95217983602751,-22.48649215339492,-29.85446912769219,-38.870477358354634,-50.324200758277556,-61.588074468341226,-72.05532483947742,-84.21674398208857,-98.24353631513179,-104.56760739445068,-89.09259633341455,-52.69154501785064,-15.196973977415267,6.169606511493773,12.261277731959927,15.708205018801163,24.613449257004074,35.34538747387872,41.21932171324117,41.32098449714693,40.413061903531435,42.20250838542427,44.22695448259449,44.68494263850311,46.532974641477765,47.34736058354145,42.95817460384191,36.703144037134905,31.785002441773823,26.262320781351946,20.058598431979675,15.339995588363282,10.93426205552454,4.7124066761391905,-2.198486843844076,-8.624394922290543,-15.512007554518313,-22.723310428843963,-28.440782079818646,-32.91444196948717,-38.44896054796463,-46.492666802923175,-56.50120011820452,-67.08979417383232,-72.74076595554597,-61.76447000760139,-32.220252700137074,-0.1913403150634332,17.89088623555177,20.93814358328399,19.125029001206126,21.56217481760927,28.321876413987617,32.40407822762818,30.95477818425566,29.183989795168465,31.725095393617444,36.507047725001115,38.82982627625588,37.477644336430835,33.60448063782144,27.86335800455888,21.796018280792804,17.708369583192425,13.128071657251427,5.015235829337303,-2.004664360598959,-3.475715982253234,-4.679395023422155,-12.63044211888154,-24.79334528193859,-34.86545886890067,-41.43913343011,-47.05554988063354,-54.41377351614024,-64.84422159073961,-78.3349275513519,-86.68081923932245,-75.27643262401222,-41.075649973061566,-3.463023424287421,17.745881373454015,24.199647326344394,27.769779151884446,33.60179861009256,40.549482616390364,45.372621612877175,44.590627575754326,40.291819537527914,38.78191533736493,41.57690712376539,45.79084596528936,48.03384590211905,47.00692060589533,42.87029512539013,35.68908441868244,28.746466058439246,24.527265769246636,19.767610498139174,11.8965494544467,2.9630915462714555,-4.32833832602375,-9.26865129067732,-12.983219760204637,-17.824761257109667,-26.02657560121233,-36.918184961377904,-46.427937504075686,-52.600778483345934,-58.312254203339606,-66.9691358690725,-79.48181126371195,-90.78814802650403,-85.83821066329462,-54.868629305489556,-14.370401298720363,8.340582259409564,10.4274825352569,11.207936218322978,21.70972014870206,35.355350679329106,42.716407210807034,41.739724953218094,36.91598205773627,33.543879885982854,33.527998988561386,36.06137506116569,39.59271546796507,41.38061496663464,39.6041180533815,35.832830789089556,31.390742434813635,27.214743189680746,25.309078448110565,23.000336500201204,15.930224276227563,6.52416947255736,-0.21835499268551156,-4.810436942972108,-10.819164123955453,-19.789412855266022,-29.833983367243867,-38.57756244024662,-47.50754897079546,-58.79498949923442,-73.01567068175726,-84.1455506243397,-77.23190385896991,-45.81782685277189,-8.574499501977572,11.512498498696067,15.714777030077352,18.36935767956616,24.507570712304727,29.499176975251817,29.76312059866186,28.53278693963019,30.13278095048137,33.39809400639574,36.05945899799583,37.965115448401555,39.35025493235665,38.560602973010866,34.0751158132852,26.446176386492027,18.157438386301397,12.067398139700288,8.45396068900895,5.899590257419532,2.6518597520630953,-2.569229783338203,-10.289163754451152,-21.255394128868897,-33.310610860097796,-41.7944087976716,-45.88877832333277,-51.42921950537532,-62.8958039901944,-76.86982099346189,-86.16430389257609,-80.82649574020547,-53.53301691998352,-16.0179464768423,8.269275340588452,14.526069779105471,17.105729140599788,24.874052096329827,35.493679626875746,43.680116692800084,45.37134037077612,42.4570296150651,41.80479940487089,45.80839014040983,50.82234711597398,52.279298779223176,48.23813626815987,41.33478479845088,35.59936498904311,31.50311488990778,28.35559779446734,25.27315171711043,18.702540065897104,7.668978517383214,-0.9964963018176791,-3.020659014882648,-5.386474467006725,-14.655609587412393,-27.50121128235391,-38.697981180599825,-46.970892618062585,-53.58657743766615,-61.70786155662137,-73.03064504378034,-85.5718166370654,-90.03182408552165,-73.59217136247585,-38.962204120395484,-6.284608008591716,9.540116412337825,12.345498386708893,14.409003972871362,21.672207065401576,31.5754116901479,38.26017366976743,37.65796074742219,34.97841722538426,37.773753720096316,41.83781663582731,41.07067442024491,54.0,122.0,89.0
-49.23694749327128,-59.59597838702727,-69.70008598576408,-71.73152832173088,-54.68815112754501,-22.290042783090758,6.835609025274946,19.975298487200803,20.39079742430295,19.188853486719598,23.325312269453683,30.08061812986961,32.427596056248326,30.169291243817913,29.438461251283016,33.10638905774815,37.57044730470208,38.77320048890874,36.57288655705988,32.11573160272171,26.01163412992585,20.398565153358124,16.67165248947437,11.083793273903089,2.5494703012371374,-2.9634626370254105,-3.42378307947342,-6.199192659868725,-16.029926104301058,-28.09576955131458,-37.05231998161535,-43.010865686116,-48.93554977442021,-57.047405571345784,-68.5768084870802,-81.90450920107241,-85.96660512355342,-67.23904734259959,-29.39057016309314,4.705775486191139,20.588481802884537,25.11545301583463,29.212570934231646,35.60550186057908,42.347948689735986,45.786269375779696,43.423008678677824,39.36812030796106,39.236530300850504,42.81183935932419,46.7544533265816,48.0639440266839,46.14243513762959,41.04899778190343,33.439699532690405,27.311628753268476,23.407731717794576,17.792741863052886,9.273059026813693,0.6201223958352582,-5.9825019794350185,-10.375169041801474,-14.151923271545728,-19.791846664886936,-29.04628325249852,-39.98948976166196,-48.49834508336268,-54.112581386081594,-60.41561865285722,-70.23771811415719,-83.37247646416581,-91.80584542491374,-79.39107213643462,-42.79355340062311,-5.204639587183642,10.374771811878517,9.913755641475964,13.296533123490162,25.83149329983357,38.384814043644084,43.172057640078705,40.47065291824524,35.63058773156402,33.20448864648725,34.05547619443982,37.07350649225196,40.426997590129616,41.21733417646433,38.615591815800435,34.6110551119358,30.053134545694256,26.417400696834076,24.94555545550633,21.48877400557794,13.185721260127863,4.195886059035884,-1.6020248120427447,-6.27773803093995,-13.117760994719731,-22.742082927696213,-32.49326722900632,-41.01955125306299,-50.46033070302654,-62.667316913772815,-77.10756418672786,-84.68085474625333,-70.31486016951088,-34.36988311543372,-0.5346971305852667,13.711397370916075,16.15562716923904,19.890869050398294,26.336420371193807,30.0425038984962,29.296032855244214,28.656758121272738,31.041979158862087,34.27089350008872,36.65878893268076,38.45074220849451,39.45248985627741,37.65305382895769,32.12381898618354,23.96611763323238,16.101962070997256,10.821543415685714,7.67877560331312,5.113095831562224,1.3665032960275743,-4.501473744565011,-13.133477211931137,-24.828630758729695,-36.29986955526253,-43.26591847916411,-47.013453893966066,-54.148661551172864,-66.96202296783444,-80.40754879957298,-86.63111435709023,-75.1483774637241,-42.659314949118816,-6.881786173199534,11.443253956636926,14.988777727902473,18.781246690566125,27.882486710881018,38.337156222243145,44.91306823763296,44.7119871639094,41.784827240396275,42.56720873640325,47.383130986495544,51.760727535211466,51.656210448519296,46.31787890067192,39.467879993536904,34.29147899085261,30.506135347893608,27.563254797977415,23.91677763402621,15.790372715569196,4.539797565015889,-2.1372947038918455,-3.21433269363971,-7.335450325335812,-18.300385522301145,-31.020011772768314,-41.38476048641462,-48.921401016972155,-55.65360951149411,-64.64653425195384,-76.76459333054312,-88.32456853227272,-87.7610710967508,-64.74031209105432,-28.350331377428816,0.1928584971251274,11.14408948795683,12.561180580303454,15.967374320835422,24.498611818394085,34.11245509368148,38.8235181171594,36.631520389837604,35.16947214973814,39.22661489493349,42.13812595062238,40.205835875575254,37.531756175497954,36.158071522109964,33.36897219151181,27.7230261986881,20.508077392603262,14.01339079219135,9.712444314131831,6.921812882331738,4.373559980806875,-0.6115846737436157,-10.085550877621564,-20.450554739086893,-27.524978537715157,-32.57699039003751,-39.80102144400843,-48.56991928065047,-57.87724702841831,-70.60599861624041,-78.50768151830376,-62.90267620695672,-24.33033591971592,10.612639387748917,22.104583878911544,18.142919700470266,18.08600650349918,28.575673880442366,39.516318099498385,41.53595968821842,36.89677441751934,33.62942623879255,36.012889283398685,39.871774578436224,40.84415208961999,39.61225590958292,34.791818197584135,24.336584752354646,13.730781551374166,9.613298594860762,10.139517832856528,9.47591418195315,4.124316255937509,-4.798130646501879,-13.834442777257717,-22.14972739815436,-30.65389970675856,-40.91494988473858,-51.739126398313424,-58.90777450435408,-63.366016710396465,-72.17090001002008,-84.69571770614607,-84.11933290315413,-56.78370022595646,-15.719423205210356,13.474092869591404,23.13358448041157,23.306724788346177,24.7737429724203,31.19289631669525,38.41660253191468,41.77763273762731,42.20271007790612,54.0,122.0,89.0
-15.476868477208189,-22.08966092401431,-32.22644995645875,-42.828266033157924,-50.294253351854856,-55.692936919536194,-62.827976694494716,-73.83100648343769,-86.95141027497138,-90.99660398897296,-70.70827273097687,-30.632988390985773,1.8861348237389537,10.968857915650117,9.849596250681959,16.254060665977697,29.934043123942907,40.70609264523333,42.96804216695833,39.0305749085973,34.57579164112961,33.15003838758657,34.7647430868004,38.12726254309524,41.03165057663197,40.74374370840796,37.528329126682614,33.33549236330877,28.784120632758167,25.853459759140716,24.40548207622444,19.512154756298358,10.387810689169138,2.1860676140329725,-2.8890724971537494,-7.943645338734945,-15.677353564501267,-25.693403725272603,-35.019833275817575,-43.54702301744907,-53.649444130991036,-66.78864614581275,-80.68752249131236,-83.27709428237186,-61.39911113983325,-23.150866899461185,5.660382547502544,14.902162192211048,16.800740892681315,21.687128739709003,27.904566958500574,30.16171546019217,28.853120140441867,29.078980105929556,32.01022446929583,35.05902591358761,37.210567961585696,38.889539640276475,39.308049321198126,36.42338739525157,29.93742362102588,21.515024328687453,14.284929943459629,9.758173909165464,6.954615051560394,4.220849206952062,-0.09892058809786042,-6.659558555752173,-16.26510909397352,-28.393146196508113,-38.87124874311735,-44.42313771749244,-48.456231024474874,-57.39989465590503,-71.08722542751146,-83.37082281717846,-85.5876979684967,-67.54145484132647,-31.480125826378604,0.6007539501230206,13.294485926936828,15.567467119494692,20.959508451452706,31.003796887406146,40.84913949775855,45.523957888730855,43.804616113473465,41.47424760542446,43.70003817923471,48.91375472696225,52.30659923457959,50.557568131621714,44.278391861870794,37.771040312947264,33.09513064899011,29.582712371599246,26.74017744045522,22.147188783953723,12.55853945648677,1.8456269093343116,-2.725499342112709,-3.708339871091863,-9.928917916752072,-22.07201591612425,-34.318015979413445,-43.820057019498414,-50.79550082963122,-57.92594202553041,-67.87114248305542,-80.51288599060977,-90.07580396081771,-83.45825848350088,-54.67852109157474,-18.486116312954938,5.064977984404164,11.93542998312763,13.010951014000876,18.00198941400633,27.424655164885316,36.222939164165524,38.72242041649462,35.68734915992021,35.92711782477236,40.54814709594197,41.9685837886299,39.30167957462179,37.0763413376205,35.62913210776741,32.00710277278328,25.70752233056273,18.454363670588542,12.54221463876188,8.805871405075251,6.2338791567990075,3.3484074111900526,-2.937302991245242,-13.245746814633486,-22.89264661467733,-28.99517784327143,-34.33564272763266,-42.33177133749633,-51.065512625916355,-61.212519219484896,-74.21558909183415,-77.01514850198049,-53.23910191889828,-12.521866182387413,16.492274200604566,21.653266109408,17.053773019915457,20.260874536411155,32.30038221394389,41.12143227294517,40.55247982910581,35.47120515404771,33.78270762948892,37.27836417186615,40.47040078025064,40.67798781145174,38.75985214305067,32.26778553843304,20.890425459368952,11.781123191254999,9.553873416571761,10.290371020964368,8.465502290129768,1.7406426519695395,-7.489329194614021,-16.291183787956513,-24.51753395463153,-33.396145764073175,-44.168053765940385,-54.31332002525071,-60.2050382615608,-65.1887334779665,-75.8936172358423,-86.82639520011286,-78.95652864509711,-45.12156878592503,-5.234925980233144,17.99849827078692,23.591096539810017,23.267054552842136,26.192014734197993,33.47817423142841,39.857044823994684,42.03242124388862,42.35988116578546,44.14671046306712,46.690769931918446,47.94715298401125,46.68112679362183,43.55077346418882,40.85221119690571,37.10651199258109,28.466260623182723,18.125679355131602,13.521783331726112,13.221425082785412,9.869621976133013,2.506271117603994,-5.867471388552282,-15.374644834597479,-25.471881947971777,-32.66654274213865,-37.5445808950964,-44.047534930822614,-51.09945388776585,-56.58416053174357,-66.87407911424162,-84.72608756492868,-92.85377941916575,-72.70552363680035,-32.27714620096003,1.851331351961562,15.019424109083484,14.812696144885297,16.252147210843262,23.907384318415346,31.423226763263823,33.751112127196464,32.13739094665904,31.11720084399825,33.59820517649256,38.78216965066224,42.863792993074924,43.92373465868526,43.74204429921389,42.76466732748389,38.25103559615472,30.74638002360769,25.07347526959956,21.888949074712446,16.60501961944371,8.199789167425235,1.094426706961278,-2.633104031241736,-7.041161103202867,-15.792725141770074,-26.53497890961021,-33.280290751041754,-36.73340649690569,-42.65100008656028,-52.725640891603156,-65.83707373443717,-79.89747240709761,-83.78405366129063,-62.53548537105077,-23.283409969105563,5.980098993292965,54.0,122.0,89.0
12.713103948096093,8.839312561646896,6.239186085468733,3.185034447323633,-1.7464483117732985,-9.077997693463791,-19.639358012913767,-31.816266195733157,-40.97808855639942,-45.42595567165452,-50.365793120574224,-61.08680134074484,-75.10298350342939,-85.52100093342094,-82.77346217150374,-58.25882569299923,-20.685980444659666,6.262471109131923,14.256137640270277,16.50933965473885,23.56240836564216,34.10566755057974,42.91040288763985,45.539873577888066,42.85446018661839,41.59692003088433,45.103643570555874,50.27867086898688,52.399804428805766,49.04638544868549,42.24357000153656,36.24798527073935,31.98758057971641,28.72956746522117,25.78827468785273,19.900577367997695,9.198119589856889,-0.25230998122962994,-2.9603524710995077,-4.713050658973876,-13.067240040185993,-25.81637888254815,-37.3736400446078,-46.02257638145856,-52.68528874745449,-60.45048419123812,-71.35387833022467,-84.07071507004369,-90.43455892119958,-77.1366708138035,-43.96023665982488,-9.803346394133378,8.43408772858711,12.260878803966976,13.858404256468987,20.440892371047113,30.3049239336688,37.76766871124317,38.0796001567444,35.08616156500868,37.1277810042468,41.53397451127468,41.417391865709895,38.473153426281335,36.71281507412867,34.894027908325846,30.40878861274468,23.60716534781801,16.523037023971494,11.269134185407678,7.9924918320538865,5.538209525175307,2.0238422724578755,-5.647807946362649,-16.331352561688995,-24.99655233863596,-30.390880485236057,-36.373909679491256,-44.89388617646691,-53.65371183962526,-64.90941300454324,-77.02142734418128,-73.09359517740113,-42.007835084839016,-1.8272528917822801,20.178582531038746,20.373273677594277,16.742038723196398,23.27687032973431,35.698460378955964,41.86197995181807,39.172391201591374,34.3734560344327,34.43227494328622,38.48602490484621,40.78766131894647,40.37298038892905,37.51279918557668,29.26689904526693,17.65585394586406,10.477932117127258,9.743867092094883,10.207451271638437,7.007667558928836,-0.8532848187327957,-10.121393967302701,-18.694177549096132,-26.93373318280973,-36.32761728258851,-47.38459791785105,-56.47454722916049,-61.390855557990506,-67.57993930132241,-79.75336512075609,-87.30282971945222,-71.406776689433,-32.936662945465095,3.678850609122512,20.969558019955887,23.58237931481346,23.553791145549727,28.023634246937117,35.66953368131562,40.90233760808329,42.12462185433511,42.67655037852041,44.910027821741984,47.25353653697591,47.86959209599129,45.85935676858783,42.67721414244347,40.08410004841717,35.16350396274508,25.28370302409197,16.027762481450964,13.3402482126105,12.77694315445854,8.008688242325801,0.12212869935965096,-8.435250319980872,-18.382505114663584,-27.950773913129392,-34.128975119957026,-39.16249610773706,-46.22568974593253,-52.729554399489416,-58.65087650280071,-71.64204728845048,-89.18751068461887,-90.19484261821138,-62.01613056494147,-20.680612651363596,7.833213031027456,15.620054233554596,14.566148615337603,18.000954998288428,26.43071893860503,32.684136489430074,33.507002244007346,31.589210319335585,31.435393855459303,34.95564277937392,40.244985099200726,43.4443979604096,43.90047252329893,43.63716436751313,41.92803287661321,36.193271202013904,28.744462651187185,24.065519793678103,20.759937038228294,14.359076772800671,5.795376479657463,-0.2338693420071671,-3.596683628692476,-9.090500677587452,-18.970854620031428,-29.057899774388623,-34.35587435153123,-38.00299036963795,-45.18740048986841,-56.22895219926216,-70.05109638774049,-82.85057675753926,-80.53459498677182,-51.919458421086844,-12.684931557710861,10.110253352909705,13.613864204990055,14.505169479012716,22.09254100618277,31.169783874459505,34.1457379902222,30.499509625771267,27.838807350285524,32.650127180305574,40.36246433785125,42.84318429843101,38.605053687077366,31.950851048234256,28.507399914075986,27.59019115949012,22.85226853373629,13.548707231308558,7.026508508364971,6.323123003070777,4.149062563215318,-3.6631185443155148,-11.67064165243034,-15.654774474276168,-20.229071054165505,-30.391362426239667,-42.63674405614398,-51.163774767468595,-56.84829029079443,-66.52762804898828,-79.59932449369782,-79.40224491789849,-52.47672566658656,-11.833699683216107,16.72451273425779,23.45385188909038,19.367806227862815,20.780340568472997,31.93925272819145,41.96175068374181,41.878981677292,37.08844624253912,37.684213548165104,43.961343990895294,46.18077282647269,41.88536317512023,38.548423231178774,37.79529865057396,33.501093834314744,25.95420810080199,21.902591364063436,20.199552026141884,14.065921814801882,4.366916431120632,-1.8852230101877132,-3.8941339288380226,-8.074830372003133,-17.593325025477178,-28.066059704337256,-35.13278041021469,-39.84692348565297,-46.51058411759019,-57.55496290043093,-69.85485916415195,54.0,122.0,89.0
40.61765226706888,37.79067753113423,36.35117929589621,33.910551438406614,28.609042983906217,21.480359397246094,14.760510958975782,10.1699919970382,7.248067526702407,4.772797760744553,0.3174479243586774,-8.644876230232224,-19.215106177582314,-26.787139639404277,-31.84867159909692,-38.673186333241674,-47.42007871404697,-56.468880789668404,-68.81522957765353,-78.45792210212458,-66.66611502482252,-29.945704014501736,7.158542918293887,21.88300546219247,18.814059872835283,17.419586376451335,26.843560220844957,38.48885532448508,41.80032051445255,37.61386920825489,33.74157773847658,35.45872814948153,39.496507567902604,40.86978465458103,39.90318841245216,35.77462074009891,25.931781841088796,14.841934750176092,9.769798901321483,10.022391459316996,9.796508563158232,5.121562422085431,-3.5476588564023848,-12.679669963146063,-21.062554723210134,-29.44787349212761,-39.43611998906728,-50.42940713699848,-58.223027217578135,-62.67726206630332,-70.5914144228877,-83.30689534713187,-85.66931831202878,-61.781117461685675,-20.972098026640285,10.803679567379112,22.679534060706683,23.389344781518854,24.278227252816535,30.152536235701582,37.62476828795818,41.57582003196827,42.168579518605654,43.16951341760539,45.676490796071235,47.66959633648094,47.55370750939964,44.93246677368084,41.89485396323065,39.12550767908024,32.73425661841656,22.14540774866137,14.570571973468626,13.347372754590888,11.91443397945162,5.881727256796888,-2.282507038445233,-11.146388764175649,-21.373217293679694,-30.099902582080535,-35.48436017454714,-41.0080453366895,-48.33809186294268,-54.233431415735026,-61.37892220926739,-76.95476497551803,-92.20409275456693,-84.87286481962023,-50.15725027135745,-10.299299354961532,11.939937885824799,15.47780444568772,14.797133351293308,20.221647570505326,28.735431681082314,33.44976647383682,33.02116697016647,31.20989385062079,32.08432032510711,36.48061965226395,41.5050818069809,43.77288748061604,43.84176917581287,43.43205987584055,40.71174124949657,33.97307681103424,27.023107783130015,23.199895240141533,19.324892764813274,11.901117107581713,3.6416119305893586,-1.299311189370122,-4.760498048718898,-11.553650118592154,-22.180731659400116,-31.106453422091967,-35.2827970690228,-39.61202703202285,-48.04906609808431,-59.9695250062827,-74.26871662183376,-84.54278091678654,-74.87178439164727,-40.31715986250923,-3.6662599094324375,12.485944289369364,13.411365577607617,16.04041114270899,24.97039211105706,32.85370913023465,33.556400771721215,29.191714909896838,28.44525658772298,35.00574000003915,41.831278552869094,42.19530114217172,36.65400978128137,30.470353853621173,28.2513685950896,26.83385520471218,20.40405272641741,11.018533968377318,6.4248727879154774,6.2274987186439645,2.363159437093258,-6.292090748581159,-13.182203788331718,-16.57510295226738,-22.586079489037203,-34.02892602893004,-45.61356548303006,-52.836844422904115,-58.96729270620943,-70.43274799988455,-81.85177448610747,-74.34298259137172,-40.95312497671029,-1.444271257660605,20.72200424814538,22.595005208993218,18.680601402223754,23.287263590880325,35.57661533144683,42.996873264997056,40.47496463318183,36.41724897659558,39.27383561852999,45.41157800934439,45.34370778336193,40.520030654384286,38.29672466591556,37.13722356440746,31.34789867955461,24.244033451666024,21.492730155833822,19.060488283192296,11.32791604301084,1.9704012839559497,-2.67596882495998,-4.587608920436429,-10.362312398102324,-20.797865178763008,-30.51598409377054,-36.56812897797524,-41.37849513902428,-49.289849495944516,-61.197046890018406,-73.13306792954371,-84.13162008026288,-92.36241252031927,-84.05558302087117,-50.733442000732495,-9.677952912352568,15.037654424439673,20.02347397405885,18.08790147508808,20.805002064308994,30.020687592082012,39.125680724148665,41.64606233182742,38.807548483438836,38.53081247071718,43.59393817013093,47.690221966591714,46.93085902415022,44.25578724307387,40.732375200601986,35.46741035510639,30.889995169637587,27.386277022780174,22.23610429560136,16.78309140179791,12.910108535244822,7.516402275756399,-0.8402959411344366,-8.183811567073018,-12.275779911369114,-17.142216514621914,-26.66084764570061,-38.488543330841445,-46.88994124346022,-51.48693225064632,-58.5369750053565,-72.03096557729512,-85.16593365280686,-80.77065210178488,-50.32762847871705,-11.181093245787693,13.295467040229981,20.844803428340573,23.19294615541896,26.129128342069023,28.33326938592458,28.87526859620507,30.206294236184583,32.67980528956391,34.18448945402912,35.9602656555921,38.950866051673216,41.050665082143105,39.10859991435158,32.94220590667961,25.65699653832464,19.58998346923826,15.863778367857906,12.49720265035151,6.940247858699107,1.3754510307912011,-1.5186010130064886,-6.714060115493698,54.0,122.0,89.0
42.270323358214675,43.81341118441403,46.391146014888456,47.90670799857184,47.00462569346463,43.979124476984616,41.179122815232105,37.84071518282266,29.8841059828333,19.289018132384893,13.731550695423392,13.310670093681306,10.610078119276258,3.5920453279420186,-4.720678862293116,-14.010889899709527,-24.230203772652757,-31.922271148657636,-36.865440456518435,-43.05676402826692,-50.278485819502365,-55.786326358095764,-64.93891938222093,-82.36161027587269,-93.19962868677949,-77.05015356964853,-37.875706224402975,-1.5560167134725238,14.373876546263324,15.02052865181035,15.64461464969448,22.72078720910634,30.6775217816816,33.750825558118535,32.41898048222677,31.078688008486246,33.05333060161986,38.064522704921735,42.5011755951381,43.907551217659986,43.775961549146636,43.03709001518679,39.10826612130354,31.739867496248735,25.619156403019424,22.33150472898427,17.541773952584297,9.359622860533445,1.8172100559712019,-2.2191376352989503,-6.234884589193614,-14.387310961537334,-25.231397852648673,-32.68705093819441,-36.238356006782205,-41.60339916607151,-51.19147559856694,-63.93903753391322,-78.24219450524416,-84.50175012143856,-66.8975857117073,-28.54270925301529,3.409214586537589,13.514175940781985,13.456777533992852,18.18947380945543,27.74350221241348,33.88036628131643,32.490375810765016,28.22182355230716,29.752325635049708,37.372837343147836,42.70479895365083,41.025885482964256,34.64612524346574,29.386649307518923,28.083627393390667,25.59761410361951,17.65543530320226,8.958800913554226,6.256460851619285,5.763727873676925,0.11321856099264738,-8.731041042417827,-14.335482302683326,-17.742529359342335,-25.464380969739032,-37.669005681006574,-48.16756758867372,-54.384619333350564,-61.61871704097184,-74.45311484168694,-82.43793557964523,-66.90797535720226,-28.89765888327502,7.335720805901616,22.904015121116093,21.25550970564033,18.818769166984687,26.529455648409222,38.74444032763237,43.094139063796156,38.94621271322605,36.416697715052614,41.19238077624216,46.244236948432864,44.061603826590094,39.45300184391791,38.17088798941257,36.00928068404736,29.0635446200925,22.985439568791886,21.12125544043249,17.398662042881508,8.43271890847947,0.03817463019970183,-3.2032049156828237,-5.650205821765632,-13.09019502855833,-23.917636780208586,-32.62010714180325,-37.88735785552059,-43.190993521610785,-52.44961492177851,-64.80783947436915,-76.32268425279476,-87.18899914269818,-92.41620280926712,-76.72889410519763,-38.400545144083345,-0.22681124830027327,18.074065837282703,19.531818194426762,18.096079472449638,22.99717899266009,33.02949147592049,40.667192430173166,41.07286786256097,38.135831065150995,39.61586167051809,45.21029930683848,47.909038734498054,46.20401790556395,43.400201087207726,39.339229888857865,33.94591579415307,29.897881972717336,26.115253706814933,20.528166989348883,15.562715704132742,11.68825761151029,5.296697045978232,-3.276473193542515,-9.623757569233025,-13.341142774880414,-19.392305016890994,-30.096105284310713,-41.45646723901359,-48.39858173228852,-52.96384746249896,-61.818417294399666,-76.50874308852434,-86.48330246339998,-74.36125952291172,-38.66603261492797,-2.01789997065396,16.749103344756858,21.59587814219827,23.97605963812815,26.943935245269714,28.59821215161918,29.05895919302101,30.9208676118964,33.227655957284924,34.56664836759794,36.74507054708646,39.79570911764578,41.00627214506674,37.643857710072815,30.821985286642462,23.69982843129356,18.286072415856953,15.017124596162532,11.128270387393632,5.121906011919679,0.3336442286293017,-2.432022176114508,-9.554750230822588,-23.031194554242624,-35.99516360693315,-43.48812436180035,-46.98044989052881,-52.31746354654933,-64.36523897556563,-80.21734324120376,-85.9080626835935,-66.04194287619778,-25.648978088434095,9.166070869481233,21.29211181368183,20.223038273324207,23.63130953504569,33.12624350304291,41.004911812157175,43.984789445525415,41.37308291909609,36.97656787048085,37.25372026674932,41.728752974524845,44.33283559943523,42.73970132516451,40.31617482195151,38.379107445366124,34.18319951546204,26.50740838566087,16.990749964948208,8.677502598097742,3.298691779449866,-0.9789102161703114,-8.274437236672696,-20.026253052624522,-30.860630035425533,-37.661440380502775,-45.14786698242249,-55.73536325824112,-65.5435639783778,-73.41582392019608,-83.85112683195477,-93.00776678309239,-83.54997501676617,-49.8701790020631,-11.383178834601212,12.008349051167393,20.14298306167695,24.163867849461646,31.33485321034051,41.58391510536449,49.861169089856865,51.49009694731571,47.531838382606146,44.206936474806355,45.40335829588014,48.151096969417424,48.386891989066534,45.18444001610651,39.95631480704989,34.90565953952643,29.960787535463606,23.422698505627377,14.114904542571251,54.0,122.0,89.0
8.443551651918876,13.685056827856666,14.024781850879386,20.79562764381151,30.19679085148648,34.21627256924893,31.14656343140008,27.804044871566113,31.63888879725965,39.5104054057897,42.94406900558436,39.44062955193185,32.74702511841356,28.70499498460946,27.806771419497366,23.835630008075093,14.818917409504685,7.493439565098649,6.300785838530359,4.788521014671424,-2.439571847059832,-10.835664742498112,-15.258078467481466,-19.326605784192232,-28.76686667160096,-41.136670535528694,-50.3027650588095,-56.01176432359463,-64.85510014198593,-78.1497074061554,-80.9061342992495,-57.41110602995898,-17.04243119521279,14.22112783557702,23.56057492517138,19.89002303947751,19.931865825229305,30.201732617184,41.156701283425406,42.40116393276438,37.58593435011657,37.13073660845276,43.1399098355909,46.36267886819062,42.57305884606644,38.753252040953896,37.96974504680861,34.391713868742414,26.874260333122745,22.163015380606836,20.569230488782082,15.220391040603428,5.596843720931431,-1.3883999892003582,-3.655735038501022,-7.190284549967167,-16.130501854801487,-26.82389616932886,-34.402861412529624,-39.20605869808734,-45.36898020645941,-55.90054531129315,-68.29730187200778,-79.49219047661579,-89.88132407836596,-90.62437702408728,-67.30591158612742,-26.114660524374482,7.385221887816965,19.636457144504586,18.837257685157557,18.709904862515643,25.661295712650492,35.81953251489763,41.53888650684714,40.18594435297414,37.899529621626066,41.10197157288464,46.532435297460935,47.719746930665885,45.42556624832072,42.437344436811756,37.80214209557824,32.5755202960982,28.93812347501989,24.64720701953259,18.891354300599904,14.473304815188111,10.219870443467,2.859886283667298,-5.494444929539035,-10.797252315674461,-14.62618130230477,-22.077013297827055,-33.60001629293608,-43.99572832874874,-49.67384771849165,-54.83413048953053,-65.67271889950344,-80.65842137885991,-85.84324064795041,-65.78451112289561,-26.961888824980548,5.4672902686409115,18.995924742318465,22.218955131913837,24.83783226615516,27.6330265646681,28.735848758190045,29.397103881835005,31.675648547284716,33.66041690665146,35.03971049637184,37.620676534327984,40.490740664801955,40.5483479647265,35.875246206877314,28.689837482960453,21.889403809306277,17.19248510420287,14.10869970684708,9.539283062316688,3.4220565646260233,-0.4711318558038003,-3.74664382012797,-13.003329303870835,-27.174422630238396,-38.76763559453361,-44.703591723644465,-48.03639692310846,-55.03859313465323,-68.97109018785817,-83.73590490289631,-83.12340907106301,-55.52937660515316,-13.799323995173793,15.050627380817955,21.428525315375,20.29342907509645,26.103501591808506,35.812188162160666,42.426405116713624,43.76510399741652,39.962227400113214,36.41243014434884,38.3609807949318,42.912476153058655,44.21653829299512,41.95427230968508,39.80008016602547,37.5155733110149,32.29498052578982,23.822746169623233,14.332279231675251,6.835775376861378,2.109206026330723,-2.5919578584427647,-11.34586831667607,-23.552992026711657,-33.125937261170115,-39.5024105586717,-47.98917852537513,-58.847721108827535,-67.85469273800116,-76.02049614238622,-87.25933808411374,-92.94155061737209,-75.81240152738782,-38.085674003086055,-2.672934649399234,15.485348015135376,21.2536250300273,25.793978438451433,34.13724027611994,44.45503997432934,51.097780784672395,50.70395862919338,46.20451823768698,44.115350879342564,46.26046159255177,48.58143656574124,47.78218966994681,43.7814293032613,38.41373312786605,33.54404319993853,28.303342965237945,21.026093678344715,11.084633020751543,2.2724809198649076,-1.2341121652590117,-4.105892976133128,-12.070118143240267,-22.780815134303683,-31.757299262404576,-38.75461388390338,-45.33846356758056,-52.10121198097889,-60.82939669372749,-72.04403133682588,-82.69933449347326,-84.71569248688046,-67.22152029414568,-31.856165725047706,0.09772988231316976,13.169276972286275,15.961164361096303,21.8436651717626,32.34950742049669,41.29452428594838,42.90429668406408,38.443881068178705,35.98642043038122,39.52427688379077,45.00506229620265,47.31166040274806,44.42890428674834,37.82407560220513,31.41287211961875,25.939831797959634,19.73142195526748,13.694978972391285,8.363458023979915,3.1761035509771274,-0.654571711181127,-3.8763249952460455,-10.122698315990815,-20.57561022450791,-33.179310230267845,-44.02717061575793,-50.91578773235956,-58.314396580531856,-70.91754761036805,-83.28774249497772,-79.076493771988,-50.16373072243499,-13.217484582671828,9.644217362062005,16.231610050780436,17.31686585868244,20.93062705612811,28.629098845466967,36.052115975070116,37.618024355959,34.52888898524886,34.21164538208761,39.55299034139657,45.44896567371959,47.39773357069409,45.482085272125445,41.38262105159679,54.0,122.0,89.0
