-1.8901859663184768,-1034.9939879937642,-1277.8173781920766,-1045.3736909944284,-890.0451580044067,-867.526099577105,-826.4918543773101,-740.6736658823397,-660.1878831067548,-599.9684701500124,-544.716202662205,-483.1484361997647,-409.20504742411583,-322.1668279600463,-232.4925076886946,-154.87872223247535,-95.92191803701367,-50.92624112792945,-12.641049034056538,21.180194622364034,48.888569893422435,72.23964925484832,95.70962332365663,119.72187570482787,140.69055729958941,155.40454991700966,164.44552676375932,169.9099144309422,171.85879996334347,170.01300076253258,167.38142196109757,164.18820385311417,156.61942048215536,145.8099089586587,136.01235669746063,126.00566059929399,111.29065713481904,93.24203859704978,83.86435456035463,93.72702831124246,114.74933579550043,130.86748671379982,134.94824410093494,128.2793336739049,115.14229446411875,99.11541155859688,81.8618253190965,65.27615618958757,51.37497208172189,39.21633571715724,26.34006510781524,12.944420737501837,1.0271154580458601,-11.215723967336844,-26.11263157780668,-40.33710775702815,-50.17140288085005,-56.451957326686674,-61.4748477057992,-66.98836773724574,-76.29377675938827,-88.5181259353574,-99.671079179524,-108.91794256434058,-116.6092267703987,-120.30054899519146,-112.3596587689974,-86.09951191252337,-49.581931939732065,-20.42153948586278,-7.293090863588652,-5.569369779378278,-6.392903275998419,-6.510983797313383,-7.7890095935383235,-8.609945545013575,-5.212682634955348,1.3961794532541785,7.12759314321287,10.32651059982502,10.828955855314295,7.527838064311619,2.951794025476391,0.788983039198065,-0.3267761756346543,-1.3784298894773563,-2.1167375229397605,-4.794449500560356,-9.419925612184603,-12.237619498621886,-13.066272716368692,-17.663275290615303,-26.026230679382508,-25.2089079900744,-5.769311168826058,22.964275554423878,45.55092506572125,56.143719171469535,57.17119418707611,53.20103420717347,46.9050190302614,40.202858284682094,35.55966824116017,32.995172227091174,30.5074383319821,27.85970020797162,25.62547950042865,22.955696126262712,17.261053178567078,8.843697483032686,2.114000252433472,-2.847548651408823,-9.153834646442796,-16.867668253818657,-25.25462321928883,-34.16071294903904,-40.991320780770884,-45.24799069862388,-51.32469474087082,-59.46843124366417,-59.426072367085155,-40.39297416754641,-6.997621082656472,23.697282636433037,39.21892704258798,40.90065516665874,37.199414576551504,33.08617273442883,29.705715491437857,26.14566664326846,21.286363984983815,15.721175429768738,11.285893625779387,9.219956268255885,9.392307839543738,11.464385697285671,11.336014667722509,4.4337278460856195,-7.529074184359211,-17.03064447281876,-21.014437627702893,-25.77691131988449,-35.40537156857094,-44.811126931426784,-48.990910163221315,-51.768984794304565,-58.40848234697245,-62.295546711550514,-49.26095589706998,-17.96855280707121,16.46130918671941,39.66189031415522,48.30593852895967,48.33243232446872,45.53745618971008,41.03188221735888,35.68069962924745,31.901911873396937,30.321897451916627,28.561426036181995,24.679480747373685,20.57378161506465,17.577706916264518,13.40027987110291,6.685828566554194,-1.1511209100359054,-7.890333087468424,-11.32628296177248,-12.308924011980627,-16.22750361290438,-25.382989959803297,-34.964502342932725,-41.150928570801106,-47.12356226387742,-55.7286506660069,-60.2609525751441,-47.823687473171674,-17.136461763893223,16.215128906906045,36.39310478076172,40.82818542268996,37.720611019551534,33.47201665040582,27.89728712991421,21.005527110590094,18.37492748109165,21.4273299035796,23.202553243591936,20.393170906175996,14.85289026360916,8.79336489392662,5.2733221696023325,4.8899342306475715,3.940966384796084,-0.6192722625981554,-8.76764894032895,-17.716637667370076,-23.763984544418896,-27.95375743277762,-32.18171140197706,-37.7004173828703,-44.53860821727609,-43.00925457601447,-23.562334265673847,4.632883502059589,24.61255282306698,32.331772772212574,32.56747674358948,29.03008054394017,23.87301121993907,18.41734696757303,13.93467097646048,10.932970990960076,9.51881237015455,9.179528481536101,8.820707634481396,8.296047940561342,6.467241321850399,1.9941281213837652,-3.2695683859183835,-7.236880204942035,-11.771249288041426,-19.72665077838049,-27.778100763842584,-30.150776733652386,-29.49224399201936,-32.42050899519459,-38.653455485425184,-39.77268120597407,-25.89529754296578,1.447319510814825,27.331388890521584,39.48647552332271,37.92029537595973,30.922967357551958,25.388541255474586,23.407656064347467,22.483160654982896,18.39502038894282,12.798590434894365,11.820694016646277,15.030123257946304,15.027524430079675,8.390969223919194,0.541031799030114,-3.7977431613090125,-6.514601365494125,-11.880145074969002,-21.11124507486817,-29.703047836564,67.0,127.0,70.0
-102.50616856998445,-111.32571684463265,-118.32165881175634,-119.64236921118956,-106.64944393903701,-75.83203146219253,-39.73001206894307,-14.98772469002405,-6.035892179295312,-5.851049614759191,-6.436395856911202,-6.717920687725721,-8.273806869291718,-8.135004432636716,-3.4529356606102968,3.288253036495195,8.301671494234686,10.801194843665268,10.262259397152025,6.108099248805399,2.051452596618891,0.47797444666903627,-0.6844726573023407,-1.5559598755422894,-2.5947057321340954,-6.064052405720109,-10.574495204734509,-12.481508411328825,-13.761325552460882,-20.07060691390974,-27.44130927112404,-21.441718611600926,2.348769577692051,30.59747415401008,49.84115825235582,57.20725130391341,56.37717184678997,51.54710357406855,44.898653867156995,38.57417684470558,34.69563118866484,32.32502464691271,29.723783983858812,27.16891492213444,24.996041518716467,21.72345113276543,14.930305359596838,6.581840421096178,0.6568887740972179,-4.463342048146775,-11.295145482351826,-19.21249861910034,-27.83729434001675,-36.4864078476821,-42.33715816723516,-46.62594859044695,-53.732132343920654,-60.93159990011877,-56.038854862694144,-31.565617236888727,2.929233968437844,29.940076417944812,40.772476768601436,40.05259062536728,35.96290366203461,32.03668752914601,28.77238348850741,24.877823876727938,19.69162453159739,14.224226950576599,10.456292170917662,9.020200337819364,9.895990050935257,11.911827598588093,10.123306827085568,1.2101537424356121,-10.850395977414546,-18.600411564655108,-21.9517586685606,-28.146634609023007,-38.48699757497981,-46.56257641961889,-49.59188697373767,-53.2933818703838,-60.459567618773676,-60.725320895869835,-41.62002657657062,-7.540694820769152,24.691641945809224,43.50706279070932,48.85081512353384,47.6988753049204,44.41523708024975,39.47301629860555,34.33631195923434,31.280256070977472,29.975961954049577,27.63847501926497,23.384510241531995,19.648669289038274,16.616795772262083,11.692021032513905,4.443661366133843,-3.317768494130203,-9.285776736046843,-11.675609575063746,-12.89164284403882,-18.448051988756202,-28.39453854760674,-37.075735645500096,-42.66052994226648,-49.4158502534501,-58.02729168501215,-58.85341458335549,-40.356137873010866,-6.917083185073753,23.81784994112243,39.02331187140239,40.297681180023616,36.51402061909768,32.09590106169567,25.8715444369415,19.538449860283116,18.909098886591824,22.374913871496272,22.81416143759661,18.97661496439705,13.036082188393545,7.3917856283063905,4.951134248554479,4.871368493767495,3.03840823978403,-2.664231928670514,-11.47595877482609,-19.818261173137337,-25.03205112609766,-29.146633801385853,-33.54292048498897,-39.750593493347466,-45.595456051263106,-39.234393137269734,-15.464769449724313,11.73475246178123,27.931296288164674,32.959229637610235,31.816112933145423,27.643125166818407,22.267671235439916,16.97885094210708,12.91427920288961,10.357070700829894,9.368153378016093,9.099686390970119,8.693147016350228,7.999245344878047,5.429027621927699,0.4119640446060077,-4.549174170237441,-8.315662601388647,-13.70948858762639,-22.365482952029012,-29.13180731612359,-29.93518187974561,-29.800580914319514,-34.132153175995775,-40.00431632881366,-37.56517920936807,-18.865960452027025,9.816114853881624,32.49244286899426,40.15018851063882,36.05931918899079,28.99452879277338,24.47750421091669,23.241596815891285,21.72562397274234,16.648023272249418,11.867384869378881,12.585254837015114,15.692203255906863,13.67375384741912,5.921356268799122,-1.1010733967132798,-4.550904107274422,-7.641880521034469,-14.24916932028801,-23.93772236210338,-31.373669874871727,-35.04523023909823,-39.22620611256256,-46.83577193408162,-53.82860777867227,-48.42339271621474,-24.622844053281227,7.724531196665151,33.751442944983125,46.58547741036148,47.50430384918186,42.35475183920702,37.261929094203246,31.63371990870105,23.648526220102767,17.010472305476164,15.438028723736563,17.481098999265463,18.17535578571976,15.013062096888481,11.37146030129743,8.203614726167944,1.5933925630365842,-8.11418709918251,-16.28262126030525,-21.506283832986767,-26.00271216208351,-32.48895963720804,-40.882764453690854,-48.860207878942276,-56.499620906838764,-60.95085171830796,-51.336567834990404,-23.9837151003575,7.782265428052059,30.048938062564076,38.91443347614138,38.473441463110774,35.500057337528304,33.09973369955175,30.312227683553587,27.882171358003653,26.318477993310402,23.02215978323241,20.051963387930172,19.944131723975847,18.877629673611505,12.157336845794312,1.5367344459116936,-6.015481288902608,-7.619549477020128,-10.645641460615709,-19.673587208681994,-29.69712645842937,-35.688030224818654,-38.32393377879373,-41.95687883610946,-49.104739423538106,-53.10194194363149,-43.021992688881966,-18.0348715893902,11.751961751728109,34.80094973803503,67.0,127.0,70.0
41.34009864551096,38.96761516742775,34.75257265579007,31.058672101944776,27.779253023496725,23.490752864808872,18.06405739199902,12.882842089112902,9.824845070256117,9.014866531582859,10.530157801270361,12.0313147324733,8.259933243871282,-2.307329588174322,-13.754777427843282,-19.736690183718483,-23.181734964033854,-30.924290329761234,-41.35027315821783,-47.819167396169945,-50.269023028391544,-55.21331395952377,-61.96050916664867,-57.401152460186665,-32.63567728144249,2.6817260402464798,31.723557834079063,46.173026610239106,48.882115138043105,46.918636781568566,43.14092631046553,37.88960385566263,33.18665901050492,30.82418627357204,29.530449972266734,26.524292734803765,22.154302611664168,18.807375545028993,15.475526899158545,9.775298067103206,2.1579035181436708,-5.3365983857344,-10.351636542030636,-11.895636433931688,-13.882657207142806,-21.082044531457335,-31.268057093538435,-38.875709307314764,-44.29485556486481,-51.94186071572659,-59.704182731870574,-55.70394918324557,-31.5427431316651,3.0369779112314927,30.013518127914114,40.441024153393094,39.38394754837296,35.30142895482554,30.543860936815637,23.791894576411536,18.612807880210248,19.833071408904928,23.01059701044255,22.050457690409722,17.389613980651646,11.230452535029945,6.289588144689083,4.852094154088441,4.686016240103412,1.7970614128328406,-4.9906347971988785,-14.143746595011885,-21.611087108723815,-26.228160502062202,-30.353909210542596,-35.07008229442953,-41.86381138398524,-45.58819518403813,-33.84300690239407,-7.086789806009689,17.798157609300745,30.29266775886947,33.091455794430395,30.81785388665336,26.159744269946028,20.668859926307345,15.65124818936033,12.01698018812895,9.921472128030588,9.277717558055178,8.997991164839087,8.559186039891786,7.538525749467245,4.1585582234025,-1.1537645219385735,-5.696619058374665,-9.533699635908418,-15.981245960389398,-24.842208919214016,-29.90631284367717,-29.64275248328873,-30.54534317066424,-36.020146604742074,-40.65874642872587,-33.88893329689044,-10.927212635203254,17.62266423911882,36.31268994391522,39.793319033132256,33.98295758063187,27.307038518515167,23.871621376134836,23.057292248639797,20.60764560379785,14.913148799311218,11.464247405596533,13.585791102582958,15.86992027571527,11.782046808949122,3.5485341586864814,-2.399364353086555,-5.272683097930504,-9.09031887621979,-16.922114328218345,-26.540287471193167,-32.68433352531452,-35.98975238766852,-41.07494132138096,-49.35261430450011,-54.07881431656241,-43.27725394452378,-15.437967871440836,16.397719637254575,38.869056534031905,47.88617726532122,46.305049322337396,40.752772800045236,35.86179765146353,29.49266776185483,21.35568856030906,15.997275855243407,15.841785200396847,18.050704867639524,17.58187343506048,13.832936624800297,10.554260485990024,6.781287473363415,-1.0919251613811705,-10.792930696765922,-18.037572947824682,-22.74139591414041,-27.59778226556458,-34.82481501127948,-43.28454176147004,-51.06961908781465,-58.49139574825502,-60.11808962942595,-44.90817857623124,-14.482940916630648,15.553009329954028,33.92435165978785,39.43265387632778,37.62828837284602,34.756589303747894,32.37471759010556,29.465994343651232,27.45911744270071,25.579340765990725,21.92256953499497,19.781468806930697,20.011066322233127,17.587907018131954,9.228698108021959,-1.277798901222307,-6.912205170339703,-7.937667395002347,-12.73502389163097,-22.781950363440078,-31.917700354544845,-36.64131117243862,-39.052929188425814,-43.74557458327043,-51.119812254120006,-51.94932960755547,-37.01547150770985,-9.363753581508544,19.51804477399125,39.12690584059272,45.35256332957527,41.003528687477676,33.27433972811532,28.199826510794942,25.571627855333045,23.379627001312336,21.55806831113995,18.565196967014753,14.905868429203515,13.289316481920547,12.415560961953451,9.234573577282728,3.1168370466348323,-3.274265250651637,-8.355054837259221,-13.459393729471156,-19.752557350306,-25.5061673762762,-29.879642642158718,-35.9714965193619,-44.26961171122036,-47.88365496983421,-38.30743698966152,-16.148590190403322,8.299708362600287,25.553321842787476,32.66145087280318,31.94353688210221,28.996062779482788,27.155612599017612,23.25389330520618,16.75333216312701,13.231673044356707,14.001168776304727,14.476772040293797,12.8592128769721,9.85121719955564,4.955847496922479,-2.11345195602941,-9.653490640366268,-15.468349676907607,-20.172198605699425,-25.928678539992678,-32.39482688408517,-36.979746319941455,-41.325499310840925,-49.807286985432036,-56.242044388500226,-45.146736254709474,-15.12633206069464,17.53208042328168,39.29926169739484,47.932085321917434,47.73345379588209,43.592091130453845,37.01630412380491,29.062006342531483,23.303599675283053,22.22791787954115,23.972429155004917,24.048471245263734,20.27139334947177,67.0,127.0,70.0
23.241369831803112,20.97551768955067,15.674592176693675,9.522257589099794,5.518902440610574,4.872757905810554,4.246039035857706,0.21881038471140563,-7.5403253732747775,-16.646653044453185,-23.1330529668736,-27.40782887112747,-31.5909976413055,-36.817212743207826,-43.797432434742646,-44.18839461891762,-27.058144609917843,1.0690273676374988,22.723644470279467,31.846654285190606,32.813725846854865,29.62904416779226,24.605696927872994,19.11186908516367,14.447175882199707,11.24485544181253,9.618952360102432,9.21076359743381,8.878711064729309,8.394483119490054,6.861575615882253,2.7055561280345413,-2.6313891947718844,-6.756973042751496,-10.993755014505737,-18.51067843513392,-26.963637274926036,-30.16637418790801,-29.477213088383984,-31.73602740664194,-37.87629824802153,-40.328919583673596,-28.736206585861996,-2.4884161153295317,24.5257757719507,38.78310105964114,38.64669389091464,31.86996507421462,25.918930666183243,23.513279423735572,22.722279817624546,19.153463617829367,13.384549857140472,11.596576827564215,14.611314724453493,15.442207905030738,9.51156367282321,1.4166471541087295,-3.406973922994092,-6.0816529877694645,-10.910827480457929,-19.77737432961962,-28.79715865124512,-33.73003336501259,-37.1070467266538,-43.244678848462456,-51.62574398093535,-52.952376224943265,-36.59449686103402,-5.924959963407351,24.215623185679394,42.82323367250373,48.27552032088237,44.78168405100769,39.2715491576937,34.314647804764675,27.163957054210734,19.312997591409722,15.45760348140704,16.461849057780157,18.362271206955135,16.672814063356434,12.736954503442911,9.722305929663017,4.9610589658223345,-3.9436951013659347,-13.229131164038181,-19.563931804258253,-23.99109559054852,-29.417514482690137,-37.27273820873579,-45.59850578313921,-53.293294459061286,-60.06147275091666,-57.77758330072506,-37.095704331668884,-5.063779421739535,22.281667881924978,36.67995150401167,39.335989749030674,36.73124821078708,34.07636343112799,31.574885321116646,28.717193683150853,27.064396909195235,24.635434020412493,20.974217860056196,19.758231425998876,19.84249192955861,15.74793707921016,6.0934754946088185,-3.6332403407255116,-7.3466843862685485,-8.638459813899692,-15.321138659419702,-25.7869971330914,-33.72985492620737,-37.3829959965232,-39.99663022821173,-45.838416301059574,-52.59189736510464,-49.381772190007325,-29.890820004525494,-0.6006761250471357,26.464381694310436,42.29080033003531,44.91483331215164,38.765179449503634,31.419790862226577,27.32325585388237,24.9023309709587,22.84717159531042,20.88949188012099,17.429319196819364,14.194629469931382,13.109487572112986,11.83251684225534,7.690518058268952,1.1657320946183607,-4.859939966709838,-9.731673967776088,-15.1825328424101,-21.582748632725366,-26.825951242364404,-31.31087312856077,-38.31830113499779,-46.234379603908295,-46.6919239036139,-32.847123223476366,-8.79803535835757,14.281741410862145,28.624164244629267,33.05569355753562,31.04908122638606,28.403283610502896,26.42014132917598,21.444440938548023,15.199348885043582,13.18376962032151,14.347789985004304,14.190324849002481,12.1290634498921,8.671905242429169,3.1009338194697142,-4.362172690353601,-11.55332284006302,-16.837457863078228,-21.6663863492743,-27.840731468390917,-33.973509369805605,-38.02167328649396,-43.31324182064473,-52.55460202427025,-55.35694820292011,-37.87169156015133,-5.151938068658478,25.22839322467601,43.0245257420293,48.52515246730296,46.80586844545049,41.941118553645495,34.73494298618769,27.001170716521457,22.500133899297214,22.636997334816762,24.33691272074694,23.350079779259154,18.57340254868537,11.67586796826756,4.317323215276638,-3.0716090801655214,-10.591457273560012,-18.249402994262425,-25.235018032183305,-31.424447031419064,-37.96650573775618,-46.852601703661335,-58.974746166157296,-70.00799187103351,-68.9896183019151,-47.72375895686126,-12.733691595845778,22.239962469820707,46.98586715977725,57.43206927377028,57.99034452174065,54.63702948671723,48.520669761464504,41.77658875788741,37.11829373287295,33.120716188479136,28.748468063076153,24.404518244611165,18.978925514332712,12.155673105953316,5.256183547277336,-1.249110599718838,-8.991721203729744,-17.770536608554533,-24.057325386069365,-28.45112931844344,-35.11537741421248,-44.28165544817834,-52.64820225269641,-60.94561500929378,-72.25864547269008,-82.39792684272696,-79.60233654544459,-56.00251522943886,-18.70590711168921,18.109166442651123,45.16735271087606,59.87171729581526,64.19342063319627,61.00456183309424,53.271293999557145,45.7427453549748,41.362169883142215,39.61701848902179,39.746968960792096,38.710272853877214,33.02375293926254,24.713099595049588,17.82690161853372,11.808082173473034,3.302736770380361,-6.276285371768237,-13.87953762012446,-19.915950236854528,-25.994821328549484,67.0,127.0,70.0
-30.652223489564747,-34.63658412390161,-38.485873530647424,-45.668706853498115,-53.33075479513064,-50.23817743435543,-28.630931913919596,3.5069124113044183,31.000853238136997,45.64702609753075,47.89417648591238,43.12180455993483,37.88834348423308,32.53906658417999,24.75237226727426,17.63658625753527,15.355825883672336,17.16711809672291,18.323250705406902,15.5591405454371,11.773253730046543,8.742382737425007,2.7387095649371056,-6.818566272965246,-15.384496168380897,-20.91964383249185,-25.33332269948636,-31.470190086034858,-39.750788852458875,-47.840175004733155,-55.50704346511039,-60.902820835402906,-53.76117914162354,-28.27136065619597,3.8936888365456936,27.86898213858526,38.41759673241772,38.81088195971364,35.8709485852225,33.41375793800439,30.715290364692354,28.11217917047777,26.590321940270037,23.54500646206814,20.27533270163306,19.878788969458107,19.292008651780705,13.39298476999205,2.940272820432962,-5.40665377238573,-7.538973869197861,-9.87592227298487,-18.254558357346642,-28.541468242698603,-35.150966576872946,-38.025886218978066,-41.25465885865201,-48.082635003124196,-53.1964474498925,-45.35486185585101,-21.915476775250767,7.954774806889958,32.42109304987984,44.31241913062515,43.720407265868026,36.448010015974155,29.88914271183373,26.575096757891753,24.252426584600894,22.345323779638548,20.06002552851052,16.310181396631894,13.702314946658174,12.911619447251583,10.988998752435098,5.924755010718051,-0.7222388673078375,-6.330916692084628,-11.167273305039181,-17.00880112609491,-23.29581469249208,-28.052357855158128,-32.99272337515604,-40.79265681220425,-47.57063908341748,-44.22020757742728,-26.483406851251633,-1.559361471487731,19.48734417991006,30.84113472666613,32.8893771117814,30.135643712876874,27.913717476357323,25.383684943574448,19.493997271470782,14.058383631810463,13.427573450670057,14.544511487364781,13.740957622648695,11.295087964125946,7.308644627092654,1.07245665902545,-6.586825501681469,-13.265928064190403,-18.166766962256524,-23.29872874199572,-29.76050558258943,-35.329633276968856,-39.16091741769058,-45.7392160825251,-54.806174712736365,-52.619259226155556,-29.23352698807817,4.558873297780505,31.801594476287484,45.69317403140974,48.52391766000729,45.64597646637842,40.08282504385203,32.390836529786,25.228289372292288,22.118638679874454,23.184698425171963,24.45117270354679,22.316534188312637,16.698948303075852,9.563539648308863,2.180997837119451,-5.216976737502281,-12.814914754661814,-20.37196231337979,-27.0735526206667,-33.201304434048865,-40.20202819807065,-50.07721422462919,-62.65942397788132,-71.51008693777139,-64.93822410110339,-38.41140277984713,-2.080174007675346,30.764909072562162,51.42818666774413,58.26994773590724,57.30037207739965,53.13872374174959,46.45672047052742,40.21054597660885,36.00549620975104,31.860325189220934,27.518052911967047,23.002475571721064,17.110210627840132,10.10533904980874,3.3815491958627635,-3.2778639497354654,-11.566889259804391,-19.94879047185421,-25.334256607482473,-30.016244236277625,-37.64320466045712,-46.882046043020964,-54.86457073132847,-63.90010362486602,-75.74132518212984,-83.4841003245765,-74.90294646331549,-45.997417663771486,-7.471504880777703,27.159825979217167,50.65258783115474,62.050337247569,63.93313898902603,59.05813971638411,50.859196237032236,44.14289829044679,40.62473443597364,39.519224897166765,39.78718887626874,37.56720190447475,30.686641685958023,22.475021630877478,16.17619649211556,9.657847155433844,0.4676671331130669,-8.723709566037243,-15.705113439881359,-21.60786615957234,-27.968120285972223,-36.131958894854264,-44.5982210015632,-49.60149836165055,-53.45037684629051,-62.3879593043768,-72.43710043779583,-67.58134744976887,-40.434341962240225,-4.538214859887466,23.001223501959053,37.95247194817114,45.09691478284006,46.25870597123444,41.27278177066412,33.17240726135379,25.572027208898657,21.389624016448945,22.84011349621503,26.129204553175576,25.628015067145196,21.518628500210333,15.703461855890858,9.871986189703618,5.935394016497915,2.8180521048464255,-1.8952997428015748,-8.09092694447534,-14.49225481014923,-20.98247379229624,-27.598132180648307,-33.98587549827768,-38.4740528796561,-41.221003656948064,-44.54921468274443,-43.02431744028106,-27.78102838315811,-1.812473915157008,22.819270698183644,38.89769099180366,45.9004177147865,44.89423595194049,37.88157818108432,26.85035662299733,15.332187696870985,9.92703906861175,12.804083097775472,17.875632180782706,17.62314134107202,10.97878310845129,4.341094687609274,2.6259706379711627,2.820948592913108,-0.7256986368383784,-9.001477209948655,-18.89905550152667,-26.87822758642178,-31.41377294354175,-35.29707982148933,-41.26698427243499,-48.688055872775095,-56.43823174169772,-60.3326220378988,67.0,127.0,70.0
37.27632229710916,45.25458203750872,41.95472249263906,34.226965658946035,28.671276628164897,25.88357737148345,23.642714707945288,21.82358282233901,19.066872815742457,15.307138288851593,13.390845112473114,12.610418853519715,9.855622305110526,4.018115246407504,-2.4990647335052785,-7.7245232788965215,-12.70719192527446,-18.88745560404648,-24.847953435506373,-29.281299652336244,-34.966289703709,-43.222920098760405,-48.029137841002,-40.45633060383417,-19.495970941460925,5.3133415206796775,23.841787562147935,32.25746122468892,32.30711573142979,29.32072553078941,27.42074165681473,24.00163636922252,17.57616057501375,13.386769034049054,13.81488736468745,14.545112967772699,13.162375032005954,10.339595240406421,5.745270567448764,-1.0880544014722042,-8.718505586445598,-14.805687827947535,-19.521995141275653,-25.0715219094697,-31.598540340033,-36.489441925350526,-40.557085576324454,-48.4919469505972,-56.09623053472009,-47.93726411044174,-19.692242823547012,13.63779741700178,37.20242298715508,47.41790022112522,48.065722956081544,44.285300278216916,38.024474000405384,30.083495316033954,23.81759092233915,22.11931445009384,23.74432835214927,24.253813134210002,20.978606037043114,14.705610026705532,7.436723728228361,0.04696509121319949,-7.381911581014591,-15.042308737877764,-22.41188855015868,-28.858207465263867,-35.04473611222968,-42.68948706932977,-53.57133330166128,-66.0791648765666,-71.67795803520524,-59.0991051305402,-28.272550257264577,8.248184880494213,38.23218358934718,54.65211582244775,58.4726208109199,56.38365245746765,51.39702689349147,44.44212170091235,38.84922713390847,34.8740423187652,30.58463705584284,26.286174547991198,21.47143340794889,15.138924643433102,8.091842388699014,1.5272204453006804,-5.469048179266973,-14.169186765947458,-21.82717717245036,-26.541501950629304,-31.869959882153132,-40.32203789580292,-49.326537736825294,-57.17240777965624,-67.15491693738481,-78.92672747691019,-83.15044910671276,-68.38824117869483,-35.17937430946564,3.388154901627137,35.24034966780111,55.104292773084836,63.437477012895656,63.106998858200555,56.81506944236503,48.59974184551131,42.82842420857216,40.07974479862862,39.56656507703097,39.60725805953399,35.988656454464554,28.238776131200783,20.44369350100776,14.510544453440659,7.236077528836222,-2.3590689591021747,-10.957655734536623,-17.444307560290262,-23.335095219497394,-30.111624761832694,-38.738970673486286,-46.46925549409394,-50.520430671443236,-55.37884149452557,-65.76919895800512,-73.28320813640718,-61.75976660639485,-30.06035274778521,4.75391685490206,28.452242251237386,40.62422046339419,46.0893909608525,45.37816009974715,39.06337281081203,30.80769682484813,23.858699987284684,21.257137562538137,23.91756437269164,26.479827684471843,24.69968356066817,19.9632002883385,13.90828557012237,8.520419363034609,5.07187697257189,1.679347213827443,-3.6059192170126257,-9.942326699800246,-16.350783347145843,-22.883589373811265,-29.513991341004512,-35.56091265371781,-39.3107378519493,-42.150260416680155,-45.08736828252206,-40.198051491915066,-20.88238292534545,5.930330469565968,28.44218774654908,41.81279764653696,46.364476789452034,43.38522143076488,35.02048395571776,23.308027932894298,12.875243266357538,10.054809234346843,14.429235928246603,18.56694002618052,16.174161983119518,8.712378434109946,3.3298563571427446,2.7694885274916476,2.3429077997029735,-2.733781831929736,-11.856311970206393,-21.54182197572928,-28.491867185832795,-32.41895493387145,-36.78781682621878,-43.32464601066909,-50.947375959933396,-58.35594428191752,-59.219570781573324,-43.11458334129246,-11.737613641367805,19.84495418232518,39.15209503447491,46.09872354060961,47.73139815917436,45.301476388371526,37.71459280407319,30.019826665214673,26.820627691887996,25.2434123487687,22.420324670880216,20.44540592157775,19.868698062747015,18.070564787156986,13.562174193207639,7.2354516154925115,-1.00376915149198,-10.338683690937417,-18.27219548972789,-24.00141074669169,-28.790930870819267,-34.014188216136894,-40.84531617484184,-50.228550205690446,-60.68032058537028,-65.77938643755616,-55.059339152153875,-25.18317581754602,12.24672913423632,40.5600377471973,51.43661262694289,50.112742188592875,46.83625885469129,44.827029839992925,39.92934301293932,31.631042610621908,25.931741472349454,24.852016550460572,23.65695973508982,19.689313909221287,14.096822900150187,7.915536679916221,2.1837152625287284,-2.0209904272196098,-5.24793596260684,-11.068249257017127,-20.709956724937335,-29.15575403357043,-34.992353758281666,-42.60176769322116,-52.11193604899745,-60.19974322849229,-65.3322957797893,-61.39793702968093,-41.02291967763253,-9.898748814533112,18.225702340690667,35.878657620879466,42.36329270394064,40.92716178833715,36.63534162535215,67.0,127.0,70.0
19.381763473608302,12.641582811590258,5.302405539762671,-2.0865072626179213,-9.572690073131756,-17.247958230142714,-24.363404430825575,-30.615104415413757,-37.00664485627971,-45.46794492600635,-57.251635375707586,-68.95354213727175,-70.24317731524297,-51.63699908003748,-17.676273934036477,17.999769807786016,44.512172748455114,56.77643106308642,58.22039190848502,55.24321102675925,49.458150583194396,42.57209548536791,37.642458046419456,33.68762755804292,29.322215581530738,25.015302526190663,19.797854210017572,13.103515523716627,6.136798916873181,-0.3555332735770056,-7.842037550214843,-16.67779509414585,-23.411104149410374,-27.810953899184852,-34.02661055721033,-43.04297227894164,-51.622538057063,-59.68984429032721,-70.62638771634357,-81.50594245072553,-81.14061373183877,-60.23599844566655,-23.933543746156964,13.639514409928301,42.280637231859686,58.57915693353888,64.10738051766366,61.772539474842205,54.40234744930422,46.57950538314094,41.77176667554095,39.72068359363963,39.691382194820726,39.08791397564342,34.029780601574146,25.802263258723947,18.61573744749826,12.710531243981405,4.582341885641792,-5.079040479186659,-12.995539341250629,-19.139437921792307,-25.131851222325423,-32.44306253753967,-41.276850074345006,-47.96994210722183,-51.49701684432883,-57.872526962490305,-68.98224082864871,-72.42205096457056,-54.108817983623744,-19.459252548734842,13.010042953754118,32.9056984151653,42.78328176958615,46.56128055259978,44.00151311481391,36.70152152483113,28.551076131696266,22.514954787588568,21.621461700435198,24.975664167190335,26.41672457818963,23.536033002231132,18.290665725823985,12.171183619213874,7.357539488853144,4.2144047904617485,0.3561167947921949,-5.40094373875646,-11.791045012411193,-18.22306506540741,-24.793605542381925,-31.39661999154126,-36.91563761618945,-40.062066213059985,-43.17123280847099,-44.96564964311996,-36.05575696872614,-13.325460896161378,13.253325196632046,33.267694480594095,43.993408265116884,46.18850363528437,41.43461819453462,31.860130362342858,19.849066206026333,11.109830981316193,10.834737980736374,16.02576847314036,18.6563077269296,14.254490148515323,6.657616523208027,2.7791360607582214,2.921650947164077,1.433229612797486,-5.096131652875305,-14.757716347470021,-23.936393102230547,-29.81969683303182,-33.47896747413287,-38.48290720401589,-45.463142495225924,-53.22416587109299,-59.777833414657,-56.59120133242152,-35.08227514155239,-1.899226358743779,26.944340935549477,42.12704315118915,46.886923534816766,47.573993422456695,43.52976542985469,35.18353076208606,28.630686364038482,26.431953724401552,24.515813513182614,21.655049437503195,20.220816850480773,19.602164685239902,17.02003002509259,11.89933701949684,5.062285594799547,-3.6876793150090847,-12.872052261437299,-20.113193831876146,-25.415959316551312,-30.202808772866273,-35.768464906340355,-43.28680524828548,-53.31122060944449,-63.13991131202707,-64.72613435968309,-48.132713440068265,-14.375068018076421,21.985664991030458,45.49337344385958,51.82787298439417,49.02041005130876,46.25110695406569,43.89216507163095,37.677445532988585,29.451702497554454,25.296674797423005,24.738526087403713,22.778525726558627,18.17421907903882,12.340370188886903,6.151811306584497,0.7896197312364197,-2.9491992372781946,-6.478070507817558,-13.610704696806103,-23.507622056236055,-30.941704445985593,-36.85907816482784,-45.31838761566589,-54.67535442900471,-62.10357759483254,-65.57103111862423,-57.261565225957796,-32.519800786908405,-0.9601776401576599,24.523690861977148,38.81554936878651,42.55430916239926,39.74399918987822,35.55961174782835,33.23903680821451,31.891681461558164,30.52524712548539,28.61556686765941,24.145957233210243,18.972190107345494,16.665071715993463,15.191892481096819,10.706167723607269,2.534389068730816,-6.35815206647981,-13.075626263274506,-18.77911776833819,-25.16500637143994,-31.232842691813204,-34.587638255824466,-35.93198720804595,-40.24419351747704,-47.51129582514821,-46.57330060484407,-26.618054819570183,5.580007466231455,31.57691124558439,40.89909098126233,38.05527031747015,32.89781619180776,29.44923674176984,25.319736103900613,18.571674162372314,12.211196130732239,11.270872424121166,14.555424011883256,15.269763441394113,10.42562644983452,4.840584400536447,3.0527875661890773,2.700219356478767,-1.397438427947659,-10.282368015199234,-18.011691688091265,-22.01190946932114,-26.622113068170847,-32.22631751716975,-36.495569122824854,-41.4702697547376,-42.701479764942675,-29.46085420464169,-4.381547056309371,19.839795791866578,34.819163286113834,37.914658615852105,33.686704156285344,29.101376214644624,25.44683807676386,21.909474259279722,19.28030197178771,16.942950884053925,13.274206576819136,9.313568957215606,6.984391340168581,4.70548734558601,-1.0067730866403224,67.0,127.0,70.0
-27.039301733031035,-34.94124451346269,-43.61700203293711,-49.14208735375821,-52.737976293029924,-60.877098842639995,-71.57956644383435,-69.58563831022514,-44.99750012741831,-9.110431966231689,20.116204149069763,36.522021499361145,44.474459388382826,46.48274536368242,42.210246993206624,34.28374111364847,26.46059994347019,21.627587398249183,22.38977807987776,25.837310397222858,25.957739131777057,22.19048751979837,16.531296834444692,10.558938882344913,6.356222929980899,3.28744119599083,-1.148247534032569,-7.238187054335253,-13.63885710155299,-20.109104065840913,-26.712114523043127,-33.19876565346835,-38.03271025956775,-40.83397999957683,-44.16039578898889,-43.89966930590644,-30.652135758747054,-5.453956754635258,19.96575936054892,37.29986447458232,45.45944919436325,45.42623330777555,39.08722540260728,28.466926007813388,16.658840329058332,10.118816907726615,12.106385870279913,17.382642374462367,18.09643261536247,12.041027743950533,4.968811578143031,2.6100716842205376,2.916572282444336,0.06029711402677334,-7.725016365330242,-17.618390513185158,-26.025652493782612,-30.93943563112167,-34.68000229226622,-40.355210202740736,-47.65945013238924,-55.45628333831615,-60.40272283121224,-52.30648818242947,-26.00796759279563,7.5234237809057385,32.807769802936654,44.20727187114923,47.407722862025196,47.00588730518804,41.34697955207228,32.83140923350961,27.66538605394046,26.034988807278637,23.678140678107066,21.038421561288033,20.080835725038405,19.153071309121085,15.744072000332684,10.109654825604805,2.712847377721885,-6.4180796786066425,-15.220154069269064,-21.785316300418874,-26.788986054476325,-31.68102961206078,-37.68576661201385,-45.96056492835005,-56.41335379996614,-64.93796802489409,-62.07327103446424,-39.67002959803562,-3.3469037990300565,30.571115064305406,48.900927189765675,51.45017651032709,48.00219755587098,45.737789781901995,42.58253502658204,35.2177518427774,27.672075892981066,24.9968336074907,24.471418869717038,21.661073136622694,16.56713757279886,10.547828861758413,4.460396650093159,-0.45764576386232336,-3.8312722948286266,-8.047252591818145,-16.428612737013278,-26.040131868223355,-32.5745312834733,-38.99333557316668,-48.11406356393863,-57.056550166453796,-63.73613353018869,-64.81094903311666,-51.63322357327881,-23.42949951108235,7.404182696308157,29.85605263904946,40.84769124820929,42.1920901134565,38.45605675493985,34.67636974114674,32.8326145842205,31.494822983667408,30.112386266237213,27.629554818734466,22.50256948094064,17.98882472495346,16.352970055923127,14.312948626237391,8.648568053601094,-0.14423862988419522,-8.546777836607308,-14.710099325876577,-20.54860631028932,-27.05437404118351,-32.559261292756936,-34.99620308610173,-36.674078869181386,-42.34353373986556,-48.75358924544299,-42.863790692005935,-17.800728852708612,14.48182212232467,36.02812096884327,40.87088867741867,36.45865715018575,31.76287091039128,28.48006304991747,23.609988362841992,16.440220370314044,11.263417595510221,12.053164929949345,15.310429898484447,14.346941071860254,8.577482352099464,3.9158475272318927,3.036321402511359,2.0896599231691204,-3.6442738620117288,-12.932555430301248,-19.40633970782221,-23.11326704343164,-28.297243060408793,-33.564855544465416,-37.796490079505446,-42.742608599543885,-40.60823077318393,-22.88970231661791,3.2017376194128584,25.34161713055816,36.8790198534506,37.08480151532968,32.21827392881989,28.0157174777643,24.39124381456175,21.031871441588464,18.664037445237557,16.04014333945839,12.043812229888376,8.457654843554494,6.490060065207839,3.499949116689462,-3.3566338686310973,-11.786441179567923,-17.144795374696706,-18.550271609310638,-19.954983034103343,-24.81744065306453,-32.53204841882871,-39.705690673649904,-44.87182147721209,-51.06190149898857,-55.83208155536348,-46.107337803890864,-17.194149419410678,16.50134654961624,39.661473616336714,47.97333204554253,46.60127044905428,42.81483542071563,38.914007625828184,34.082631718254646,29.45579792469869,26.975304232591448,25.966207634043503,24.085343502640676,20.845727674345042,17.118333508951682,12.711709627846481,6.517457894279962,-1.5909655806534195,-8.288814911148828,-12.473253616754295,-17.333574557974437,-23.336463958062073,-28.914391750864024,-35.06667217318318,-43.92720109171964,-54.54699354592461,-60.4929579800389,-53.01313546689334,-30.76728547569101,-2.2996990440421934,23.048129264685382,38.64936322943342,42.4201280945301,39.41165348209602,35.182785439364196,30.052312024991892,24.21458613085943,20.75751904509357,20.23315679996053,19.844045063544144,17.70678616435412,15.681543047605757,14.544869892404217,10.312232735542796,1.9035820818926346,-6.34328491006321,-11.136215731694966,-14.193583139656994,-19.040308084172576,-25.864422939349918,-30.929386199632354,-33.16732499614908,67.0,127.0,70.0
-59.90771574385235,-46.37005216209532,-16.30284063629318,16.18472952744885,37.423255775008634,45.61609474844918,47.69111862950313,45.95583239658737,38.89076327484058,30.811107904875385,27.03496879472214,25.52828798013885,22.808101229976337,20.594334342189242,19.94934425485375,18.47067539011305,14.285196411616162,8.179050659696014,0.20064927399972,-9.121995351606122,-17.35774595551362,-23.32540404408958,-28.154758357467106,-33.251666509208235,-39.79802088285129,-48.842975439166885,-59.39536703587662,-65.78812449565181,-57.680323802295995,-29.969234997431585,7.457835967011662,37.758805555407186,50.91759806684279,50.593809860560455,47.15904830630753,45.157894468846,40.85798256917452,32.73170743092562,26.36970214185113,24.88425472739041,23.97402641346177,20.347516156315688,14.88996314068659,8.743079051638642,2.873317009136124,-1.558539954140783,-4.766003729396537,-10.020051408840203,-19.36516363760878,-28.24608294092879,-34.202832631696616,-41.40697828020745,-50.875954102686244,-59.25127955728355,-64.96052994785732,-62.800341342305884,-44.64034157193729,-14.143699523553462,15.00963205914254,34.20387910156228,42.05610724222529,41.40075365779201,37.18616164957119,33.984566843416275,32.4533949329296,31.097589099737267,29.623384094664054,26.37332886082095,20.920242002056046,17.29399182833807,16.001572723797455,13.10505777263938,6.306068966413363,-2.7782980589571378,-10.514127656931887,-16.329898830590825,-22.392228700650435,-28.867820583584134,-33.59436478910629,-35.314846587292145,-37.80950818572645,-44.5862469815702,-48.930096740767105,-37.400859867551375,-8.340992740145511,22.393901511737088,38.98621870114306,40.064184719736566,34.897547682093574,30.778743300511422,27.359952026542054,21.669080064618264,14.471726820908545,10.876671618628308,13.065674990064567,15.665954288303476,12.96856791017816,6.851855891356988,3.356908979284554,3.0197661028875693,1.0375288874241,-6.239250040835739,-15.28646108089625,-20.533574404207574,-24.396752209314943,-29.974953693398586,-34.77164069261135,-39.24931626545402,-43.439070837674706,-37.07516980289055,-15.593423169839758,10.404415960322023,29.929654702588437,37.93467598612088,35.83664227734211,30.85813960614646,26.971401170573213,23.346317039396883,20.25679274178377,18.026967657916273,14.99545939097161,10.852123354092363,7.769319192232645,5.914200229030857,1.9280840978367888,-5.854392643638726,-13.798159704729228,-17.843354357927243,-18.74080094941426,-20.949414414532963,-26.88087290748615,-34.81375574744405,-41.32510984688804,-46.426840850015125,-53.04299684746809,-55.10955079290133,-39.35051727239642,-7.109431891323024,24.69021005440898,43.492952310976314,48.20880900196702,45.53462376731985,41.73381592196603,37.619816526843515,32.615503137992576,28.48448655689218,26.638424950295622,25.58884315790178,23.246361361430917,19.800793142882323,15.95322697478574,11.16303252313181,4.279746242320021,-3.838342209108766,-9.640846765041683,-13.68995653321271,-19.039873205542897,-25.00700696469826,-30.52374065360418,-37.29914173850447,-46.99091603494915,-57.15771106731412,-59.99636017072205,-47.84974505884548,-22.707786869910773,5.675328736233494,28.785520394304008,40.84181469436454,41.925644561026026,38.20686871311632,33.85788318320542,28.31797803246477,22.85737780121167,20.397052359240043,20.245845350238692,19.393631716184345,16.974517537892734,15.386417487367835,13.820703360968606,8.178845774440049,-0.7243027863449265,-8.094957340958477,-12.030917175458418,-15.296326416027506,-20.949337208849972,-27.650354468715626,-31.803334992567102,-33.543641382560544,-35.309944679216386,-40.75212115360237,-51.16347336328274,-56.1184987881074,-40.099468505963436,-6.930328824284434,24.317794585741858,40.036961553399436,40.8340565222527,36.343778027645094,32.1218179373341,28.464243230073375,25.090122451461397,20.572916298709185,15.395503169729649,12.505175177999863,12.416543745605033,11.359412118116062,8.191267705541025,6.503398720196403,6.672061772522876,4.1462447053773746,-2.121091065889709,-8.002722475638658,-11.451752436391784,-13.421441487821506,-15.760438323308087,-19.339230207723535,-24.91745060569681,-33.26898622847956,-40.73664873706378,-36.00724611948464,-12.210492048150103,18.01927565142054,34.65438152510484,33.967269023166146,27.138997829514302,20.682638905424657,14.033258951845122,8.44950855880116,6.415338717050607,7.142025606584722,7.831509018370083,7.449777570362275,7.406614999068001,8.311078642793673,8.052897038146535,3.7981252860459405,-3.883138964761217,-10.38890204699221,-14.160196606430103,-18.323414227338407,-22.928251654170356,-24.65618222874172,-24.008232451115052,-25.462512488170155,-31.59785019526481,-37.30132129766445,-28.550950210747686,-1.61037960852256,25.2296693533182,36.02379354211865,67.0,127.0,70.0
36.033156848436434,33.448498445937915,32.071653344068054,30.706141085034567,28.98291739476264,24.88533254846709,19.526066399218152,16.82853650290687,15.499978988033288,11.544163905207169,3.7547303926688116,-5.273617066281095,-12.297823881849512,-17.990270985992467,-24.285828169406038,-30.534203643993443,-34.33460604402347,-35.69347811309285,-39.38148790471481,-46.68709872623267,-47.69325661377887,-30.335100981077026,1.2521069487839327,29.013789004435452,40.573962986740604,38.75576960022979,33.48474828087006,29.869137269567933,26.02150988307429,19.56643336056038,12.823835516756672,11.035529351249188,14.114382137580975,15.519069451868013,11.269391653180884,5.394964863395208,3.098702481846029,2.860344669490417,-0.5134953065862855,-9.005843356281797,-17.246304450568385,-21.543213662675655,-25.881420348341617,-31.552164433439444,-35.939250979402246,-40.784451546396454,-43.20714559892257,-32.150280004480216,-7.936751367291897,17.026548200603877,33.51681738414833,38.09635716839817,34.37933881589981,29.629072649639824,25.93064533630565,22.345978787413564,19.57328064323311,17.311979340676967,13.834625900446012,9.765231029667863,7.213878708763206,5.149191485295858,-0.006510031707759143,-8.365777017202646,-15.449032574100688,-18.24886604778525,-19.059847859391216,-22.28437118710419,-29.12460582178154,-36.95286282359684,-42.78969486534474,-48.18147322981714,-54.71736047584574,-52.77872238526617,-31.094122265447094,2.889313295557193,31.71459372139525,46.09421397915925,47.83182600990547,44.42058857871262,40.63421573336606,36.22794203402679,31.22505813059938,27.727843341027473,26.372403304433668,25.082325080686346,22.313494980434342,18.732938216581847,14.713841784399705,9.429087910197449,1.9069532517744892,-5.852417240838452,-10.82442029478049,-15.054221119277605,-20.796607695939297,-26.61628282170556,-32.237811484931626,-39.803551724143574,-50.13418160910905,-59.16285088373826,-58.17371917057767,-41.542907332259034,-14.39998224502933,13.20031293252885,33.55900102869943,42.069143550148645,41.048524901986134,36.992950339629395,32.41114714325606,26.574245488067255,21.782207885198527,20.245943058688336,20.18580862966538,18.77934241174842,16.340987905953913,15.12577544659707,12.710615640954927,5.744208871374792,-3.200985946610016,-9.523603074356572,-12.868068795238496,-16.632024454019447,-22.96779256715706,-29.186341919669907,-32.466781551620066,-33.91111485791091,-36.33377172535655,-43.415000980178135,-53.96950296515429,-53.974140419797436,-31.51729701041871,3.1285872835777893,30.709742005849655,41.42858718736267,39.674726294066936,35.048394020042196,31.009268659835687,27.50560790440854,23.957377908048137,19.025368670100516,14.211193938109009,12.307253218386013,12.387386970275767,10.537618712201159,7.404268930170913,6.523326788959179,6.410284227267349,2.569344437687044,-4.028970454347677,-9.244693667128379,-12.088573106642398,-13.996172988428508,-16.649018128592857,-20.691043914597287,-27.065953256244008,-35.895963826006806,-41.202705266843886,-30.9218229937128,-3.157595508327048,24.83068453618132,35.841023388104404,32.132333439923826,25.210286449597632,18.807528157806498,12.1684398452741,7.457822322776069,6.4609509949125306,7.450936549250515,7.796016673001203,7.326159704465114,7.619016791424892,8.497315469035064,7.3110734142754845,1.7634721123301413,-6.081383696182053,-11.650846874110794,-15.205545228135378,-19.753070856775775,-23.819110956560234,-24.54328033931565,-24.014531213063172,-26.77685116963503,-33.814248195954335,-36.864118081801664,-22.136074536268133,7.181210245079105,30.19859888261605,36.20059364930296,31.9672708387897,27.714787156304535,25.54876981249565,21.197388689067864,13.575357457293464,7.1192383189666995,5.534998577202661,7.5717993520799,9.726886203074443,9.669790134836816,7.318571497077574,4.0672865419127495,0.8818363072174001,-3.3062818857256016,-10.952257822310862,-21.08708015115191,-28.13819608400062,-30.976231640760112,-34.896633153305395,-42.27730180549057,-48.06492102902175,-41.836417976321975,-17.862249397046675,13.871450993744059,37.204363275707394,45.25784415554985,42.27251686402916,35.84121167704768,30.303983131769847,25.84539132459537,20.738762741393295,14.654341935476909,10.53143632093212,10.244677742437839,11.296725987132124,9.866442423235027,5.018358744884534,-0.8451558795337706,-5.726284256182721,-10.856308532870212,-15.336140859268749,-17.789895663078223,-21.579331440335764,-28.490493735012773,-35.24196762804184,-40.45885292013698,-46.4549419991158,-51.15817753778485,-42.62681789670019,-15.680570762189335,16.331067555939647,38.52143117393851,44.95707759207028,41.3486708714367,37.43140376316199,31.894677375509822,21.509961792243033,13.012382455655064,11.59701242653782,13.178974517206877,13.58600848900677,12.176172995967933,67.0,127.0,70.0
-2.24719336839921,-10.75749441177991,-16.701212814989667,-18.472758288047196,-19.606195720886383,-23.949310423362142,-31.45542880934886,-38.888738917042666,-44.20319514515268,-50.12810553038998,-55.713965336595436,-48.63772093624202,-21.742828765417816,12.386963155545624,37.45757567793673,47.599827743699855,47.04834482517709,43.31638040547539,39.476645066948706,34.766403764289656,29.97284053091496,27.173117660675608,26.106833344778266,24.43186976855222,21.318306417601697,17.6369072421288,13.37290993598233,7.4853106818511606,-0.5015230142201449,-7.5846836874750405,-11.946551142965168,-16.581202254261022,-22.54519386545553,-28.189098218952694,-34.12334719847553,-42.572411522897035,-53.20645469400991,-60.314434873321424,-54.95893700078805,-34.32670631722413,-6.08117383270967,20.111949272976165,37.28871738301873,42.46805049577576,39.953641532190986,35.76441588495592,30.825317457661342,24.920049902663404,21.012381032290808,20.22376580242126,19.99091003434269,18.055229877550225,15.855005377905398,14.775025965710528,11.167605852956868,3.1308829762812898,-5.423347848131269,-10.676784318943698,-13.747725222570937,-18.22452621977336,-24.975747949847293,-30.44271234257502,-32.97223694893093,-34.3488265075396,-37.769060141406044,-46.47730388219191,-55.894067290693016,-49.765027876739374,-21.86494446337229,12.525476905817541,35.5913444484535,41.73950010617571,38.33541409709129,33.8209167547547,29.939489496557357,26.557165760360792,22.681609590049213,17.477490544685597,13.297211902971872,12.306250979322602,12.154386359220712,9.583211790925164,6.849429954678117,6.63485009094894,5.788291650769133,0.738205994014651,-5.791240034469621,-10.274580803779735,-12.644594122524069,-14.645000148271349,-17.64812436789764,-22.238345998586393,-29.46055337670387,-38.28858328254806,-40.29713833819798,-24.220783347756313,5.914134976899709,30.064585336608452,35.734830381728834,30.10369982050993,23.356951309920117,16.878186382538537,10.469951738699177,6.805196425580439,6.678863622309422,7.685225982666807,7.678389528912796,7.281040181154701,7.898084610414345,8.511763137803538,6.171846333223831,-0.4875495077896327,-8.046483003918562,-12.720306086330663,-16.375237675031602,-21.15565621595846,-24.38759138087035,-24.308012215390722,-24.319715775974004,-28.50986107448727,-35.76263355327697,-34.8094380452462,-14.352863791172277,15.350730699623472,33.616875740142305,35.505206094589646,30.448098114218272,27.027924966448225,24.68811843807232,19.208056738521407,11.341981047056187,6.130036799108689,5.900227022733219,8.327714702609772,9.979478019280421,9.180895443515087,6.402985330315953,3.1390911008954028,-0.11581352015266919,-5.08552812907604,-13.836008469037601,-23.66227070425757,-29.209835029558093,-31.760625706947266,-36.75824706564989,-44.512362732478586,-47.983930302735715,-36.596697281769366,-8.724357136138297,22.030860007638974,41.07198223415736,45.18252038939595,40.48061246221539,34.08508244768528,28.961259331111048,24.518573407035458,18.992351765663706,13.111750834250643,10.07901044031053,10.609857417831298,11.246778945085266,8.76605585485788,3.2736270178703504,-2.3338432641445888,-7.137017584150493,-12.347805531992853,-16.181351334032133,-18.554567288557198,-23.34498404689198,-30.61963483873606,-36.83162978208129,-42.021680808608416,-48.3299590992504,-50.64231350243078,-36.40946518318891,-6.153626057143332,24.197719781562487,41.988366506920535,44.42094667827298,40.0578287218292,36.29486470594545,29.257211308134735,18.448558250160566,11.926297215630969,12.023455444211546,13.47156489373722,13.386031292002931,11.36186435035719,7.653708330425882,5.066998704807033,4.547288010007479,1.4483940135454925,-6.357128966494975,-13.062704427849734,-13.717623521924212,-12.782231104088828,-17.666718035561317,-26.927744910943044,-35.35911116637363,-43.29815280584257,-48.98034748063309,-42.275909648241466,-19.491778716929847,8.25689061611132,27.623091456436647,34.67696733190315,32.27140280308792,24.766512347847875,18.537168424291707,15.943326147090046,13.52859026979671,11.488515986351624,13.147202418888908,17.24414892074495,17.724340031947172,13.666844718434684,9.47774164156953,6.269074239826029,2.062782619031942,-2.7763737310780354,-5.3177436128523965,-7.339179295966234,-12.702409811948321,-18.913234952455543,-22.7670331959538,-27.137532599296517,-34.68148515955917,-41.52440153937321,-36.97138684550317,-14.894854237393474,13.373733264010188,32.239808567696144,36.88389169335854,31.847226968794462,23.934865920663746,17.086859658398396,12.160919988418978,8.744998838417942,7.663640614184868,8.346735706296304,9.089537357183147,8.963184672100777,5.780903463654646,-1.015599348074071,-6.5383787816154335,-8.335803601114204,-10.906247559205534,-16.07274573102566,-20.543126481320613,-22.793759039802588,67.0,127.0,70.0
-33.375498478577825,-34.94977378729267,-39.69145641928086,-49.71035543841755,-56.444954100654826,-43.561922189038,-11.668418208330694,20.88926829350387,38.96373913274853,41.2500706195178,36.96349748403756,32.648000518613564,28.91855926978657,25.571797494983795,21.26461462834598,16.01612077226745,12.685805523418386,12.38745957481467,11.668180421526111,8.611520094695505,6.556380130088544,6.699074420360348,4.756883745455108,-1.2154276298652764,-7.355337826742501,-11.116892226161074,-13.173041140033696,-15.385655488618115,-18.77249377567533,-24.01430657391521,-32.04423063956248,-40.15081168328366,-37.76358542976665,-16.21674722154023,14.427585032522671,33.592575008580816,34.67777055298517,28.05921012143293,21.530621321888315,14.924785176201096,9.018160732389493,6.472825580696715,6.989464133861653,7.812034368431647,7.521440863101371,7.341447012947174,8.190263572016711,8.271006916735521,4.632545918158715,-2.8201225453559875,-9.718659986645045,-13.70474089918704,-17.682686662317487,-22.420384712625303,-24.63638704301494,-24.077030291820474,-25.00439994265063,-30.57663795551713,-37.04910303802017,-30.945669018646374,-5.7144179116218465,22.427508253688703,35.56800240035948,34.24184222142304,29.138578016446882,26.457790740420958,23.52333141727287,16.98451643495651,9.355088240002257,5.591103843313757,6.492858740473681,9.005504293294681,10.014156380605826,8.51747626488208,5.454581260258191,2.2284564986400737,-1.249672883507891,-7.21762327913027,-16.838469119880504,-25.821654708136037,-29.997919043716806,-32.79233074003511,-38.89874166861356,-46.423050526758516,-46.6026518893457,-29.856926202664347,0.6551784766111911,29.1252781915519,43.62748776638829,44.36924394639105,38.58049280791735,32.45652715829635,27.68689556982843,23.08129376571797,17.193998718874717,11.826291824074659,9.959340065024238,10.977682034109442,10.914276541423039,7.3898454046993685,1.5369282110169022,-3.732097169193578,-8.61722857667362,-13.709719795144112,-16.864431646587793,-19.55703767930924,-25.35030638478205,-32.624674709763084,-38.31616018223444,-43.72738086883104,-49.95121371870358,-48.637730680413064,-28.728620513146023,3.3350943903771384,30.95984803156742,44.080072895841326,43.3243678859327,38.925009018132634,34.84758868328344,26.225102815946922,15.800599787496052,11.45502138670415,12.53095104015457,13.62081345741595,13.026642838072593,10.381579855060899,6.644726586736945,4.829949128585044,4.165120371777349,-0.46521934973420526,-8.752032996796663,-13.87195440659995,-13.205118726564145,-13.452753996182704,-20.17873028991406,-29.544218074105558,-37.60739136965427,-45.527575051932885,-48.767787405338666,-37.0811144640245,-11.284592623832964,15.09383184388794,30.85386811147961,34.7896867954736,30.37080262437602,22.573750678981554,17.531759108201168,15.346375518081722,12.745921383902406,11.498798824779493,14.330039305161941,17.968716845803584,16.840004443673486,12.31564717299796,8.524291129476675,5.229513705862971,0.5910075816489365,-3.804658186146213,-5.723188504129728,-8.517797193872575,-14.6498421224748,-20.237916007320337,-23.776083687805055,-29.013140589592684,-37.10573662047664,-41.91251679474522,-32.21682766338348,-6.548798255836619,20.237153060723987,34.965936646794034,36.09737870372509,29.616495572652088,21.757061837871518,15.489685595111123,11.006924790397884,8.156707150985692,7.771555636002347,8.597038455547162,9.204729286562463,8.477285474679185,4.053029083023751,-3.000311358075972,-7.321826772578027,-8.773996591369068,-12.243263113596957,-17.5782036228773,-21.394794061051197,-23.17147869524855,-24.320188438847172,-27.38317403919076,-35.40227016407667,-44.13316052203107,-41.19985518688429,-21.22460766107841,7.2275974524748055,31.505464398954068,42.45610660171234,40.37003929171912,34.925960949140396,30.382697535931708,24.765136844078164,20.450402935366032,19.941365954797774,19.616059295080927,16.259324328105915,13.38662896194016,14.052860969519704,13.549839706463338,6.102448728868615,-3.725450332481652,-8.115083746897296,-8.435766645992706,-10.886135612937302,-18.031221788130175,-27.423227896012165,-35.81668940913004,-39.981232581746205,-40.337584083495315,-43.37642861058713,-46.74621863290312,-33.597803752381935,-1.6870905988427811,27.185308575890424,38.61672099194633,37.73008488254492,33.82335889666513,30.074523980893098,25.57330276749343,19.529404980611833,14.064036446328686,11.887633538798738,12.927549553641045,14.139394059723708,12.443606651949512,9.522756920077974,8.19085727207252,5.9279010828406795,-1.003562544114879,-9.580589825720166,-14.102381802575449,-15.793011064707198,-19.73874060829921,-26.65728565079856,-32.45726614404714,-33.219149055316194,-32.627106216736124,-37.368377023556775,-44.20475748188843,-39.03075669754605,-15.46613636326966,67.0,127.0,70.0
36.24555751613758,32.70070522105155,28.102416871943095,25.866805392064073,22.01108966558473,14.649403039018676,7.72747553284499,5.46820510349429,7.218316430041207,9.541067826487808,9.827975915630786,7.719493976913105,4.502166425723144,1.3147806686128547,-2.594648486545666,-9.701561520333946,-19.79113616728703,-27.512420339622047,-30.663568338265122,-34.15138608175197,-41.20328532247329,-47.73923354469005,-43.71095282899727,-21.8684390690779,9.827277832418869,34.964051590491536,44.98797434674917,43.02080278105186,36.68854423707991,30.95608406700153,26.432573768118317,21.50863787900033,15.429653701440836,10.859567230034934,10.110030140351894,11.238301990465034,10.27041680346028,5.800132906020468,-0.11966998642838128,-5.093881397105949,-10.1484496634785,-14.874619882046094,-17.487696827430135,-20.866422387762988,-27.49083129744381,-34.45724163796672,-39.77314605528419,-45.574890200510566,-50.985366199511866,-44.92898162230944,-19.962585318716638,12.392309378495046,36.45006156058833,44.925866642040106,41.97990717827461,37.90305756102841,32.944703407394,22.99612578273636,13.739169883477372,11.471007385906871,12.998489040485495,13.629149838000677,12.48834836719325,9.28797175164042,5.825434593707596,4.730899217365288,3.405703583640268,-2.738211443193714,-10.85086012564302,-14.119077761430985,-12.777916807469026,-14.747944436948544,-22.90505556847096,-31.998742609877635,-39.89239523163285,-47.425496330341,-47.218926712032676,-30.609137958824626,-3.0537468131891234,20.966350787774875,33.0717388783315,34.202472157111025,28.166186723168074,20.662337060377418,16.79635420014111,14.663767375817304,12.068902152555633,11.898638034504911,15.60442856153406,18.232173928896714,15.652324787375104,11.06661523335659,7.623210769393084,4.048398907661089,-0.8713666776938145,-4.572449873889619,-6.208894871250317,-10.035184914435517,-16.527204109018687,-21.34557584469369,-24.94988092671887,-31.176680480241107,-39.30381690875934,-41.02328499356734,-25.98955620251278,1.8623296424246565,26.008630526362303,36.50630681662608,34.67825330230067,27.2945226416295,19.731458221642214,14.045128413266493,9.972390269426551,7.799643064118598,7.977009822652428,8.82319882797394,9.225508658537702,7.658521063309869,2.0626085541579084,-4.711593795796975,-7.81927977015615,-9.431467060011782,-13.758794522821717,-18.92919403923596,-22.06565856692233,-23.492052907997866,-24.84319001815849,-29.157038450505052,-38.33957197777946,-45.00008170943578,-37.01375059840758,-13.291218609924725,15.172737361620369,36.274769061508145,42.83860374883692,38.733671758577884,33.60776380447032,28.87794794811532,23.179867191738285,19.96516993039665,20.07882675119504,18.9146216449065,15.134689356393903,13.268158435980338,14.395850158726242,12.134289625404483,3.071187056117677,-5.696466582055717,-8.344316245117898,-8.7018172874713,-12.510957650328377,-20.67007414453932,-30.090052985180264,-37.5746858277423,-40.24300654000308,-40.693180641843945,-44.933281719551886,-45.33076548772535,-25.58386428364554,8.014134301151092,32.334994468412695,39.137020005849685,36.64828724940663,32.72477099400147,28.92478287358575,23.94934613456066,17.740489082608423,13.038195365462121,11.942425591076999,13.4461376988953,13.979011925220972,11.544945849004511,8.966819746093323,7.867083462141408,4.4259279048037925,-3.6181591530081754,-11.417706753513396,-14.639463209871106,-16.550020867717762,-21.549742236498684,-28.69413972819828,-33.20900953061244,-32.831485994439554,-33.31500356309813,-39.64478616558496,-44.58135646499835,-33.84541769516045,-6.8263588775082376,19.99968213673572,34.563724024720074,38.1801792635585,36.30474505894575,31.438748020643157,25.21161920427904,20.008469284760952,17.79177220784361,18.602762649334117,18.483117034482888,13.947825142824188,8.265013472582881,6.754718299858259,7.757587848472983,6.217767807665346,2.455394666392519,-1.3033696986457792,-6.050119173050667,-12.454415806934676,-17.60922114061083,-19.96624328841028,-20.863726275188775,-20.824597189611946,-23.454749613170545,-32.69890064060302,-40.672653199419045,-31.247335580213857,-4.215469517848193,21.066449584206904,32.056882054400084,31.077228153044523,25.49329609415979,21.225685322898507,18.92654912214027,16.21407998470258,12.036136960771735,7.647618988741675,6.289285701713115,7.340931580480811,5.272079915383086,0.018540591866732722,-2.613775635534952,-2.1482935251764035,-2.742711321863657,-5.164918186052002,-9.505668414669886,-16.5978775788652,-23.616232669876094,-27.119728659778357,-29.88056340728395,-35.52278725724449,-42.47751631327899,-42.619116489886835,-26.146831895271493,3.516891942543184,29.375720467244776,41.34685406413475,42.03522054801869,37.49028694420007,31.61462797137072,25.133852929603464,18.546617134400538,67.0,127.0,70.0
11.75998005910314,8.159712586882089,5.248683403772435,4.634926375855476,2.1786912363977273,-5.207220963837753,-12.491577815461872,-13.91443059352918,-12.670338468045898,-16.631133886214634,-25.674399062802166,-34.31751487865811,-42.224936815087915,-48.6950823094606,-44.18483887150112,-23.156842866204947,4.828797888774431,25.773831207248794,34.36542328483718,33.00306133880544,25.833677638145694,19.118725768036548,16.203810565902096,13.89706860869188,11.603980139054526,12.67814142889451,16.783691292891916,17.994835049106737,14.304355783365107,9.949978199454511,6.711136535200811,2.7180965295724167,-2.219568293669704,-5.116894015534767,-6.912515835858716,-11.821399650969152,-18.21682498540923,-22.32572275515549,-26.37802713990347,-33.55086856519648,-40.99898252227428,-38.62248598299898,-18.589262980932048,9.898620243046368,30.563514107631633,36.9808014836599,32.81176458535655,24.978881716650235,17.880314460156928,12.729430862358528,9.089356848617092,7.662839171744771,8.227493022603413,9.01551823541071,9.094568577563663,6.461563188461078,-0.04820483319481866,-6.053433068934928,-8.174460718370623,-10.374048612352427,-15.346504000442826,-20.08229100145116,-22.59061087042816,-23.795293173907016,-25.610221440165297,-31.411689544562037,-41.11128825708551,-44.555145637472165,-31.42301517112123,-4.9669860486591215,22.478543286263523,39.74822408190847,42.27785828386668,37.09330302514172,32.34110361917001,27.240627255492694,21.826086067307113,19.806737870501998,20.081585906411416,17.942049733063897,14.19895985908525,13.463200010412795,14.436067334997759,10.058664890417521,0.07800851518688505,-7.073688719054045,-8.377249345796413,-9.291094943483856,-14.531055318707539,-23.405539125366037,-32.6029804043114,-38.89036004925433,-40.2747366596133,-41.47433971579754,-46.26597669554989,-42.03970833771792,-16.27595959981824,16.804426544618586,35.90075137058426,38.900702566112585,35.49424668160994,31.653644285681168,27.668381049590504,22.197898880569323,16.083382635301678,12.335323962832987,12.2341668798446,13.875602778312901,13.526537078973726,10.644608276145073,8.58344427295797,7.335382280174377,2.4788574268572723,-6.208961530032258,-12.806161454343775,-15.062490606553302,-17.608927894071602,-23.56457714235324,-30.501615959930096,-33.48109086590021,-32.518527460397216,-34.58488187956126,-41.870181244309656,-43.544240032048855,-27.159646400051024,1.7493973965289706,25.61067808718484,36.471828995694565,38.026521088838265,35.15579508603353,29.676891194171755,23.500189226392525,19.001653875723527,17.81101997853684,18.909054285941306,17.61884950498816,12.132395643258784,7.302888792950642,7.049784499588447,7.684610475933104,5.218213775210091,1.3549982119962378,-2.4812946633808703,-7.8071398818339475,-14.225711457383465,-18.528991442330423,-20.338745921606765,-20.897533060823925,-21.031308884451082,-25.495513961611724,-35.85779926940063,-40.259848080824305,-24.562863661031457,4.157288324669637,25.809267139830503,32.698843328117825,29.60661761750355,23.982900080749054,20.46067355335189,18.269421683375725,15.155899229153398,10.65568066089757,6.833721656512043,6.564650437682944,7.258875734017637,3.837466877076976,-1.202468408732097,-2.6097890853587624,-2.094133930708469,-3.292357778116738,-6.160595068655684,-11.30334411977042,-18.859494128623588,-24.98885942022348,-27.763427883379403,-31.17206914807308,-37.62464504312653,-43.73087925596038,-39.78794767432375,-18.286133851899187,12.117416448395062,34.312649359269514,42.430084759899664,41.0235868978164,35.84756761277558,29.81807220398047,23.156818016553988,16.961234644683636,13.426892758380182,11.60302176378556,9.714533937008438,9.55721335072234,10.432652050424265,7.016470381350452,-0.38478184166960727,-5.0434701306768845,-6.074772473194326,-8.608870390598117,-14.232237015463225,-19.343392886921873,-23.057144350133292,-27.4575677168646,-34.03213121428518,-42.58821785465695,-47.673742784991646,-38.78690983711074,-14.008782089350927,13.30254029910011,30.3928475824867,35.05484877030773,33.15915864399777,31.664147785615423,31.063861697768754,27.31761171037224,20.211392565174304,14.802230237400515,13.592943907631097,14.88654873930199,15.588674749569936,12.483006847581102,7.067608306658512,1.5939050008990736,-3.732380709636009,-7.5118518037839435,-10.465930814299828,-16.933164467861662,-27.121146606861704,-35.10847026062003,-37.53334003559539,-39.030012607529656,-45.65489512863897,-53.51704905247274,-47.41548912374424,-21.340735846523696,9.579159968139788,30.357996256328246,38.20619655206168,37.72271392087746,35.81824470636166,35.17183247575664,33.034722139154304,27.575043751646255,22.05441809059168,19.65390853390557,19.069091622730337,16.956923713082944,11.931972279049592,5.561072144321378,0.2372719495394159,-3.531546124079044,67.0,127.0,70.0
-23.006592805487927,-24.13354677979213,-26.7256470900006,-34.07755027672803,-43.36699070236836,-42.61693947240361,-24.658020654328748,3.422597944634946,28.901358588710035,41.89524327341403,41.064887292555845,35.57469990891758,31.027116732112646,25.540187919418578,20.799092829061998,19.87311680058814,19.833680903960325,16.80237938106179,13.561915622479766,13.854354990152089,13.97335589226961,7.439286130924036,-2.6291764525497783,-7.894440824736522,-8.390810457508017,-10.282556124490823,-16.8706243017973,-26.163190575593784,-34.87547606626195,-39.73876978215026,-40.28146815635076,-42.6975421082068,-46.86611105079256,-36.71573903065218,-6.311522367645719,24.264955013412564,38.04231540079229,38.171243970165484,34.34300769569235,30.580721983119005,26.270533914807174,20.374082174343627,14.639555162100134,11.957259321059867,12.688677647603413,14.115024942151274,12.826714485699537,9.840851318073428,8.309746648764317,6.467600357686825,0.1576055374609442,-8.593264325217739,-13.773741886582442,-15.526615544161265,-18.9945933348173,-25.680937273036207,-31.944244794421458,-33.3629449849014,-32.492212620831,-36.39314018279987,-43.65083490454558,-40.85465325869047,-19.332337713947094,9.814589775394378,30.053120175405354,37.60222615433101,37.5327381938127,33.78140240651585,27.854807073051237,21.93330203186187,18.285542267305424,18.05635932359859,18.993455989343033,16.349387333994738,10.376934752976478,6.790215801550289,7.418353114059623,7.300050237721646,4.110889489232616,0.283285046698746,-3.799534682075071,-9.683406821416865,-15.791655675478053,-19.22825731086371,-20.62326322176209,-20.852780288764542,-21.616255754077773,-28.135700020418167,-38.55472959872776,-37.99428651350924,-16.68712256722226,11.824574112379256,29.23603562100123,32.496797450528724,27.94166303256289,22.69176375395801,19.813787469547908,17.521336911734856,13.965816913512862,9.318083123817564,6.361507024816699,6.94858444156268,6.764399563367997,2.244424353836212,-2.0572741919084616,-2.4322841430786895,-2.22187324730659,-3.9670224902718236,-7.346392082280768,-13.339793155907,-20.989390236266566,-26.026260558383868,-28.479783481815204,-32.7537562314513,-39.74674284736778,-44.142330325722874,-35.36289908449035,-9.610793271758443,19.930658016549962,38.003778321671625,42.717363947960685,39.717855818078455,34.15529003282884,27.960092633900285,21.204756588916833,15.6259213040962,12.856243441987306,11.034716575217413,9.400260740846702,9.908307218188739,10.081874498740918,5.002135019578716,-2.236113186208717,-5.523232073259316,-6.441513774302749,-10.039761034766206,-15.903889740874225,-20.47763041122398,-24.173505613386666,-29.08960236912703,-36.406369057804916,-44.84317576294422,-46.95232184089252,-32.87025260219888,-5.645227172485047,19.589773608113447,32.86687567154208,34.81143354395764,32.51024972937138,31.562515864639376,30.44844827405637,25.43498593737484,18.247328723239484,14.060289013728855,13.81434429346553,15.334202054377988,15.122151513045928,10.992589570063869,5.485806679649585,-0.0016379464156669403,-5.0423160371473825,-8.283770284091704,-11.811283538479595,-19.6926834432858,-29.94315892220852,-36.31189550757253,-37.721647713920355,-40.313084383891706,-48.35223040241009,-53.875160880867874,-41.56137693735317,-12.018423241948874,16.949080499220912,33.8484528897801,38.60697707805593,37.07108165748935,35.55702718862647,34.87644270852015,31.735152917021107,25.778289368933166,21.012459007888115,19.44897385699914,18.736641832864734,15.783540541917414,10.108380370552444,3.849649090165108,-0.9885163025568491,-4.419818087050087,-7.483313614666899,-12.183818391695205,-18.513282040015866,-23.40310828369486,-26.3100308783293,-29.948986461835165,-34.83064671645127,-40.742200587523236,-43.869111006699114,-35.36482955808877,-14.043478378157186,9.89959250802313,28.29239628878594,36.93639842022555,34.74344231453401,29.052223599581176,26.11352982258999,22.785434719301158,15.705548443050942,9.515250760576278,9.251726938294313,13.039320492544043,15.54201339865214,12.23305373528289,5.265652820132067,0.5562131533037649,-2.247622807323425,-6.672166400275146,-12.132335517212267,-17.553032585011433,-22.37617040820214,-25.148840159908527,-27.45298685967965,-33.19279272751669,-40.40535946206929,-40.34998063077912,-25.80433886600633,-0.2415255563389087,23.21597549883294,34.22673732728985,33.69418475678646,30.959785520268635,29.869609889354997,26.036805820511855,17.894913507126773,10.540169345085983,9.328803934388967,13.125691167162431,14.525831088630033,9.790417540859947,3.0423785090358826,-3.1581975533662847,-7.864573260089074,-10.711843970304887,-13.279208473041239,-16.819790765523067,-20.7463979289141,-25.095767372832974,-31.241653300467767,-38.302241434735365,-44.872308738111606,-48.42415797680216,67.0,127.0,70.0
-10.831506145070936,17.026605838099513,33.37756213686159,38.11358597809219,36.75236876708508,32.21393419913495,26.033974379907622,20.562092956475446,17.877185300148085,18.426452799447073,18.737495136572047,14.756030510056647,8.851461630644053,6.689744782544233,7.697228534590102,6.617219968417272,2.9742953652943718,-0.7921623940610525,-5.296637191443086,-11.592003055354459,-17.098551485354665,-19.761950606687375,-20.812368425370472,-20.80925344501574,-22.731964744329517,-31.210461885199294,-40.30951267604109,-33.79857860143249,-8.183176715552245,18.435526144017263,31.42660844207894,31.639886168434497,26.246552717265512,21.637753202382292,19.209697291757752,16.65644784671275,12.66338550253572,8.122760399145925,6.239848814476831,7.266026327546573,5.83380025540439,0.6803515017297405,-2.520925218962377,-2.2217564749025738,-2.538647247843225,-4.7577020446953835,-8.764996444474102,-15.549260370646222,-22.863121359092858,-26.810044060302566,-29.38095511013411,-34.59941966042713,-41.699789981265006,-43.412918848553794,-29.38072154671764,-0.6061668320841485,26.67410612978748,40.53483416511201,42.368308456643256,38.22174441916862,32.42570727496407,26.03779496667612,19.349016556421383,14.558137725152335,12.35514612376197,10.451369324238325,9.304465748092934,10.2607916906608,9.218906818132368,2.783035449074502,-3.6897471923433973,-5.779014940964773,-7.079178308459418,-11.687363434327642,-17.427686657099148,-21.53110429409037,-25.39972943280427,-30.933308319632236,-38.917927660852484,-46.604772222005934,-44.776853821321744,-25.759131710780217,2.500719178475222,24.80462533521278,34.350268796473266,34.22379057475831,32.03183628942096,31.464129140252115,29.462378691212646,23.339917978133244,16.57586233994053,13.663662549136385,14.191874301302692,15.634430181192583,14.28146903397995,9.407740598002714,3.9114866582800807,-1.5740888599410092,-6.174226722346101,-9.055877317231392,-13.57248699892149,-22.684444325689515,-32.40021483392935,-37.04409091055698,-38.018559599065334,-42.142056414067774,-50.912264095944806,-52.617650557384145,-34.12589389765096,-2.8155116806527944,23.233573610031932,36.289237480560786,38.47580215668244,36.46566077987834,35.39720341704028,34.35163415027065,30.162371400661907,24.099384598120498,20.272047986208644,19.31890053331794,18.19689193103192,14.363664307411897,8.236876663708028,2.274959339136841,-2.094767003470078,-5.264910774952058,-8.596434738225058,-13.954777007521846,-20.200880019404224,-24.332579264414242,-27.207402860379137,-31.249999851531026,-36.46274529474321,-42.30010551761589,-42.930170872796694,-30.194951241364887,-6.889847631026318,15.975875114890028,31.970236195239615,37.23716541872902,33.021062070197885,27.906396866727377,25.461558949045028,21.062770283790293,13.496328714685761,8.789606241929583,10.139433695204403,14.156588293503216,15.252119413287609,10.30631780166146,3.522765890572677,-0.2523906648254161,-3.306059042613599,-8.231710353740954,-13.702908686891213,-19.075800907189112,-23.41534884858619,-25.668370561587658,-28.675217244615375,-35.43377954060058,-41.575607274305035,-37.74002274083903,-19.062088703665392,7.370452836274598,27.87808486079525,34.90994447193619,32.73374865422916,30.607086320930563,29.246154223234715,24.003126394777055,15.376686575144154,9.45750203293485,10.164996603390636,14.130648766342773,13.678095013068063,7.851350335354049,1.1634966563603286,-4.724413876437744,-8.834986538918743,-11.394698800448609,-14.200789507459985,-17.95648796863011,-21.893914549606986,-26.668333697515482,-33.276340435959796,-40.283704171569866,-46.47116411616085,-47.77535278139441,-35.31807457821139,-8.70522887680529,18.794346836371105,35.7840676388136,41.58883900406215,41.82135970177992,40.11528717546983,35.146677399093946,29.037283188999314,24.878379346993974,20.392355302487104,16.257509211241146,16.21231785076525,16.77711843252334,11.667482802113593,3.6828883317060717,-0.113625797800781,-1.8297180651845404,-6.813854711205867,-14.68066204411158,-22.85321092270106,-29.505273865663096,-33.62098474755441,-36.65027844724508,-42.274513992384136,-50.633963694810625,-51.90393553048164,-35.17868980794248,-6.088394688347895,19.68059953123985,34.32247624064958,38.96927031642502,38.291837128413654,36.555530479410386,32.11283753429326,22.769510554208445,15.611556629428375,17.09841951714928,20.397721033746556,18.95877479848341,15.549925588339516,11.325802681918486,5.7512061104097825,0.02112448009143162,-5.865682689581319,-10.954492700377838,-13.377380202486394,-14.160933010325767,-19.166287440798577,-29.458716131278088,-36.29274377857923,-36.28278898665708,-37.07570892897608,-44.44595890000363,-50.93366866640909,-43.52427792771077,-20.409921331668425,7.585822379175349,29.279416806976755,38.98826670450265,37.81872249319539,32.990226145073194,67.0,127.0,70.0
17.663449765276066,13.737048533674624,11.849870796403371,9.919785539564158,9.43364221365547,10.449110238932285,7.822333646443236,0.5739122627710546,-4.710122433665565,-5.966801077367355,-8.048623850406791,-13.430636292883397,-18.77680483566265,-22.56795445929681,-26.76951339698299,-33.00307387351482,-41.454484226119355,-47.576754105531386,-41.034927252755075,-17.825686989362705,10.07818536702251,28.889120652091254,34.99177257124688,33.49475556574558,31.743056259227533,31.24228388921103,28.0807071621603,21.182392600103604,15.271964882994942,13.558653546514273,14.66136831681834,15.678843254940931,13.110787598978371,7.803082223296779,2.3283985567668752,-3.077242107723835,-7.1250815590164995,-9.963328111704772,-15.776644720357101,-25.740970519414837,-34.376156325806434,-37.42793659435833,-38.61233421100226,-44.46248164956496,-52.91161782012334,-49.499903336496246,-25.54220554549389,5.8518663315136745,28.374009831281793,37.79090698682151,38.00402597557743,35.98706435369758,35.25742436280331,33.52611545328885,28.410446073643268,22.636663787831672,19.798994906247792,19.169388612573144,17.40912178022173,12.736621060896315,6.388294715449864,0.8471965342339264,-3.0984655411685247,-6.1133043507521805,-9.90384269487313,-15.81876998270484,-21.676720035240905,-25.143234449873347,-28.230935140396397,-32.637270042100155,-38.19063915750091,-43.453720667628964,-40.786184014615074,-24.074189911427307,0.17017248099739873,21.476387077852163,34.7207921680561,36.67744614318689,31.26892016420556,27.05275921590551,24.61577117223746,19.0112402087096,11.554180786907992,8.621257036148473,11.25887752506166,15.020293944593808,14.395813420658634,8.218948900505282,2.0977473699588547,-1.0047479586442796,-4.5587263276987295,-9.820143171796941,-15.271309490275844,-20.518518277993543,-24.24604708445092,-26.244417382820384,-30.270494203099172,-37.66054760334979,-41.883491807788246,-33.80150208239688,-11.622469639326933,14.440327407804604,31.329846126940097,34.779613528961875,31.856483436165,30.356650969346948,28.256171592882946,21.641403937645762,13.103409755409483,8.979385959008656,11.314152627971705,14.707193914837774,12.33719582528592,5.877507467417282,-0.6538603949853615,-6.131981177757397,-9.662722614004682,-12.106666057900464,-15.216053023176794,-19.094994866223086,-23.10420008187662,-28.420831879163348,-35.333349859927644,-42.212250870635394,-47.71525804434799,-45.91542182922916,-28.66297329617631,-0.16087374407120972,25.003213837811668,38.419703850133814,41.94954035200415,41.548742861524985,39.04519640918214,33.276056315647295,27.661539374786052,23.73442760202021,18.949311905842592,15.798592579150412,16.66179388172919,15.985827654967995,9.275115061244533,2.033250567469005,-0.5105949222401464,-2.8482404193241053,-8.907442163624303,-17.10927395838446,-24.993832200520323,-30.960124038970076,-34.45422967147524,-37.865913842192384,-44.63560490214327,-52.37664880636091,-49.05822606223151,-27.34656054442802,2.2717162126053716,25.11355185575791,36.52699428648442,39.07030933378817,37.83852796486138,35.75840166957313,29.792259070280256,19.993406622565313,15.222391435904848,18.353748072560304,20.45064708261494,18.013231434385826,14.481140816041842,9.801278356985948,4.0888011803262385,-1.6605831266451634,-7.512791578018644,-11.974227944592371,-13.58164636845089,-14.89988652059808,-21.884635228733337,-32.18646376782461,-36.79446987934442,-35.991378940499324,-38.58817928269776,-47.04136381922863,-50.61463926136962,-38.12634216698033,-12.23732997187038,14.860400603073776,33.41156790061777,39.52643534688118,36.42980193586898,31.907974638334487,29.76678370008807,28.10642057831503,24.90838515380367,20.612398702156124,17.33390240720491,16.035651352016654,14.689030878442363,12.53254328343212,9.340643739416418,3.826903436718431,0.26555964214711364,2.2835625820012724,1.9132085718512497,-6.569461081895332,-17.29612847050504,-23.478088327236748,-24.763970612121927,-26.53218729352307,-33.45368654258349,-41.399532192335855,-37.906140309133676,-17.02183396832708,10.000533370809402,27.714504726763376,32.06588330663689,28.706015617271564,24.95879210043074,22.56643928989887,17.97057255408924,11.80625316131063,8.532998457829207,8.629124351981707,9.86625036302683,9.538842638326779,5.112788784540841,-1.172917058873631,-5.26288315150766,-6.9566034997911945,-8.65767028345649,-12.259853912147666,-17.950346869754426,-24.581580135184648,-30.91784918158516,-35.84526445808443,-40.96512207679068,-47.53874172091104,-46.336896198411864,-25.998257753147694,4.390402743187042,25.394491989270513,32.94388107492169,34.80033118081028,34.54661899937413,31.26647492783232,26.336204740256896,21.500571975460865,17.451390211278635,16.396575913210263,19.248030237817947,21.409330311728628,17.628043799745388,10.103761893573735,67.0,127.0,70.0
-4.017855637423,-7.024530279455458,-11.41951631703028,-17.682136003590646,-22.9115320013134,-25.930480869235357,-29.38108469789089,-34.1150205136089,-39.95202460981126,-43.941370717310406,-37.364324882087494,-17.298127636360974,6.9271728089604006,26.31378141382592,36.47117885063347,35.458444202397395,29.68761805302972,26.39287510954564,23.450454281993814,16.760990160638197,10.039103630144618,8.95459403908833,12.480076927838821,15.490180687643072,13.016430321912841,6.159307119547366,0.9838838599854668,-1.8225116077004992,-5.977208070799961,-11.405443923274293,-16.83667673413592,-21.829557963893862,-24.89379104361859,-27.006751974941523,-32.208870400750726,-39.64308247747673,-41.11417820020461,-28.592324167886456,-3.84076713636961,20.680926394864343,33.57450494900028,34.10732091427751,31.18814608967187,30.062342497493514,26.83815423254366,19.08907878548981,11.232589378385523,9.093848546933314,12.572329747672498,14.722307557585815,10.6458427145915,3.926679292887742,-2.3916933096872057,-7.359958091042342,-10.393318355036943,-12.888044696709319,-16.30294331158273,-20.225438140116648,-24.43127608944721,-30.325626501412643,-37.373622478034314,-44.0621757595259,-48.382603412353,-42.66586355231359,-20.98490062247356,8.046927662653525,30.15852163132196,40.2011191879863,42.016828561279716,41.13251690805987,37.65040426920241,31.436803224351358,26.471912977639484,22.46316205643394,17.64127071465955,15.746974852500182,16.9762311114752,14.603026901442371,6.83947530082852,0.8666283471470708,-0.906366179410116,-4.22187095211817,-11.180665748078296,-19.503634644996808,-26.97244218796224,-32.18428181647195,-35.2705213483471,-39.39635251700422,-47.162870172191546,-53.1673272363514,-44.52858963922002,-18.83105198767768,9.9818110769738,29.54854409820631,37.975474620788454,38.86638579205463,37.36979708913767,34.61550621757534,27.06813013464677,17.684067311110287,15.602263826974596,19.462750048114643,20.065872122365448,17.023537628229743,13.304751030231234,8.18296705817089,2.4382161666540383,-3.3686901535102756,-9.043891797120306,-12.730418232385215,-13.720249075584544,-16.181883958424965,-24.941770287193286,-34.356364951701885,-36.77787311606384,-36.03072537601412,-40.69612740726242,-49.23409490182565,-48.8451362918626,-31.540738292133742,-3.9939402745326817,21.387515152471455,36.45615671087271,39.25748157133018,34.956375955762894,31.068650161973448,29.3652729103426,27.368173348336445,23.704185581441134,19.45818758123018,16.810337695460014,15.746525723613066,14.117274672345959,11.799173940799534,7.944827979463524,2.2642162555032335,0.43344367698755737,2.905959551616514,0.19930390892007283,-9.82891572625554,-19.700608193644666,-24.191425585795553,-24.9248167973643,-27.969762345700556,-36.112869390558025,-42.12544303004459,-33.45900254222189,-9.05291607061916,16.52182689291874,30.20001235557599,31.533909687733154,27.42574870421624,24.26211600514751,21.580699910534022,16.146613542954963,10.434570439100145,8.308312304496233,8.968774122490613,10.082387766141474,8.697426588056423,3.2694571565442483,-2.6753339913106102,-5.907498587399533,-7.339338723392386,-9.455014048583838,-13.732771009554584,-19.82042938170713,-26.507146965395894,-32.49236829420508,-37.14787351253698,-42.87316004766544,-48.67410875260731,-42.513826546675766,-17.302054841505,11.996922496209102,28.67028473533832,33.75021369798178,34.97497297896415,33.912678317910064,29.896879441826847,24.905394313486223,20.187132780022722,16.719307049744483,16.9130145864159,20.258748729354362,20.98697743611419,15.58119604289551,8.031321583399036,2.7350765150355434,0.10659668465177208,-2.6723288868324953,-8.949256535178632,-17.268071989163044,-22.40030297422662,-24.425743877336885,-28.16784628756492,-35.89902439304021,-45.905599574597844,-49.1275505836377,-34.389764619761706,-6.540948981965056,17.29850237871965,30.175149683266522,35.44737734636649,35.80882710258207,34.1205808954517,31.3083064527977,24.77065343513768,16.623036377520954,12.895861460008462,13.191436208001058,11.715815354907361,7.722528091231946,5.946002180397734,5.982178699094284,3.16637779091921,-2.069587225459209,-6.802031924985585,-11.304493450132128,-17.666933389541942,-25.47731989585901,-31.198466024659904,-33.22124687850169,-36.960402824516706,-47.09510499553423,-55.57881631075855,-46.729180475100826,-18.0076281985524,13.961694206510469,33.413262022009235,38.0195674102864,35.42831394187901,33.9153079734662,33.21283229232676,26.893626777657506,14.812026425276041,5.349768243224808,6.1104567139304296,13.086488872269031,16.469285110266295,13.771127036500303,9.05091179466429,5.457798369925781,2.7198210538648233,-1.4388028812814373,-6.361018529199007,-10.670638319537865,-15.009769061899876,-18.744439470847905,-22.066702644567364,67.0,127.0,70.0
-48.2109937899612,-37.96156820684168,-12.65286079793882,15.59977921251042,34.246553996778495,41.28064381243304,41.910178004198215,40.50053742008833,35.981085690819825,29.746254982242284,25.37979136699757,21.063543934750815,16.609279463461224,16.019020603622167,16.95047749378502,12.689021632336916,4.597178706424591,0.12375502430424067,-1.4742053173410816,-5.92871008446598,-13.56342089108484,-21.820933247985558,-28.756307632710232,-33.20451671806991,-36.174789750779645,-41.28480350131273,-49.61576252665696,-52.65532338332991,-38.43912216958811,-10.08267893056103,16.839770058053084,33.0245652587425,38.77996802926222,38.4918859478942,36.843279215475675,33.01826123446789,24.12759690673094,16.07609640846348,16.548515581331646,20.20971457105853,19.357064092821464,16.020966034805934,11.984757294614477,6.520799039630673,0.7874172526633081,-5.083473161260749,-10.401249742142356,-13.226544729087404,-13.961396783566377,-18.084608469673302,-28.07134001675757,-35.84398585484193,-36.46005522738174,-36.6000169460668,-43.21879054028068,-50.64361530675804,-45.548429666110174,-24.064457558263182,4.029848736631714,27.01794692678254,38.4254580246011,38.373474692182896,33.56834952584618,30.440168541580334,28.928028611346384,26.473065590648602,22.442520582303896,18.453392657288113,16.44086514711483,15.384796020555905,13.498263736220895,10.944381468323904,6.333514330360718,1.061281586271521,1.0577480299751005,3.024491423627328,-2.2014003333979897,-13.048767763186714,-21.60868594144524,-24.556508784438083,-25.30028084996358,-29.906360223232436,-38.6445062537391,-41.539142501619864,-27.572663733051854,-1.0052017240380864,21.949684449971695,31.612291678694746,30.54737899726604,26.27997791239378,23.630790281834656,20.311454120434597,14.288325683005779,9.40700725038463,8.318159783061242,9.351979853914319,10.088021598672643,7.470185339411089,1.3898880645666651,-3.9179692711609055,-6.392643419584924,-7.78736789804913,-10.446623301661425,-15.361714406769071,-21.740286497396593,-28.374235552674982,-33.92620142482946,-38.555693468235106,-44.88562722374309,-48.78892051613842,-36.907190112768255,-8.259290833406373,18.39961876911128,30.93716099152246,34.29418479135288,34.97338239960616,33.002091714187955,28.458640117526386,23.500752988386985,18.96033938387601,16.31375561095862,17.73741697416581,21.036944018508713,19.986600825193097,13.360244390565764,6.1766635124148825,1.775901595864788,-0.5009360094016198,-4.058277208272954,-11.377833702223136,-19.236094006278158,-23.103567486377614,-25.151728439451798,-29.98343632127766,-38.78160481340838,-48.136649015315605,-46.92757814226132,-26.950460918033677,1.3803302942481044,22.065899382062426,32.31629062070098,35.95822085378277,35.3970263196422,33.52056047133955,29.871585623911486,22.288723792396407,14.933429120625808,12.803864291033175,13.15646613333335,10.624973340070085,6.832631982756493,5.992497314080807,5.575146463741098,1.744160427187965,-3.5498984989394002,-8.029651141239023,-12.893251839635969,-19.89651730470888,-27.516881078772553,-32.0595269908845,-33.76497538387101,-39.30301439348012,-50.414746345028284,-55.34729035858441,-39.98001385254953,-8.196854563050508,21.23339726870672,36.050231009331874,37.563469782647076,34.67899199410767,33.907489773016245,32.166902103437195,23.741891641354943,11.336894024226176,4.438589004427815,7.95503628249698,14.73901427722051,16.184680857731756,12.416766621024818,7.83986627418979,4.680827126844486,1.7204777515748546,-2.8952869170235553,-7.6480717928779685,-11.913406579217199,-16.20289433844431,-19.64725359140993,-23.359846538814292,-30.518795362380143,-40.78208368512794,-45.321559471191016,-32.6064545909115,-4.467552635615646,21.381411094591734,32.03831206581602,30.542656277593178,25.426586823277557,21.162260034295844,18.30076703243541,16.9124332854192,16.256339029493127,14.20846053814823,11.715849133143186,12.164317265435058,13.849008841492646,11.02781953202676,2.8239213422737133,-4.6992712006878445,-6.324098866037467,-6.203315593619281,-11.147935472238652,-18.617050112498333,-21.902383257403077,-22.740221904036986,-27.409660780182836,-36.57715061573006,-43.994373474862314,-39.112261369306054,-17.70349268025243,10.543371130284719,31.73380878732466,39.30983622858718,35.529624035580376,28.551112799383976,23.482452696189583,18.604718341464334,12.833046001162272,9.132845918345662,8.811913285160259,9.298261030723433,9.589453296696371,7.675196163566712,1.1331442297963465,-6.598901827418408,-10.391905174145528,-11.634625892489346,-14.581064908912143,-19.692333252390068,-25.10867178001812,-29.822264137283305,-36.689644553929874,-47.2430252727771,-54.42639966018242,-46.86612280048231,-22.351971994386588,6.0781775565417595,26.843223126827876,40.66995416988473,49.30183179348538,49.06156403194381,67.0,127.0,70.0
32.376472771167194,29.95949141684499,28.395807480509085,25.43124578795539,21.17868951586467,17.639958612506852,16.15796705557216,14.929168022027023,12.846571616998855,9.900609461941196,4.612025781475113,0.38044805867226167,1.9024023201053677,2.4434554019061325,-5.114415720075446,-16.03783971419663,-23.001974099376856,-24.71481186278775,-26.038747614229102,-32.265581155448636,-40.70744518472425,-39.42388262720618,-20.541432074805957,6.683052195113034,26.17557005069927,32.10215469039267,29.30902472962515,25.33035198613278,22.93958078248683,18.762588150355604,12.539364812854775,8.732837685114829,8.501506007849391,9.72037719530288,9.794866552723583,5.913813912668694,-0.4033016786651321,-4.895273193976814,-6.786521708277212,-8.349047285133192,-11.64190428809059,-17.111853669877117,-23.684746463629843,-30.144033546975514,-35.2521125071323,-40.15317410959456,-46.78606565280904,-47.493847455780525,-29.7292789025046,0.5503291227942336,23.485852187230016,32.44051116220749,34.671751556683745,34.74281923581989,31.856305644849037,27.003585653888784,22.1238545185895,17.87991810404156,16.281514813121568,18.755573659660268,21.410417404258023,18.469770705012827,11.113251615675376,4.581321733854301,1.0132123738766472,-1.2179138298240517,-5.804787139788971,-13.865873867176145,-20.811128328677352,-23.639701800219424,-26.141103150430524,-32.149124399965714,-41.77729256752296,-49.47937163754726,-43.00386556088962,-18.77270933678515,8.546288063890698,25.92117388488397,33.931973103237254,36.10043960488666,34.90467812543473,32.795129501258266,28.046085385352022,19.81862661131801,13.744690478236596,12.942499580811031,12.81837999382344,9.406292785091702,6.2509383403642635,6.085291042954739,4.8278196162218805,0.2038154089580571,-4.934209015642128,-9.28466756879322,-14.686692757410674,-22.196149116944806,-29.274377315885413,-32.62322627190809,-34.66498979121837,-42.21569163065241,-53.24779850111677,-53.278841052415835,-31.74323847086681,1.3536705868499155,27.18910148310563,37.52597604827007,36.755798095422506,34.18270983318386,33.84119641205046,30.493928809130907,20.206366848908,8.35140964885277,4.497543210848865,10.078305936517747,15.872995135234186,15.437648656017407,11.015443574403804,6.770593000271278,3.9300032216730205,0.5461562106424783,-4.347818604152585,-8.884824026256108,-13.176491743085656,-17.306987782014744,-20.554851624204858,-24.961638216500926,-33.38429321290299,-43.26420385399924,-43.72494817600008,-25.45394287372994,4.102986921067125,26.146087210689693,32.45624649487242,29.134302283567973,24.039774320556635,20.200442734190247,17.738444631242132,16.74311913893934,15.863479104419872,13.368732553458647,11.470876429206102,12.780725875939533,13.687500890748705,9.040767135325742,0.23002008962825243,-5.786906102694558,-6.08017143136491,-7.004594477164248,-13.404172712141202,-20.12531304328006,-22.08966141617551,-23.519255126657438,-29.752659171921003,-39.33476374532811,-44.27999649219056,-34.43847393117083,-9.567935211346873,17.856529991060768,35.38160767512253,39.079915557737465,33.4676173133146,26.8821205990395,22.184033289140665,16.952207619555782,11.392015217257148,8.782090217411703,8.962760490131847,9.42305755757024,9.430426082353758,6.238895200467346,-1.2680064403071507,-8.187260306521225,-10.789934443335845,-12.209269958654005,-15.902784385123393,-21.317894614292367,-26.495794471546724,-31.395057583865345,-39.50021626484573,-50.174181240971926,-54.16631521225735,-41.163438191222895,-13.807068509979088,13.027718135062297,31.350371686397324,43.81889467338157,50.27135412033499,47.30250516609675,39.01424941251254,32.76139373742374,29.300112724607665,25.449671235091404,20.986998570266323,18.06125589360762,16.856685999256747,14.206045540457202,7.947627697805144,1.2845573113140163,-3.2163201564325297,-8.45569762542581,-14.729662351447653,-20.218470903081176,-26.243261605299477,-32.954271037205146,-37.43461215234505,-41.132953338357,-48.500480193269645,-56.891479162526245,-53.269695503837475,-29.09025685318602,4.798967822254306,30.26299180466895,40.05070018222527,38.922466635324334,34.763767816408205,31.472945675067088,29.121055502116082,27.22868390619966,25.684520475379273,23.0142922049151,19.911462913801863,17.43646351218357,13.29218042144433,6.894918082500071,2.6374077845355783,3.5570149095375383,3.9504004175231615,-2.9901740762117983,-14.18435172756978,-21.440675890570823,-23.00137353973533,-24.63299763482814,-30.21881491706217,-36.73093304901081,-41.82253373156587,-48.44187118236756,-52.84792945282863,-43.09050930043747,-16.937966245181673,12.882665946006142,32.14356938150624,35.924614958661344,31.594455140083653,28.94936804268155,28.07158744643128,24.40229464472479,18.934658933470814,15.904481885368703,16.569652429959888,17.610063346886086,67.0,127.0,70.0
8.963455927146253,3.2571752200386914,0.37913362053809213,-2.1474200363173814,-7.8918894629075576,-16.248251830313908,-21.982336148840734,-24.155744554236012,-27.44928413860709,-34.647153637428964,-44.67716967844689,-49.58201244842571,-37.43998315683014,-10.36261284292665,14.76832212942289,28.9894904066114,35.07215108346802,35.950868845013034,34.375622368805395,31.847488544301736,25.866749542499324,17.552287925716552,13.059155312118197,13.134243299875704,12.137218567866107,8.218074466158528,5.98154341697795,6.0667949909033,3.7542898460083998,-1.3608162332098814,-6.227812812884803,-10.633791007459786,-16.684679598760738,-24.468504020768492,-30.67889100333584,-33.03189098549086,-36.09387529900832,-45.518242590447635,-55.142738688415136,-49.24309562484233,-22.479205331572196,10.209176037146559,31.763796708851796,38.04097321034232,35.83465300826269,33.95132098520644,33.509272230399084,28.170912001767487,16.50440390798744,6.094403158146731,5.434161717033164,12.189691887541619,16.417322644827813,14.350772264558472,9.650617958739206,5.843786440330083,3.1276081645406015,-0.7859402874333808,-5.7434045534124145,-10.105165221984489,-14.438335698728984,-18.310971002691,-21.551579774428635,-26.934364183289418,-36.437507526580994,-44.959184698321614,-40.43555156299495,-17.265073857401955,11.954109454075184,29.4900466378971,32.0683860041148,27.616254983200335,22.7776743547974,19.34686810769453,17.311662451336804,16.591257027452983,15.300633167406298,12.571144233540153,11.548135926264555,13.375732436861913,13.011311896177425,6.66205777631331,-2.102972937840823,-6.316620883614675,-5.901896218891552,-8.348974863577766,-15.685522869466002,-21.154769999673277,-22.228543617236625,-24.752976333670933,-32.414853632322696,-41.73319081997854,-43.25681146553962,-28.410566358035567,-1.2271484719445036,24.28085829996137,37.81941168523268,38.04003265593912,31.371172224038794,25.41305935814854,20.815396939617614,15.243612960150438,10.229432952895356,8.685549722974828,9.10883951629648,9.536923011674812,8.99483615872438,4.3891590193005126,-3.6109445832929037,-9.355366079020811,-11.092679078935076,-13.006810052453309,-17.374717113894476,-22.914394008810888,-27.82271452879106,-33.26737587201688,-42.59097921300856,-52.563231326017984,-52.39100430993164,-34.15926774463865,-5.370709369753614,19.17900457969912,35.404104057982,46.50116676617074,50.385443784449606,45.0730763311504,36.80984582753087,31.61940939014539,28.318236523740534,24.138901295808054,19.90103928493197,17.633995268855912,16.407776603156687,12.733628353067223,5.831491774014161,-0.16177700131913952,-4.529792722804493,-10.276697841814098,-16.393879200579814,-21.810213310770774,-28.23527011713893,-34.54985964148316,-38.36078525940114,-42.783767763692154,-51.25221302751267,-57.74328745459146,-48.29126772906604,-19.42262590998717,13.625050093934112,34.65452397777532,40.4721911131711,37.75786663714717,33.675229698608014,30.738100281393503,28.51537836198779,26.796840297231995,25.073884712157827,22.053507257173106,19.19389382449553,16.52367741832751,11.564214519155959,5.185568892601452,2.4544208368831026,4.141507628713504,2.774526607672249,-6.162445120824495,-16.957731053124274,-22.298540566728782,-23.170870443140462,-25.861493482192966,-32.23086859108953,-38.257438361633085,-43.49318847285957,-50.44135707204087,-51.920057738066156,-36.85150639488709,-7.973026770161566,19.986146529223088,34.70547935024113,34.975214779987084,30.434795310074826,28.75117426588632,27.389207708569494,22.81356247404598,17.66507956696168,15.784900870403762,17.059929728634526,17.32258954178117,14.28891969286475,11.130848336914054,9.557322895120146,7.967155205400267,4.759933638596459,0.1431937415181166,-3.945195549999171,-7.528194875442258,-12.679460989478905,-18.599780685057752,-22.709619478527067,-25.606563363185536,-30.56948753125688,-38.8285120166398,-44.838326428061926,-36.610458351266786,-11.778541543745426,14.925304545231004,30.351624208022095,33.3411661500181,29.582259528216383,25.43511181085867,23.18680850881423,19.346036044588235,12.616219152280058,10.385148909238486,14.875718530278482,18.00182337908429,16.289058626607,12.373998570089451,7.125586029031763,1.066058872010225,-3.6594053488837726,-6.1376639190714135,-8.280193495998667,-12.195181239531903,-17.763444313151293,-23.728660332792956,-28.927872537481512,-34.318603762971335,-41.93609423286359,-46.19675375643152,-35.467887728997304,-10.975408258481718,10.926297441313,22.57363779059802,26.916847934248462,24.940129970221257,20.204780379195242,18.12360250603777,18.248607210379152,18.24512714216569,17.74356301385956,16.393177847740745,14.684613271904578,12.925379139174101,10.970363815775384,9.170127707623692,5.178626943395739,-0.750440219589842,-6.114860829833623,-11.191411723085105,67.0,127.0,70.0
-22.73008008050258,-29.301319087255063,-39.467577030942266,-45.52575277864997,-35.44409385323377,-8.530163237413973,18.708260552390094,31.50744459554389,31.11338457864818,26.10189719312902,21.6438822643226,18.60355471053482,17.013692099035705,16.386861028889026,14.579919993407428,11.930117599849678,11.91843505168423,13.775532477225887,11.779296184174779,4.052099360519618,-4.003015163918471,-6.3932189047408965,-6.009048686379151,-10.178768211960126,-17.77177699211444,-21.746006076587708,-22.512898656861,-26.465580056791048,-35.256180398312296,-43.48586292852243,-40.769253538487106,-21.27571993446372,6.9356456088558724,29.647319641406877,39.09025552903736,36.412306065870986,29.39538692012902,24.07745524695827,19.331204909512113,13.566555717251008,9.400043708048369,8.7518778642294,9.240245413208767,9.598593289286203,8.189183525182646,2.2113236887155145,-5.732167578456548,-10.137269944528798,-11.433931672258822,-14.03461506536152,-18.947586815056585,-24.43801661846992,-29.16681327551635,-35.517670125512204,-45.792168349044616,-54.09485646288385,-48.984726665562825,-26.214307725150825,2.6157828478675325,24.57806574656091,39.088750527271266,48.58289732282427,49.65681265247112,42.60322522711206,34.922018392000545,30.643503154245927,27.231612194168378,22.813978394903256,19.00378075288473,17.314303041524756,15.737079733510434,10.943239738743053,3.8251865236063294,-1.4370187219790016,-6.002414155085191,-12.125443071016095,-17.9710283904873,-23.512733744320386,-30.23538821214629,-35.88390653815983,-39.33370280870639,-44.84056889841752,-53.911340872931824,-57.1885953812116,-41.538494678298335,-9.409897247780354,21.34791202998071,37.70860513837593,40.18188931681851,36.51769994500745,32.70069054985735,30.057629064845347,27.951557841892182,26.37998581357927,24.323029259053015,21.12106775157796,18.51549280976358,15.394374962643182,9.67897489490562,3.8120734135783336,2.711882647590735,4.446936475594903,0.8835614695860915,-9.501080900601037,-19.207814566916507,-22.743409523237585,-23.52831222888589,-27.449142710615433,-34.17962805394592,-39.68102994719735,-45.39281779536247,-52.02383329117397,-49.49772795756228,-29.37102588032899,0.8900138721956024,25.90936812190595,35.97617052577102,33.640614411257985,29.60091281452638,28.581402638806736,26.38488038729787,21.171991848044694,16.697399787472445,15.960584199175054,17.454786331081102,16.7080850426858,13.224521365214672,10.553898537853568,9.189854430597602,7.244470656487567,3.496808354885178,-1.165407170470314,-4.9336320533604905,-8.812783892814164,-14.435630604195849,-20.038434008111757,-23.533945142357744,-26.699125310863526,-32.688613620108065,-41.28171093149454,-44.3957919172448,-30.710383954067122,-3.459658319723806,20.79901863867519,32.30935487518945,32.63442238158203,28.21243707802444,24.65247681947842,22.46189847026131,17.4872019604308,11.145733678174517,11.266010427558134,16.27067374972152,17.910835263483087,15.290630888660822,11.00543167620258,5.379485292813773,-0.5295800379707688,-4.56744098363644,-6.666720256383707,-9.190992296041768,-13.68608846452658,-19.504409761679533,-25.33539420555325,-30.335053692551426,-36.32050038917848,-44.03875630033396,-44.99634185736308,-29.192752448167475,-3.6986636859720012,15.257272206458545,24.481674685208414,26.9566221198802,23.558479338321366,19.227711904419635,18.071705441248522,18.29927820817349,18.160290607748063,17.447924894742123,15.890131426475392,14.210563279661265,12.342325747835382,10.49088370246453,8.347205028927887,3.5186134326240492,-2.387821453418661,-7.578949940827765,-12.634810767005398,-17.33135095631148,-21.958748820454772,-26.81994338868605,-32.636757642398955,-41.130541965965385,-47.9244915379137,-42.43670961728617,-20.565316299617546,8.818038661369798,31.604381675631494,40.217022334869654,38.23667243476373,34.106551803225706,29.1977791862094,20.98852710314345,14.115256615350084,14.185309909967401,18.372051905592862,19.761566651472396,16.10381360490917,10.210981941658297,4.918720248541586,1.9677747016455973,-0.19555747813304564,-4.731817243548407,-10.152510160780404,-13.483824783174612,-17.116201921139613,-23.2814926137399,-29.667945008865377,-34.58756202338732,-39.79252456588189,-47.61597217848516,-52.01932677338268,-40.36060928006153,-11.233201563559824,18.369431637378245,33.572561613625396,36.54165660046421,35.939294324166525,33.5175363993008,28.325390309029796,22.511192322009222,16.883930494981524,11.754009661485975,10.900312186746149,16.017629367776227,20.317407169384147,16.534232265107917,9.0163240178855,5.4422060658381515,3.9002989221161535,-1.1233934096917129,-8.873394552240825,-14.390519092816593,-16.67068545377295,-19.41739913388824,-24.711553861685836,-30.494527833816935,-35.33694941343326,-42.57782644045529,-49.812814536619996,67.0,127.0,70.0
48.18516879224833,40.11513818898253,33.37162840614663,29.72794553436455,26.033710342212505,21.539367952669615,18.313198986080586,17.01509145501458,14.767481312059706,8.921888184439478,2.029338326421963,-2.647863217300785,-7.647664649385336,-13.928129531280094,-19.50680331025101,-25.35238345283421,-32.137880961245145,-36.98409161781028,-40.497103877391005,-47.27771665055561,-56.12803231655846,-54.932635815063776,-33.287732880347505,0.44017537638934834,27.769012490966784,39.556165455782796,39.39605867278318,35.30016223157786,31.83771841049692,29.410536220592718,27.443271627773573,25.9240396046452,23.447136697345744,20.27036067374464,17.8009718313913,14.013875779109714,7.754613823165844,2.891423543709116,3.2619635548021146,4.253491716695003,-1.6477690405860128,-12.766216347318796,-20.870128808560928,-22.941820671367385,-24.198088825647854,-29.306780714163878,-35.96982075146417,-41.11946767741816,-47.4682049065386,-52.833001825177455,-45.47650566803905,-20.993176686752165,9.272958801574582,30.497710785179482,36.14591797796322,32.21458233328344,29.09387922069559,28.285667009632554,25.08307891455192,19.602334651148784,16.07325726178672,16.349155974427582,17.629629084921625,15.828893966166227,12.26024504431409,10.10080686121829,8.768261521191327,6.355968516908695,2.146953925700819,-2.3737506825680192,-5.924275499267524,-10.273578209517986,-16.194230033681944,-21.266900463439367,-24.322649188831747,-28.04727817568349,-35.08135746692947,-43.319089306382736,-42.43548157880216,-23.568101829697547,4.541645961377013,25.528539010186154,33.305170162462545,31.537055912833264,26.948578726292805,24.028382707984573,21.460183187689434,15.44745710048894,10.302388609191532,12.609999438777328,17.31128800064027,17.444148443737113,14.17850348311927,9.515492443641127,3.5987678445606823,-1.9526583489647429,-5.2932143540689385,-7.239356289152345,-10.28394533001597,-15.288898152800055,-21.247987893079852,-26.84902994985278,-31.823094963141152,-38.5431188789892,-45.604089631021544,-42.25634063380475,-22.02766288534693,2.904096174881974,18.741191212075513,25.86221944930912,26.460010759584353,22.104957606712656,18.569131413913478,18.126437444514668,18.306243929663705,18.034466658552663,17.068167612681147,15.388341561879443,13.716847845532152,11.757720068018,10.018767625457308,7.254356676143147,1.773298382825174,-3.9423059591247167,-9.046829154741483,-14.039034156002433,-18.64413010208337,-23.344406936176718,-28.309073462710955,-34.820762358999296,-43.7092606353736,-48.01619572931167,-37.63606717947974,-12.208979193703856,16.61635671528242,35.593122530055254,40.340739283769295,37.002658285709174,32.93685979295123,27.121758543430825,18.507409637896803,13.375728817212325,15.288001861928336,19.297492272093656,19.14588087393549,14.481667977737137,8.517670214134995,3.8068996351364977,1.4329692072406233,-1.21087497143421,-6.400403310578878,-11.327664369341722,-14.313527375503574,-18.6805694226733,-25.239952502426476,-31.22830705502339,-35.90384552520289,-41.82439485558192,-49.79140112403003,-50.748580022941034,-33.24452433997149,-1.7913910571470075,24.450817397294337,35.264918167426366,36.490144666541795,35.518788367072744,32.244262437032305,26.61111130682715,20.896463862938504,15.24776222345031,10.86081615020029,11.90775327317267,17.79800311008536,20.11183651007625,14.297128714109656,7.464655729829917,5.079139007877216,2.9272203439776145,-3.2961041002772267,-10.871277562378992,-15.255478116969151,-17.24671098112004,-20.707985355265915,-26.48226278013641,-31.90143128975147,-37.040735384036694,-45.14454046289861,-49.97706945346583,-37.14265225523097,-5.988357397949753,25.372878759944268,39.89733234459808,36.23825223616606,27.538526895105072,23.090121551037008,19.682257187896848,14.068179471512943,9.091189488931349,6.929325992126379,8.460554099957838,13.525978789319272,18.087229946575977,17.141827468569392,11.584573488076426,7.336304632818517,4.960747714243776,1.5484464296953828,-1.4925302846101534,-5.413046652139948,-13.421334509059696,-20.746265373461384,-22.84570134640799,-25.35860601862458,-34.39975841592061,-43.73572806120691,-38.678338186709176,-14.612863951733637,13.024745449109812,27.367807028350864,27.404997790164728,22.130595476725297,18.496576443350715,17.291310006714838,15.022294812114318,9.214620154210747,3.59723152017778,4.0648270220753515,9.243153905249297,12.097361561153743,10.168300487470159,5.452864729976137,-0.4144993899161984,-6.11325584945352,-10.416547011713762,-14.306367836158834,-18.511890891682356,-21.756632369795042,-24.714523558041616,-31.037638099734405,-41.74857012586763,-48.82858276098591,-41.178475179365805,-18.585431043110944,9.030858239897137,32.40891998680781,43.8325597441429,41.687560856455924,34.235174168309875,30.725140383678752,30.477653965389717,67.0,127.0,70.0
17.497376975167498,14.789337496102114,11.448839931795954,9.72199653271367,8.249363275146363,5.299368538609503,0.769934464681397,-3.471133440863925,-6.991882185491645,-11.89237384423959,-17.873271542376845,-22.29294343465729,-25.17048961892966,-29.699050830768847,-37.64017425278897,-44.600132403975785,-38.82609202573493,-15.599474303851352,11.858954882265866,29.09116904649986,33.4864384389665,30.22012638116897,25.864425529675998,23.46383319367071,20.098522169188982,13.450512022371106,10.19145590327172,14.163048608921146,17.894142412616333,16.700156195150626,12.9670396061912,7.90444359876624,1.8462771571453134,-3.170587714044773,-5.888616911111521,-7.918095844241017,-11.554645171629478,-16.970368660602013,-22.959787973728982,-28.28250943894689,-33.47925981733384,-40.87630039316125,-46.27924967880911,-37.94722236334857,-14.460223519279465,8.615670298494084,21.5072713952376,26.71072022454918,25.50225343751957,20.75390350245723,18.20741920592907,18.212930858130935,18.272603938328224,17.851937318519507,16.617539327031686,14.90325670837968,13.184710198879873,11.206824656558007,9.473346396555733,5.8879014247536245,0.03259281694041542,-5.436868622064625,-10.517005706190428,-15.399592468042973,-19.97236623415987,-24.74261575712038,-29.919356221518736,-37.268370447287694,-45.93427194624583,-46.8086514654061,-31.48868639786917,-3.560342873785507,23.527511105308243,38.317475788206494,39.776595607684904,35.78659114800281,31.619300804400407,24.741510510572905,16.34320754070263,13.291574936711353,16.574222976250844,19.826726846668343,18.12877879136996,12.762435163476306,6.931554635123037,2.9233811297469026,0.8753196201333282,-2.4857305205001783,-8.037664795632445,-12.291772125707565,-15.285310817370483,-20.458741012141274,-27.129657168596303,-32.65622582226825,-37.32607424133956,-44.10859306922843,-51.410698941634934,-47.81445791825177,-24.841253807896468,7.134178628525204,29.121615547733292,36.151390429001296,36.32598128024592,34.89558448432421,30.749913884667645,24.916341724460153,19.279079576999447,13.684383316651035,10.45751860430436,13.385885069268966,19.254078178999524,19.124265375970584,11.995148628976397,6.366037248282286,4.7320144642875315,1.5551126387756609,-5.594804701939645,-12.55733381673445,-15.897999489105642,-17.970087763500548,-22.222123385621664,-28.202197824468215,-33.24479663774879,-39.06792031745351,-47.51667830235552,-48.55976812051744,-29.441997899539334,4.004286330277273,31.719083034795126,40.28970145706191,33.57671044898191,25.784055622604622,22.275808663611365,18.22749296519185,12.410116836605514,8.144292379967414,6.947039798828848,9.660563813240307,15.15894459894548,18.498936749465173,15.763157970884121,10.02382137869503,6.633362299959076,4.087742730651797,0.5517269633808671,-2.3161146061079414,-7.349396819382819,-15.9645556725008,-21.8229310165065,-23.114727290419886,-27.29749886411656,-37.680868677075615,-44.332026187456115,-33.316410283528114,-6.030817274005232,18.899160443267302,28.520607017450512,26.006889466935807,20.76609484635894,18.0018502722176,16.93702349274066,13.673286535666493,7.262734668481816,2.976516020672789,5.374026675145211,10.560686892514903,11.968344989976476,8.996216094537552,3.8296942344980667,-2.1562171346328878,-7.5014627364567685,-11.502580365751598,-15.532424337955122,-19.58871727539419,-22.514283857102384,-26.024314934888217,-33.84758894744126,-44.73074373061095,-48.43058698458122,-35.82680054259186,-10.658911321706874,16.584853589775708,37.20330404828704,44.39651406243984,39.56822186298075,32.61286465980888,30.631493439843837,29.899803598881938,24.202130593982087,16.77529786742962,13.246874944994511,13.056927762966824,13.153468458830734,10.935334577630796,5.359435317380437,-1.0319627615653164,-5.516543179590419,-8.824441096248787,-13.500885686637679,-20.325669146841538,-27.9050104247715,-34.45953011969868,-41.127753200282186,-49.6333738255822,-54.621446193370915,-43.889585117441136,-15.30456890444982,16.46336764545323,37.18362299653056,43.39227105871916,40.87394421117161,36.81555152998294,33.459218222242896,30.022033966537464,25.10603647995086,18.524143369225847,13.055455233978885,11.240994809091362,11.128536126587836,9.209885200248465,3.6319777970839544,-5.20876703514075,-13.63981372804471,-20.54123076214068,-27.043058038522897,-31.523283766695172,-34.392875866780315,-42.08269009776397,-54.08998285892659,-53.54065010719505,-29.45593987178573,3.900105429276285,26.583201693975834,34.47629516746113,34.37551206906373,32.23743962518454,29.402488486377717,24.16971860429939,16.685534482778206,12.109219803382514,12.570452040982781,12.98146009497405,10.535890665273282,7.361579418110716,3.486525955315575,-4.388152576836154,-14.233070433114822,-19.788780454613143,-22.476778955642228,-28.566459765729064,67.0,127.0,70.0
-11.973430654459731,-16.726054527572217,-21.326149648180337,-26.156721280049396,-31.722573668925452,-39.89881556943077,-47.504192299773315,-44.159362492094274,-24.215965600403727,5.001107768878649,29.336660136155764,39.86119206745723,38.77787241357351,34.62982283168936,30.038003796141687,22.18029855216775,14.678422403342552,13.792362752112727,17.84408420170165,19.89231571792223,16.79723486890821,11.012339676752706,5.507494033237997,2.2364808435890144,0.18887918570010223,-3.9859867611329336,-9.532801359718942,-13.118697734948409,-16.479596297046527,-22.375812128222563,-28.899620931298173,-33.9886544184169,-38.952810065111805,-46.51950471789652,-52.107994205607824,-43.11236396679927,-15.614584515122317,15.104728772204911,32.447498307332154,36.49822218755125,36.083826177488746,34.01594348218739,29.10880510714524,23.261818078048922,17.643119443713317,12.29807676016927,10.624241924337838,15.161635669237132,20.14615199643877,17.46763341663615,9.877553776345366,5.664939234119183,4.226977682436111,-0.2021968500312392,-7.8711660258141585,-13.891374674717651,-16.430144030965383,-18.905081619316324,-23.902943404284382,-29.803952841241767,-34.639532338751664,-41.41566443047074,-49.30442880897573,-45.30897913283874,-20.438793745328404,13.462798208440011,36.34397357384588,39.32091511047402,30.905407593427967,24.469115883995777,21.37506397471155,16.588197912521405,10.90620828768814,7.451107972101551,7.303666766619648,11.124531645564378,16.60756159611449,18.348397680669855,14.109358356344448,8.72683631420394,5.9983372801445265,3.0902043851752903,-0.33832213251730786,-3.3275967387173875,-9.66165778655556,-18.236946748046627,-22.437902528777393,-23.658325303320908,-29.856470636093977,-40.68787381822639,-43.34011102704875,-26.45300479368673,2.2978068001369545,23.37348746729522,28.621590795474624,24.418380284884478,19.648383357920274,17.673007716908696,16.37842994780583,12.010503348653916,5.490301429713685,2.9839380608642347,6.9378640717872555,11.506390635310703,11.460017606335061,7.650455483628962,2.1350093554782674,-3.8416312201682903,-8.756505356827121,-12.604836371813022,-16.773168564062935,-20.547186055346668,-23.300576997880473,-27.72760263386069,-36.98648364277667,-47.109240859274536,-46.56805042390498,-29.380617906079248,-2.58631182970264,23.58905111154474,40.81524574450923,43.89068888450475,37.29125757569631,31.49217840182292,30.666508288105565,28.818868723103122,21.900653054251837,15.265078720826786,12.987262804196323,13.177829308626455,12.852889032752223,9.619609099461899,3.429726249106848,-2.561867329983116,-6.480840358109161,-9.946580165056684,-15.28432002252808,-22.5332928666894,-29.932306690335054,-36.2405398204754,-43.443922556695085,-51.93216121248542,-53.60525205871023,-37.027093662369275,-5.654869838273154,23.951838286630224,40.34526353208003,43.17878585700565,39.6639128145658,35.78144354375349,32.53514057147421,28.808361262341116,23.307058804452637,16.65940429134796,12.147983483457953,11.217661406447052,10.862434620399137,8.029584451531424,1.2799743323545099,-7.835813779523084,-15.721188617154024,-22.475677988428746,-28.651104774662503,-32.30265981436663,-35.83650100113786,-45.60918150133972,-56.12241371310432,-48.81264789886073,-19.711835819693132,12.078472726834669,30.160786965572854,34.92862331742979,33.81829701666594,31.539636994328806,28.218937672003015,22.085414024824964,14.805297912498588,11.872424669822836,12.945808621361994,12.518630345278067,9.591844215591971,6.451724061228356,1.7099384222754175,-7.341272501343423,-16.41997428108966,-20.56173926395486,-23.71172867089531,-31.19406515128633,-41.62092679379265,-51.77616383014611,-55.64750493261226,-42.30250211019581,-10.997988670531598,22.17994510414711,42.21741831520923,48.07260640817231,47.21682512285211,43.985736841645284,38.289006907767686,32.25832257206674,27.628647848283972,23.111832166388258,19.383163930188225,17.190669973286624,13.588411666884149,6.7964101886181645,-1.1709311316560642,-7.462193951643949,-11.557561697270234,-17.676718651968827,-28.85063677079545,-39.01489577650883,-42.63134150907203,-46.04082497068694,-54.95770865656391,-62.400190838172,-55.05737520342358,-30.8319378706408,-1.3728168305248944,23.959737853957837,41.26520980229234,47.257629038234334,43.96600047689258,37.99532641306686,31.24301091060756,24.236046846399738,20.843702498149018,21.171037764128048,20.312992079241106,16.04395082238633,11.651086240068487,9.768244953884528,7.694496355027541,2.2316871215467446,-5.657989725873012,-13.503653361992427,-19.37981199660543,-23.523383128750666,-28.443376592254022,-35.49093578135987,-43.95086185757268,-51.33355424874032,-50.773497898368745,-34.422256061989536,-4.297096905511302,25.26539832549573,40.948349703545766,41.80825691886566,36.870328716842494,33.143305538665025,67.0,127.0,70.0
