-33.44957931325048,426.00200441964085,562.2036269574228,468.193082228605,378.30981058838677,336.91611777595455,285.2796404574155,227.08564067488362,211.23093260522717,240.25183012297322,269.04386158630524,272.8668977427398,262.53632472381645,249.53651078861077,232.68609299413893,208.80463968427563,177.94202008404642,143.8537478656214,112.18900029091368,84.59154700077804,60.195473198384114,37.43592583315611,15.210170710165519,-5.636784224888568,-26.95416598217792,-50.91466000280377,-75.10118997047559,-96.09721978210266,-114.13729773960557,-133.55332811658243,-154.10185618856391,-170.69412724171337,-183.4568706945749,-197.67293591875801,-216.5708453853478,-232.10005900190401,-219.66664670903666,-165.63051048939198,-95.36743357464431,-41.96934159030644,-9.966578510471859,11.660747832725725,28.53479391181038,40.49081362720323,46.72823957391422,46.2845189491256,40.83644960650634,36.343940676708165,38.4388889046375,43.36948210004701,42.795998866577214,36.615757325089916,29.441816180193367,23.07297383913608,15.206747996783797,3.065015367694294,-11.939059974382143,-25.634902192761707,-37.27387729704081,-48.49182793981355,-62.29775985324861,-81.79095849001881,-99.47155324552648,-93.64525501688182,-50.62402103400044,11.839627495572152,60.899540117674775,85.74812446485335,98.83575978792611,108.21395117575798,112.82453025201355,112.76229781449491,106.8323818103839,94.34547951891425,80.34299303196383,70.53369617014383,65.88855894743541,62.27880857580627,54.45730021384973,40.49653879994771,20.493458728747814,-2.1951895743351857,-21.8062110043671,-36.52250752807136,-50.66763519857153,-68.85772962705559,-88.96101292997454,-105.39335429281893,-120.90551089455568,-143.708895350602,-163.76311554568065,-150.5020101913388,-96.44226510884624,-33.78219945375143,12.14453947359522,43.75661069807166,66.6232899526827,81.46652042454535,91.72521139663287,97.58672105398855,93.39666975398411,79.68175734857192,66.6577433236275,60.983255948707644,59.09136932683093,53.683382636840435,41.97352970118388,28.842580707010434,17.669473026135222,5.259772345878042,-11.44652891763179,-30.134715155411694,-46.67989425987967,-59.70085025049091,-71.93420474256898,-86.9289531846165,-104.65477798804613,-125.91720435579333,-146.2292948698006,-144.19369883027903,-103.97524714472928,-42.33190416756736,10.779491551088618,44.4548446612648,66.00111218796722,82.49964424829976,95.83132768972725,103.720462929187,100.15824508941117,86.73413895233013,75.90626288969767,71.52356719980259,66.27571227533107,59.39860799133433,54.305999016219616,47.70160368754193,35.715636411467116,19.297045380832866,2.1741363284946162,-13.85250249226148,-31.532743791983314,-51.142403679797994,-68.59207657428792,-82.23903313051994,-94.85963390556464,-109.90699464628831,-128.52267535109715,-146.71400001502343,-146.9599001138126,-111.51531017911749,-51.13194246973499,6.1044370504011445,46.63125383689742,72.24234738548992,87.79823028396275,97.20148855973248,102.01969049537344,100.66000097588936,91.88887514870866,79.99821491642466,71.08712416037298,65.4196386447297,58.92278542555057,51.460602811754185,44.07398931365563,33.32000610860576,17.533146418657708,1.4339064594061426,-10.551044588262467,-21.720182000182437,-37.899080834252295,-57.29686479075214,-73.65445892547142,-84.25255727614477,-92.8806464377128,-108.13689431019743,-130.467870072569,-135.72622094560202,-99.92655186868167,-40.06392380768975,7.7367100285996395,34.8604622916291,53.77280572980164,70.42475542190115,82.78068538355247,87.48502547153498,81.38286986526626,67.16599861919904,54.807700305280655,50.587555598080144,51.946127852964,51.26630948730367,43.072695663020625,30.8153968203655,17.438894062080507,0.889709703718256,-16.464485808190155,-30.557070217530182,-43.833308647381074,-59.01522504032218,-74.92381705551159,-90.6534419200514,-106.65794361303458,-124.79578524470998,-135.45535074998512,-113.55654617312847,-56.20105923643465,2.9095230043773337,38.713811761930266,57.3639214181469,72.59744432881746,87.91618249973568,99.13765784190664,101.33979155683015,93.39718499457858,80.03128215994391,68.51895563284245,61.734731363785784,56.55527607146457,49.816578431924896,40.56772853475361,29.85255428817807,18.706152931003725,6.37009880009363,-7.863064815874352,-23.737880933111136,-40.13131990929944,-56.994727972919186,-73.07356877702343,-85.32903366932256,-96.30761031419185,-113.72361759026417,-136.66184064587873,-148.38267391016274,-125.64615863467395,-68.63483205745364,-9.142068475559554,28.059287423438242,48.648342827245344,67.08019091226882,85.2292726765841,95.91130100151281,96.54560717732012,89.44856471712457,78.89882031948463,70.81165006232261,65.34610786564528,59.95599829530542,54.4674174860523,47.804995683928645,70.0,108.0,55.0
-101.25184570870269,-84.89841417485407,-33.05287911441479,28.50776035167089,70.22088800793993,90.11035182106798,101.91862063530986,110.07927858071815,113.26683607809224,111.77428552026974,103.77165882345625,90.14749591141671,76.92678344888823,68.76191677968148,65.00739425547955,60.60338694010481,51.07526062888676,35.27757321361877,13.957117817254138,-8.38800713102724,-26.457191564190943,-40.39889914396523,-55.436910292622315,-74.75754758754108,-94.19814588148635,-109.55277348239714,-126.62342843426197,-150.99908014002332,-164.5704677547564,-138.13700144898237,-77.5126279242024,-18.532096716623496,22.347197490698413,51.22954378918681,71.63856931605719,84.7417135671483,94.07717388272494,97.62421497667299,90.0591357968962,75.36136288273676,64.25447465152898,60.37771586570074,58.16341940012577,50.840930053756196,38.042153700018254,25.462210474952556,14.426082149821609,0.8728945451784214,-16.846639025996346,-35.268065134012296,-50.76146054348898,-63.10937927122113,-75.93129806004588,-91.78819075835236,-110.37417027070465,-132.529204199829,-149.10693086852268,-136.3940353330137,-86.93875758570651,-25.11946180304732,22.35319692376419,51.49639066296243,71.12978397790926,86.68488782025769,98.90797954701455,104.08258167716498,96.81942217623948,82.83870484519858,74.24295381530405,70.35831684172844,64.23550902541237,57.759899609334816,52.80617045429823,44.83238656771378,31.290198624627504,14.24606968401575,-2.497676601758037,-18.6604563371191,-37.15075099417167,-56.576433366925045,-72.8650613309741,-85.80955794498274,-98.86111291718409,-114.93044292432481,-134.29998951937816,-149.70513020078607,-140.57217969924181,-95.3872089163922,-33.24169588856169,19.601959550704688,55.35161131987843,77.55981137079105,91.03147703897542,99.06854121481588,102.39197254043567,98.80919522534809,88.46309015247209,76.95339752126169,69.29268262922064,63.74916794633679,56.75294092307698,49.40141610324081,41.50132096456934,29.17291666800577,12.612874753731866,-2.4628543982826367,-13.544508555968509,-25.775518693303635,-43.45504302138956,-62.56369658247526,-77.27182408536798,-86.61167926118229,-96.23916105880825,-114.4423931250276,-135.27370262420848,-129.74856339397115,-83.3534297653929,-23.920685488339174,17.237321190158745,40.66744726467374,58.837581467260314,74.57935863784458,85.08907757949395,86.89428030404366,77.73818738712929,62.954251133884085,52.721058940881264,50.68622377731192,52.33770306961721,49.67246865053607,39.67878462850832,27.13699254835274,13.021298115178194,-4.299434717482884,-20.88865034537557,-34.26499614000294,-48.04022787720578,-63.60133088248459,-79.50273425165722,-95.1607329912944,-111.70139428086054,-129.6510898788628,-133.43138749200156,-99.57205585579962,-37.58103675083829,15.849371928449722,45.14435958111629,61.74010195182235,77.12232936643171,91.82960781604515,100.85396602319508,99.98420758034688,89.76481429429263,76.24597522843119,66.14092761649192,60.259778257930265,54.84492487673222,47.39502934120467,37.539297077003404,26.692505444927736,15.302285604046798,2.4739735361196473,-12.338284096455034,-28.442751926607095,-44.95184725174582,-61.8624468220504,-77.07486629487688,-88.28314288194697,-100.4468676950961,-120.21478159486952,-142.30941691617505,-146.066241797746,-111.67840953260354,-50.06192509296621,4.150926203044769,34.96337591014784,53.814175196760004,72.63030995860993,89.3595828451007,97.04930727928779,95.16730452898331,86.46348963530203,76.15713126681156,69.10736305029346,63.823150538984365,58.37410937477764,52.785536905519855,45.24278553634653,33.96894725263957,21.301170556998166,7.170551336928421,-10.010451465075853,-25.420178305709292,-36.24010649171823,-48.377774100392294,-64.5910601406375,-80.06985667293527,-91.06694339061814,-100.70469712898111,-116.96301391781593,-139.1985520999154,-144.39081713905097,-107.65002048168711,-42.45800633985241,12.044936637195786,39.882383202304894,55.0359112625444,73.02089765004412,93.89067916779682,106.14472753777675,102.02401841918876,88.37301050013738,77.33009870651803,71.74316026180672,67.31629228070277,62.61808753944784,57.613421125298814,49.64877637283165,38.462449852384786,26.4310876930718,14.15150934691279,0.8232482084657833,-13.539633035875065,-28.409297036217996,-44.54289934859598,-61.93749496941071,-78.13471284295682,-90.86785399193495,-102.56713195220242,-118.42707483651084,-137.9518988021154,-142.08009873961333,-108.28742800150395,-49.38134533481848,1.3133461100928243,34.54960402021586,59.773016892128176,78.64476296127857,87.2360286286565,88.9494356626966,87.50786761805637,80.48582638270267,68.90647314694904,59.2561503029488,54.244930232128795,51.84806286519679,48.77783108366162,40.94153085959626,27.507727126506584,13.234429601396728,70.0,108.0,55.0
75.94441323315517,90.61941789903373,101.42586817893023,103.31430920085812,92.85763892548405,79.50843285214536,73.02479557400999,68.91435274959217,62.1731192795107,56.308826885325296,51.029580196039795,41.466376333395125,26.55778569738845,9.247593699367323,-7.090031735297534,-23.702431206913264,-42.86890404172473,-61.71513617340623,-76.83260489584096,-89.39496045738157,-103.13126194264906,-120.26517767444493,-139.8686524069121,-150.59537299764463,-130.92070935747907,-77.79880201309798,-16.289109990179963,31.606931600912755,62.939968730836,82.15921025653107,93.8243024409756,100.57158376010823,102.16831684302184,96.3494263240535,84.94309599519535,74.28575189032554,67.69086306501919,61.90885218026438,54.56743062155146,47.33377579294455,38.524167812931054,24.625613311394666,7.8430143316525625,-5.964130575838292,-16.637831071517706,-30.359340246644948,-49.13639038854711,-67.42877983477958,-80.39541121847054,-88.96517043554276,-100.40032145483575,-121.17569026174316,-137.78106870656742,-120.00379900525648,-65.6789769568185,-9.575208146771491,25.19039435313655,46.127032182033055,63.73087657466621,78.29586706390644,86.67367355960975,85.32900327829788,73.58040328806842,59.17922230728301,51.374014919645695,51.11867108179439,52.33618469269291,47.392745001600545,36.11775310322916,23.352048538672054,8.277812022736615,-9.413848397150128,-24.986252077927368,-38.03540563364852,-52.41702381532827,-68.20463559333068,-84.05488661296165,-99.72152663289958,-116.98819541748679,-133.42368005386535,-127.99739284892215,-83.01115399464216,-19.870836763771464,26.5713647022787,50.538626857746124,66.09887437180988,81.6248434341251,95.26117019228889,101.71227625945106,97.80707311739455,85.84944381456148,72.79290805918568,64.14979729358872,58.80714890480542,52.95397969185619,44.75587392827489,34.438119061202315,23.497893716797726,11.775476788327797,-1.5980414910406542,-16.92325696080934,-33.16989742741748,-49.82416787038052,-66.59931507770733,-80.67982858868217,-91.2968327789511,-105.30871629808789,-127.01316138140398,-146.44438459135006,-140.32958200999406,-95.24031027137869,-32.27057841420555,15.277363461118888,40.88610557443888,59.08810767134453,78.0410373360461,92.6721593236794,97.37725469745433,93.2009125978073,83.3381001623284,73.74806676681547,67.54520615368146,62.26653456332485,56.798369391400996,50.94827231618664,42.32329088451261,30.33797166437469,17.50880971114933,2.432080351499506,-14.948577732435632,-28.861517822753918,-39.310393862778454,-52.771338226815125,-69.40261916616984,-83.71739940165827,-93.66587582369988,-104.41235418095577,-123.35377774394252,-143.9133684088347,-138.41305597060074,-90.03738560477224,-24.165617468429602,22.55971429934899,44.667697973008856,59.61112375722845,79.1544457918665,98.8786004672469,106.6185848792618,98.45224984812825,84.55999643333138,75.30600463763176,70.51695621186886,65.9341881204873,61.30160866648975,55.71600702519918,46.64813151181192,34.99265000068579,22.942158990797527,10.43508171363332,-3.2557960224817393,-17.774027221163763,-32.89546018288317,-49.50626905566658,-66.89198842036005,-82.16570524370259,-94.13130531199093,-106.5188755334317,-124.11720487777882,-142.02790154216106,-136.5096073781702,-92.28398051795574,-32.83574590615829,12.356676112138294,42.3258014697111,66.10213135334645,82.19718615198562,88.14533610158335,88.89727462323546,86.16781408190025,77.34845328332705,65.66873454037979,57.375392501982695,53.41202328477926,51.206565581694875,47.160517240023935,37.49234655914855,23.226115819198313,9.56162819256276,-1.9485183688533472,-14.696385327211125,-31.004196951862333,-48.09894200378327,-62.33787342073751,-73.0272341287753,-81.00782311085084,-91.00877576099278,-109.30503742327842,-122.79160751382982,-101.82580149357142,-47.85522736168725,4.307223548244862,36.33445457162746,55.54883243356243,70.01076957588653,80.37752398684468,84.94897721903196,81.37429769235922,70.34396941122289,58.35071823581717,50.83669005320164,48.290924941467104,47.30345749081079,42.22333521338581,30.914625220900387,17.378383229025072,2.871666050649708,-13.831326220874796,-28.345000257439743,-38.53550048083854,-50.59866992302451,-69.15654912866357,-88.56445555724369,-101.83004037354756,-114.73070536724826,-133.04574432245582,-135.75277365659866,-97.90350230255976,-37.546844619903354,8.520844819973387,35.10223021565725,58.0043480178303,80.64575553290372,96.65148619823606,104.91186312451035,105.90470841027721,97.94590775739195,85.53350655029685,77.31861202100349,72.20263954865685,63.57145228735399,52.217301040468584,43.22830595750067,35.960177437446134,24.14905979647531,5.514402698370668,-14.30227011007971,-30.495314831173246,-44.47686559840768,-58.91427300825083,-75.00178880326,70.0,108.0,55.0
69.18827258799672,56.022830685019734,50.70071240857958,51.69267152888533,51.75998364347811,44.53781950057667,32.495133659859114,19.367658669199823,3.2626883108803892,-14.309675272155433,-28.834134625304067,-41.95941557195395,-56.91507965053093,-72.80619336873188,-88.57653947543355,-104.42032042865071,-122.36910712091257,-135.37731557302416,-118.93121739878748,-64.83133498498127,-3.8073193287906215,35.281170041696605,55.294029494788234,70.52762134084306,85.9884880224545,98.0785726419598,101.66720833889545,94.92343240518855,81.84992205575205,69.76312982427964,62.45069773667514,57.29233313203971,50.85726493702241,41.92543576635778,31.303408903348476,20.238809614724474,8.11067727230579,-5.847729696586927,-21.577686723183092,-37.925558465534344,-54.73177916926331,-71.10290030899445,-83.92454997590295,-94.61352626226432,-110.91161920127068,-133.7299016237343,-148.39453092168904,-131.0629394007167,-77.21034196080255,-15.994493294757943,24.419531842048006,46.25707199863698,64.52836257217116,83.08737346839176,95.09573022052649,96.96609822814672,90.72780857470033,80.25778261921778,71.67149695312554,66.03930877104571,60.68685238017686,55.21241697750696,48.868021545250656,39.08704292120477,26.68197977101188,13.520034574245592,-2.559954963271529,-19.545131125710387,-31.954363226845118,-42.69249424321232,-57.472427833765956,-73.99172230422249,-86.9482176174546,-96.3048757859141,-108.89571857040744,-130.05894674398465,-146.39326597259065,-128.50788572219025,-70.88285526816314,-7.731995054315198,30.85815066364978,48.913057612201285,64.69046577426651,85.35910689253119,102.80605928063002,105.64980697840471,94.40755629306412,81.21958030045145,73.68365507060146,69.2630029356092,64.56094823995231,59.92222677461855,53.49590190019741,43.42246803717981,31.511772031285112,19.417732878766113,6.610170963120434,-7.40405117166781,-22.045922369130615,-37.52037240222653,-54.55057273970105,-71.66114395385091,-85.8794464870825,-97.42128045256803,-110.95761013543726,-129.99698964341897,-144.11022238585193,-127.37504681088619,-74.97552774884704,-17.727918618169493,22.070553387869612,49.68832073006916,71.79366529148714,84.82697551985457,88.65781517067813,88.59650664793777,84.26362874358949,73.9468450673277,62.76270212920683,55.87639370756583,52.72883920499112,50.41966770410439,45.03742407896308,33.622987459423854,19.026691733486437,6.107030172474698,-5.316929167959502,-19.077992165038186,-36.06614393237298,-52.58891947536737,-65.77340339969538,-75.52391309824785,-83.31763847285949,-95.45057385983358,-115.02735165428507,-121.18972407341741,-88.29454096490582,-31.132826583037392,15.576620501437622,42.688415742515225,60.085724845663364,73.49054549212288,82.38920487793,84.84156575219161,78.74122628138188,66.64883059433717,55.60967944020681,49.67571065616829,48.082308583612985,46.484739848568694,39.4873951545809,27.041555289959103,13.395472045840693,-1.8145510122337434,-18.510313038022833,-31.576000184180863,-41.47212806044512,-55.34527547443962,-75.12356305510961,-93.05514286088827,-105.05303866662838,-119.79542064417795,-136.98046625584263,-129.154701165065,-80.9208566599602,-21.769074795422334,17.541089605590756,41.56558494658421,64.85762157741968,86.13677532138222,99.7522726864739,106.02705216896665,104.51740951397493,94.38382821471609,82.52125550116327,75.86015306421267,70.21850761295813,60.326618920132965,49.24260878022331,41.18749595948844,33.28040601805763,19.32666593419736,-0.4210861732345109,-19.37957441353063,-34.62493833561266,-48.512881301359016,-63.39908268025784,-79.83495312811691,-96.11795810581565,-111.3654347016267,-129.58927923270292,-151.52874446611992,-157.43818084893087,-124.33244718808315,-63.79901392593503,-7.999855097743297,31.425796755558626,61.21908525702012,83.6346365779941,95.41469708564526,99.24518652434763,99.11302394907254,93.57795325367034,84.23436120139465,75.86183490536665,68.74825343559937,60.33763447336768,53.091249283108525,48.622706301666035,39.62639445937808,22.316621132369253,4.818458718965351,-7.184373632840956,-18.411756496334533,-33.85916676555812,-52.54401408091925,-71.11232903451234,-87.35586028728251,-101.18462936675905,-116.38177689041073,-138.40958270293655,-154.3405592772718,-134.3046928084661,-75.8679004315387,-14.057517553133176,26.191052493159678,50.34367717333648,69.84793500540869,87.45181122282608,101.02285547598294,107.73621582790847,104.95056080582195,94.17640948720299,81.92359893811808,73.24659478115548,66.59610355604764,58.53409302245853,48.51611673678377,37.490209510165926,27.058918018999297,15.770460243541082,0.6022537392309385,-18.550101666263732,-36.31406348649039,-49.32245976862129,-63.00532015072598,-79.18899711783224,-91.64864268395019,-102.64899824766653,-122.54976790679297,70.0,108.0,55.0
46.468852372451124,35.6183459832769,23.010515684007643,9.248682854991847,-7.667413528178005,-23.6803516505369,-34.88488973049702,-46.48449834739728,-62.337810736189105,-78.24407107164532,-89.82669864708384,-99.21038277341671,-114.23069960630218,-136.50996138573944,-145.84233772293746,-114.95641966925346,-51.31625030869968,6.376849180212244,37.354860394983504,53.0596594369072,70.2900415033124,91.31963017924674,105.4240399708511,103.41021337209921,90.24522755568705,78.43041213821157,72.3225179470895,67.94413234063998,63.223851064169494,58.39306389706594,50.93718677205036,40.04817767879784,28.03444027900954,15.83201147532558,2.673571647284858,-11.59659679423747,-26.38057970668993,-42.29430627741592,-59.61579756364046,-76.1642580130495,-89.33534881022314,-100.87804224714122,-115.94653855803378,-135.61644353335944,-143.4631931754925,-114.95555427135591,-57.35736710763289,-4.303927409463386,30.783061357775708,56.684469700010496,76.68947014377589,86.63513392840274,88.90504692426109,87.95179618666778,81.79553373188125,70.47618889334137,60.26378917238845,54.69869116680525,52.12310292621831,49.37647970663891,42.36124588068153,29.472642493650277,15.009159040788438,2.805410556980096,-8.904014309766799,-23.76700453580629,-41.07919751209114,-56.77716655221934,-68.92175590607941,-77.81680002753521,-85.98500427736927,-100.71024190053076,-119.70679144536729,-115.97889520989057,-72.58654399928757,-15.514845085627854,25.079369004695444,48.28450801604604,64.33345288807307,76.59561078225805,83.87170749575417,83.98506989348634,75.56851494299619,63.070156145673394,53.327624658881604,48.89899115103766,47.88641484956718,45.17529488299038,36.254763521913276,23.11921108755555,9.279137245364888,-6.680718418498882,-22.835182708416863,-34.48616345244001,-44.781266291014624,-60.66749682392378,-80.91139307645724,-96.93337223965648,-108.55581966889912,-125.3108997078788,-138.75104282659805,-118.79557617861255,-63.03577450072423,-7.945468370952912,25.225485707008524,48.1177955859761,71.56152887565618,90.92862638051966,102.25627430650894,106.50709144060139,102.33965682336145,90.67008934482669,80.04395893253393,74.48929508467762,67.8079275764627,56.9744597115295,46.57933234520706,39.18746359172407,30.043312923540118,13.968428610335515,-6.25575213520107,-24.106159292651533,-38.648210901024015,-52.64141528292546,-68.03289754407535,-84.65191832142877,-100.56024514728641,-116.05115949890384,-135.97076726308393,-156.226545146645,-152.18916691130158,-108.19949261867397,-46.09346819474401,4.885976891645295,40.7206005774968,68.60528691023163,88.17653274468803,97.05638979888971,99.62257689957863,98.12582913815055,91.04683775702607,81.57252860921655,73.81992195143216,66.46437632819489,57.90520016326002,51.700926208389944,46.89003120665579,35.285307093739604,16.81741727181068,0.8514647328934666,-10.187942978969797,-22.381520308335254,-39.07292874845713,-58.05561770636483,-76.08987429651211,-91.53782338699733,-105.11816150387693,-122.06122196553783,-144.93933935933117,-153.27027339248676,-120.21683316082989,-56.6272224051044,-0.020768776227746484,34.191993293766416,56.17091081067601,75.18994730532275,91.90689236909401,103.8028469296998,107.96567674267904,102.42362565351117,90.46959397914337,78.98992658638485,71.31138488703427,64.48267172322717,55.82244132635492,45.34931630613045,34.402655905783334,24.028591998729464,11.886611149415966,-4.667589584938061,-24.13118495521038,-40.44793380888651,-52.903035992330885,-67.66234685472881,-83.36346275641118,-94.50899162955359,-107.18888337949822,-130.0794442270829,-152.16142500811733,-144.7119328593518,-96.58588916282454,-32.547080680116785,17.47023565864823,46.43980265051455,64.2938813367748,80.67239246398333,93.81407955478667,95.98728193160021,86.16698329734736,73.24473242977822,66.71055166425889,65.96892998989216,63.23764075791636,54.87539282592163,45.572925627423615,38.52860977245834,30.002257561035663,16.3045734109118,-1.3094242363847375,-18.53511441327042,-35.21774004528791,-52.224967032758165,-67.58991871786704,-81.13367187752631,-93.37577650973294,-108.34767525859972,-128.6302181407837,-134.9180994348642,-102.13796036332299,-42.90800285471882,7.516276053918413,39.09637796909505,61.873689564273654,80.13721817067318,92.60407175970091,98.10984426122994,92.97115114204442,78.13294751152605,64.94393891248323,59.890549556143554,58.17030867764907,55.10971366825782,49.59493357323468,39.68421891472539,25.91342766988509,11.69096493861833,-1.845848215906445,-15.669547467409487,-30.227069669501464,-46.613165923614346,-64.31790791519045,-80.9906742829604,-95.25712382731874,-109.72503626672847,-130.71315109465354,-154.13828919782028,-155.54898357706887,-116.51107674161173,-54.09828242512744,-0.6084781404367534,70.0,108.0,55.0
11.225372002729845,-0.4399856248702143,-12.790810857853028,-28.686873899858504,-45.93611969875318,-60.653920981802266,-71.79320963526172,-79.99919526522456,-89.2478988157952,-106.54714061767825,-122.43384989437584,-107.08414178056836,-55.72721474890057,-1.5219339778350853,33.07146204889655,53.348780181204184,68.29113072201552,79.28706080760955,84.75966475861503,82.3669194878309,72.0372637285121,59.75709324241143,51.51677871789897,48.430345402039315,47.549548397614444,43.292530149353304,32.6560247984183,19.193172642106198,4.951019448383032,-11.595591081382272,-26.713511084417647,-37.251380212607664,-48.62195472231038,-66.41937226712152,-86.27992602042043,-100.34503335300597,-112.62178200819513,-130.7599104068819,-137.51366282957937,-105.11411376553586,-45.35905570869857,3.7837891335429603,32.084494941375965,54.851538774282375,77.89967546514292,95.00483088564405,104.20170968725613,106.27306067442709,99.46223945644812,87.0797931116071,78.08156854099524,72.98873443377809,64.98753611008041,53.677955877729055,44.22571927885724,37.046928823639526,26.161823697865206,8.232826114124178,-11.839405580818786,-28.533957333378332,-42.634712967719416,-56.89997599405492,-72.78448316353057,-89.39709649917722,-104.92058405794126,-121.15680594831305,-142.56237936343095,-158.84583056887277,-143.28893345214175,-90.50825375907462,-29.537323399784064,16.439227138770413,49.42738377723158,75.31498852286938,91.75557272750257,98.19747669776186,99.69941285642608,96.62359356760881,88.30815488509614,79.10351541212272,71.81484827664491,64.02601191841796,55.7058306051693,50.49814052900424,44.520410990360574,30.28753583913728,11.593134796403318,-2.6369913685894577,-13.31652069662727,-26.7702783524428,-44.48038524826986,-63.47593727244842,-80.8396474316625,-95.53105663406217,-109.32083013394706,-128.42761677161158,-150.3347074629842,-148.43803669902144,-103.36325523486192,-38.17197001907477,11.954415791703367,41.206074099107646,61.81585392152766,80.35493493506956,95.95972185519213,105.93846755628357,107.34216365702191,99.3346800734545,86.82636093225321,76.42809712002509,69.43729842616094,62.19499334261162,52.955102825086904,42.137208205125376,31.395589968006735,20.85114364916647,7.607310901499066,-10.224047929010608,-29.408074009056868,-44.19095154287048,-56.7479130853997,-72.44192391874171,-87.0516179299254,-97.46746756759967,-112.72957597226358,-137.69456484644317,-154.226762305398,-134.4518958080419,-78.11232559470511,-15.855580328180622,27.730234782531628,52.16983223120963,69.01149748424582,85.15569676826685,95.8200366196671,94.13906276925206,82.22124422587933,70.49679116944108,66.20306432822932,65.71610822543984,61.30753403077467,52.000815949749146,43.37839987050676,36.45010850646367,26.62685497944605,11.426493038672444,-6.452053878715606,-23.303561854274076,-40.17049055795053,-56.894378599555225,-71.65881990505781,-84.75434868780269,-97.09677002495395,-113.99074982895759,-133.31844181729087,-129.82082091152,-86.11451182161314,-26.29522565213001,18.207291443525076,46.19152531794925,67.65368358330943,84.3776687048235,95.01466349254362,97.89885943554744,89.2974271538337,73.61776659081241,62.71659851584718,59.364990742793694,57.48508500590134,53.83868965403967,47.25002489670133,35.96269091056418,21.721594303570207,7.755770125219824,-5.7923839252269,-19.757855139381178,-34.742027154036926,-51.685054678791445,-69.34320666212375,-85.34958920709747,-99.15375939947546,-114.91263736314745,-138.0030302163103,-158.10976011961537,-148.39943139306888,-99.32142869040342,-36.71386767814731,11.0856118800319,41.489688237004394,63.76520049354139,83.06022974692353,99.61395411284865,110.20702975046206,110.10637048811161,100.45129061768576,90.22436164549774,84.07592015581672,77.68921146128913,69.22652265809435,61.30360933006816,54.26685887541863,44.420707205659966,29.051976825994156,11.375682065348384,-5.341905037702291,-22.86849984720223,-40.00992271709071,-54.41267371256562,-69.44042277025925,-86.78372222167962,-102.82379081548687,-117.92950013857131,-138.17068401095716,-160.4317358943935,-161.0423073029963,-119.77733124432102,-53.55092857929283,3.043026053857547,38.55542812285176,61.86767724000958,82.52570055761338,100.24476666680333,107.80541184856678,103.45310264748257,92.9976859913163,82.75191083432141,76.36573797013764,72.4795345771655,67.36020332818786,59.81277299890747,51.4791151307772,44.308723317238375,34.821462716633036,16.74183368785962,-5.373836274579345,-22.27911967782186,-33.02986738334257,-42.255780924897714,-54.75300480210625,-72.79738716227901,-92.3745243877491,-107.81893938044102,-121.88005061682794,-142.3853895588178,-160.52244461375162,-147.15881473206875,-89.68683641280563,-18.820246509954412,30.99482126147849,58.303288306656455,70.0,108.0,55.0
-77.6050951604129,-94.02777820020157,-109.29981503614627,-126.80034745399188,-148.88360732925184,-158.6450003397995,-130.99322502255964,-72.20204478317025,-14.44069103500963,26.901085040849296,57.61822532819268,81.21733264548789,94.44092700979883,98.98057222864144,99.40064776860451,94.63595020679882,85.50829934386454,76.84314897543094,69.7459648996112,61.50008512083228,53.835114473674096,49.269200868064836,41.36264624106246,24.873197194673498,6.8311212470102545,-5.791645109347845,-16.720131419999795,-31.54526987815849,-49.991876995762574,-68.74583693813906,-85.35357335951139,-99.40652641870777,-114.00667322150528,-135.242296609899,-153.70737773560765,-139.64786195523527,-84.74367507542662,-21.22863977741384,22.06725584566547,47.56187097930582,67.33944547542532,85.28026812475625,99.54550333797434,107.35001320565298,105.8847239918148,95.85815674432794,83.39902648526862,74.1922834451274,67.51844253312795,59.729040608171445,49.94536669598483,38.942389364701405,28.430056618199867,17.442088095601004,2.9077234457283954,-15.923382004083528,-34.247983256730365,-47.71403256692279,-60.94925123462802,-77.12385247663401,-90.27830462157236,-100.85556747717895,-119.25813106060433,-144.69993242136914,-153.04736061420843,-120.89371755540326,-59.21245456061216,-0.9071483136937781,36.31687095605175,57.30023967519396,73.76616061928375,89.19318997080731,96.7278070482224,91.37133551646892,78.31510949661217,68.4555374505137,66.04212763557591,65.08305057223924,58.911394002093544,49.22720344678498,41.369945475224014,34.10928271339938,22.765291589795613,6.310102647427745,-11.456630758971926,-28.09352472484673,-45.12717339190791,-61.37327404660671,-75.60131463348648,-88.26319852439379,-101.2313108261557,-120.0429489369552,-136.0614348361645,-121.0155804892513,-68.69725643398752,-11.230093178708668,27.46183200623875,52.82184495935084,73.05191698252708,88.10178465022886,96.81221484099855,96.66414035786795,84.96291245108043,69.58255070000327,61.18926809801133,58.92450993201152,56.63958725462279,52.337528948514844,44.47993095204168,31.982516001781498,17.581754805623145,3.859077308806312,-9.778843878845306,-23.92268424474384,-39.43994789666483,-56.82476619496759,-74.21979852323945,-89.49097607522809,-103.1867348880016,-120.82635981127365,-145.1921102448335,-159.46728461900673,-137.67544720229293,-80.99494758833889,-20.783218049841267,21.26033094333482,48.410386505119924,69.56741210089234,88.20116303848448,103.51331498859216,111.40890532687231,107.99040832816586,97.13317486157338,88.1314194901592,82.47201599337772,75.36535003739971,66.78025733443489,59.283435165661956,51.920189751078496,40.51355590406747,23.94247941150375,6.467233070579346,-10.247697324339168,-28.047948964982666,-44.39875749591891,-58.481435452737095,-74.3347657174027,-91.69218482781504,-107.05318841595457,-123.03098730450932,-145.0897787568829,-164.1796861486831,-153.48029723882166,-101.55612427944519,-35.10644386199181,15.26207612401617,46.00704855839154,67.8960547076116,88.23772039134825,103.74404669117996,107.59470010558299,100.74420569025168,89.79015112308927,80.45886248320858,75.16885992715535,71.24293504175029,65.39931191162889,57.36805195907423,49.28336312126966,42.15873706139863,30.544070231021323,10.283648251935869,-11.026215563847849,-25.842874271018026,-35.63256447099064,-45.33835443549107,-59.44855511578925,-78.60848345651787,-97.36331474021962,-111.6221398338489,-127.02530805729566,-148.95171073104228,-161.21122086179489,-134.44818214534558,-68.59308274529616,-1.567824771480595,40.58005276401146,64.11701031835452,82.08797719076476,96.75706924714133,104.74556819970758,105.66732631937043,99.56944649314276,86.55492515024069,73.42966974215273,67.44614574261618,66.19783761343241,62.54122945481088,53.83235160287934,41.9218571818507,30.387939088440664,20.73352267034474,9.332218015233146,-5.451134096712936,-21.199628436318324,-36.776532337942555,-51.84986368975006,-65.69762039856454,-78.65636984671933,-92.31888903579652,-107.59460838992658,-124.71544141918429,-145.17964334347246,-158.50413720923225,-139.0232437190024,-79.83124725622503,-11.611981681142932,35.962463067246325,63.979836749922086,82.00375532783129,92.1916118219763,96.52551665046961,98.4272429140554,96.27985118806531,87.11984791179572,76.49671717622165,70.52305745259052,66.39003003152285,59.41378660408641,50.647255206379135,42.99847498468302,36.14604210428529,25.706179259447136,10.167906904632677,-6.232395481594132,-19.212004098906064,-30.936521425659517,-46.116048400163976,-64.35714446301327,-80.71288752710949,-92.79648424894208,-105.89539471958098,-126.07940101010558,-146.78049515161783,-144.72312542486807,-100.77235881650469,-31.361239530416825,26.27668536407645,56.40986747204405,70.07095726843333,70.0,108.0,55.0
-126.56130471353983,-150.29009116638346,-148.21225231697358,-104.70423682487903,-40.730362705253846,12.118090368916226,43.50725722335151,62.11646474747554,78.51751159914556,92.55285789480486,96.48300745601384,87.91526105367106,74.72757567178022,67.11560928247134,66.00620443600631,63.946749125205244,56.19050878233028,46.66708574128072,39.43437905300934,31.398588829032903,18.43928918391217,1.093007091778313,-16.32402377277862,-32.95200619201724,-50.01463915706003,-65.66635627710468,-79.41866026233812,-91.74240746738685,-105.95100463442677,-126.05315719844029,-136.04145935715064,-108.77334719356314,-50.94002214994156,2.021674156015269,35.617344861420825,59.09330915273001,78.0119085866459,91.30528375489895,97.89107766300845,94.36976040508083,80.29680234599519,66.23048737205295,60.21009115727656,58.43545506884551,55.63149447829812,50.54151283880919,41.28759593984573,27.845565946151353,13.529069268972215,-0.039439769107734696,-13.801903219530901,-28.20352843493998,-44.31410694925677,-61.96579799700889,-78.90422464290967,-93.4610704310957,-107.5481563852219,-127.457946168364,-151.6303532474552,-157.6050498381794,-123.79183738215714,-62.470649115735185,-6.567718465399375,30.17331583725249,54.87758952505819,75.18255147483028,93.08741278973821,106.8002161833986,111.60677388632615,105.20147460663232,94.04057298087928,86.36906071576954,80.6975406288603,72.89990455036721,64.45407517749388,57.30177839216346,49.21307650111855,36.12745964353581,18.781338133858405,1.6617767443320404,-15.29773500230868,-33.08816180027217,-48.55022788898329,-62.74061627935705,-79.38452318335034,-96.38137562227507,-111.29913606387059,-128.74312540257242,-151.91848574622944,-165.3375475579029,-142.1610346581508,-82.10668538096537,-18.231678607886117,25.75950520730768,52.74735462846478,73.87759962982679,93.57504559655204,106.20227804649902,106.45298558455256,97.70493859733702,86.73420937926831,78.54756544269715,74.08467389184567,69.82424485887437,63.23857718892171,54.92080100255417,47.223716899052754,39.63474007057623,25.43608519894218,3.7472178534846705,-16.061792403037465,-28.97216616639702,-38.22947253785952,-48.81275116998263,-64.61589348753085,-84.37933915585329,-101.89678640982234,-115.50421260109766,-132.88447674903261,-154.83556498542873,-158.42607970566243,-118.15191283494634,-47.523639514636024,13.352780159998106,48.58520561652992,69.55707160683306,86.81571145341474,99.84468154000271,105.6882562473747,104.68968798963206,96.36547742872983,82.33306245539656,70.87269376861522,66.9275943355839,65.62900200566176,60.51414372929486,50.577561301183216,38.392932873696864,27.490856241575603,17.812268153064124,5.320677127129337,-9.994891411271047,-25.726321873382126,-41.21308774045651,-55.996787342440214,-69.47549630248994,-82.45374545205082,-96.58422676026876,-112.26716289274444,-130.35105453688342,-150.78310193531073,-157.28634906002264,-125.21037070296582,-59.23381243257308,4.731993347489286,45.51924493843238,70.01809647827038,85.72465427811258,93.87645427507368,97.25250424410775,98.45213365979541,94.27893254295753,83.80242031409863,74.25008129035102,69.42568674647816,64.72409945130303,56.91918095668541,48.237505844784835,41.094855429459265,33.68327539020051,21.640944364544033,5.2501860988007785,-10.374348217010574,-22.48687489446487,-34.85135969731114,-51.255520305931725,-69.50066778196827,-84.55444515631082,-96.10081255470911,-110.95284053047199,-132.77358107403586,-149.77752513159692,-136.404925068721,-81.67240571860557,-12.145345354622476,37.63850346451487,61.30737119173552,73.0572547564432,83.0186818346441,91.47603527605266,94.35185709762592,88.38694420491753,75.94263366077601,64.42280018307089,58.91831561121508,56.61600268538383,52.53988552109651,45.147378072186804,35.86610287243387,26.493932776370475,16.572754088104897,2.837749797717849,-15.273861937573999,-34.03008587406059,-51.97661494564513,-69.80817009440962,-83.99422237096869,-93.34297980006929,-107.54686357932114,-130.59510501876622,-145.86023025770385,-127.9371052349959,-73.497599928035,-11.356899120663229,32.01651386944235,54.883062585859435,67.0805692325705,77.38713867887206,87.52036974201211,91.32367041938733,84.43340518146343,71.44070119838062,59.97146993148508,53.79453868713068,51.98111266656737,50.65406986253337,43.48994327173802,29.608182032196552,14.674068777668221,1.0188938971467079,-12.771313372193575,-25.830484222846717,-39.0116333380559,-54.40482184992694,-69.44159117690899,-82.94360456378524,-96.61574444630594,-111.85043802252316,-131.69318565434966,-146.3239434914533,-127.27631683637,-67.64081587979135,-0.5116128772854386,47.81040623557388,80.41745888682337,105.86798859314793,123.75817347740188,132.96044424391485,135.91683401955487,131.02940997415755,70.0,108.0,55.0
5.896656254678508,38.09800718691357,61.01931550094822,80.61800721867036,97.64756872590017,109.33164008431463,110.79917034761728,101.99356145322892,91.32850359346239,84.78895206489788,78.69269721827196,70.38122813666608,62.26760990401828,55.26068824027916,46.04929315075729,31.350944714394256,13.684280918123713,-3.11956848333899,-20.467058819165654,-37.89099514443551,-52.568043126205794,-67.26304654979414,-84.46586657354109,-100.8363398199978,-115.75164479021213,-135.0762541537897,-158.04563578034845,-163.23902813149982,-127.4849687497982,-62.43895705109389,-3.223093884278387,34.7972742814451,59.048183622520234,79.81955696549197,98.31843725019195,107.5532034883519,104.54291261346611,94.49504264709414,83.93366818902726,76.9871502372848,73.00340203599384,68.18991280559281,60.919795194254746,52.539074454909155,45.2363273329712,36.512876538571824,19.61106643951087,-2.586994016024741,-20.45694096459601,-31.79575758097021,-40.93723149733973,-52.760650070169255,-70.15653620419242,-89.93073644802476,-106.02021442647094,-119.74005473326264,-139.31726163918268,-159.2337151763293,-151.66808109096405,-99.10256614835976,-27.488877817083754,25.931404300500127,55.43024167743115,74.77520917091637,91.20204658745016,102.2973556709761,106.07563951212566,103.09199303691348,92.62176255970635,78.35258682061779,69.02266094501586,66.63807944356712,64.69409541578337,58.065819148403094,47.125096462649594,34.99497412069493,24.737761670160925,14.613131216641772,1.057802839709773,-14.554559819614342,-30.233458990470538,-45.595403923072816,-60.0215441609345,-73.2055561813118,-86.35776960825255,-100.97977163189094,-117.12025774876459,-136.31147077354984,-155.3186385380881,-152.62141262965025,-108.30615631535656,-38.94282105600416,18.913068900387444,53.74903815742457,75.37284363772119,88.79379401960973,95.155473518607,97.85510467917702,98.01208052411815,91.67548718138642,80.59419111805417,72.46968748116115,68.32099078317943,62.75353131322231,54.35384760255945,45.986814488558956,39.194417851045934,30.794435765623422,17.174920528273866,0.4132589058354274,-14.167973657452352,-25.783971847344134,-39.15208040476949,-56.56938048273333,-74.34553695620379,-88.0419208605433,-99.70097948026383,-116.70044129106586,-139.18189051922351,-150.1511200653904,-124.32717573609293,-61.2835014060399,5.191656684522529,46.674425363240246,65.26129095642521,75.96513282932946,85.7586361799391,93.08906032347643,93.5622451871711,85.18712173801215,72.16128519875016,62.203131560499486,58.179808730786405,55.7665517511127,50.716756027436,42.56404548484031,33.12210558244643,23.80124615413173,13.131235996248707,-2.0736955707146993,-20.788476868516398,-39.24281496342227,-57.19407083618753,-74.52276092619444,-86.92166590975044,-96.44508975371268,-113.63422288833343,-136.9945601453629,-144.92771087633193,-115.12371216098447,-54.738602029276514,3.6013191511463445,40.3586699310472,59.03508906737088,70.00231661662049,80.49987869692305,89.61190848747826,90.38457126695879,80.94629752755056,67.69748908525861,57.61980052067915,52.93259373264595,51.8156648744425,49.41022421228148,39.961784406107725,25.164727605337376,10.66298486319431,-2.9435046091043433,-16.670255164956675,-29.48329327798919,-43.258549471013055,-58.94919149465789,-73.41347386338643,-86.84278853102158,-100.71669489686306,-117.09474076816963,-137.54720137334013,-145.45669803214003,-113.2540214493201,-47.25389107771106,15.666802438039815,58.32890727594621,88.37529249052241,111.95576892363705,127.21681459827076,134.39519109711864,135.52414384959314,127.61652226537973,111.38417557945652,98.7562851579444,97.45972917925286,99.57751165651425,86.57010442390066,49.688594737878205,4.662621160076842,-27.374097244954676,-45.27862661869448,-60.24796266970042,-74.35928999348353,-83.79747257107627,-94.38898454003657,-113.48079101592812,-133.38619425377297,-142.60334435690686,-151.6617592406138,-174.6163518949416,-189.89319404814006,-158.75647565916262,-83.30181383774729,-7.6563387754747465,40.95628413690801,70.63372682851865,94.27019702523842,113.71567644492022,126.32505276702692,129.565933587278,121.83515289953803,106.79669606896684,92.6453012587538,83.66619198858066,77.31095562133352,70.36739555372536,61.549079913033594,49.23921870265138,34.74798291563817,20.03760738312085,5.583392131029314,-8.205794288192491,-22.026090137935505,-36.51946971910081,-53.13278579560955,-71.99326218078544,-88.36667251248402,-102.15465835440419,-122.93123813272898,-151.46612165430255,-165.31714297616764,-136.4720834246795,-70.04829976656283,-4.407068334310472,34.82763953772267,56.3113042300461,75.77449969061045,93.65172207165762,103.07564253797646,101.51469913315701,90.05998960838362,74.4842592758151,64.22713831378907,61.73803586196435,70.0,108.0,55.0
61.49616142052107,79.82366790180791,95.12966666445098,104.11459273188031,105.92283351788365,100.83459771339761,88.51120701675237,74.84199746648935,67.81879107870297,66.36880432450268,63.325252751875944,55.24322659137197,43.56879226163686,31.791569229388447,22.01583186224476,11.077472686407997,-3.3734373954697263,-19.106423062280207,-34.71823541907635,-49.899113767088146,-63.929806264889294,-76.92919747606521,-90.40241491033107,-105.483274776595,-122.24118027029284,-142.41270356180658,-158.0568055346869,-144.1894514951725,-89.145485340661,-19.83827916121474,31.015248367357362,60.94745401983303,80.06447171583763,91.24912267231414,96.14110670811148,98.3002957370637,96.97841735526578,88.6215353212371,77.69261824866288,71.07438532509416,67.05718433551624,60.51617053676571,51.80008947248478,43.9070946847803,37.16432101535557,27.424702449202268,12.419327173087144,-4.205285483027074,-17.66861026093203,-29.24823901213883,-43.838609303788616,-61.918938307347645,-78.80175151308684,-91.31118638395972,-103.79713490886913,-123.02880873064578,-144.71359656395128,-147.27320289101098,-108.86205256583378,-40.66505270906512,20.19979989601046,53.718253744575954,68.63330466489897,78.85256488384253,88.31024190858257,94.11493707821987,91.98753129115391,81.56997073794109,68.67329743524012,60.53693626655616,57.568324433854265,54.66847286789799,48.619721892986966,39.87622737340841,30.407964166899575,21.01575848002097,9.274263663160516,-7.302905461549662,-26.24512937973694,-44.41035562701662,-62.40647711457807,-78.77872730490559,-89.52286732462478,-100.282751786755,-120.3888133460454,-142.12670078111555,-140.6237189431769,-99.54803237299123,-36.27667134128118,16.586896467292966,47.1610659494347,62.56464712844763,72.941741336119,83.54862350269845,90.96462610063898,88.52773580176542,77.14276304031418,64.25504388921563,55.74405307250376,52.38469080131634,51.56302116544587,47.51265699314046,35.956570559268826,20.79438546900938,6.737307680105407,-6.944627028098825,-20.45915605645882,-33.221713156925595,-47.71157086767549,-63.34977291636433,-77.29685131622645,-90.78070451710914,-105.00209667770154,-122.81805600687441,-142.48104166379534,-140.96579287643675,-96.15337825460847,-27.316909462023137,29.968658710307924,67.83028334052855,95.86173865731853,117.32112738831367,129.97939480886527,135.37788729142412,134.35555190729428,123.40453751588602,106.76548889483344,97.26461589124308,98.45189992263798,98.17569542814,78.1069504127903,36.38278410311925,-6.437901943902111,-33.51757319112173,-49.53255484828701,-64.64725275521124,-77.53769613119202,-86.25398730211657,-99.02992405374923,-119.86193555089164,-137.1899485871982,-144.24871372363546,-156.99813487234871,-181.7168996308467,-186.73558885901002,-139.9041291827451,-59.47275267466714,9.272818499277838,50.72114078310848,77.8174508792228,100.42440827246308,118.17714660059244,128.334699920946,128.44086709120955,117.89596160000292,102.28822840524879,89.52995411106343,81.76049183801196,75.42237195698343,68.09306807335936,58.370684953579,45.146511330148186,30.496981835222186,15.803367411488509,1.5461908003878957,-12.160600383505228,-26.110731132067006,-41.01326956585933,-58.48968033342141,-77.20821633297513,-92.28506957310682,-107.03067499399783,-130.9252180437136,-158.45049472691966,-162.0309140016444,-119.75627652265761,-49.209716438775835,9.793946063548182,41.97422430158903,61.809171455747205,81.42339986428418,97.45991443098231,103.75129949880274,99.0919708164186,85.5625103098537,70.64190477218283,62.90372453388403,61.567449143215526,59.10841801833178,53.00943577654579,45.4833692758046,35.25632061184389,21.7024963569949,7.361713866621792,-6.059013816103756,-20.51805460797728,-38.28758829579796,-56.51121477433241,-71.5602849456081,-83.6435276278368,-94.42858473778365,-107.66465115724465,-128.82951111116577,-150.98454697324337,-145.98102578254927,-96.9091273538742,-29.85594863624184,19.922250331675404,48.01858775057367,68.20043442825333,85.1238792803204,94.68379870732159,97.12375949348366,96.46356208825623,92.9064406049452,84.84174910754818,75.16563180685637,68.1723175295323,63.195500356513065,54.40402150683287,40.39925887755145,26.615050424041314,14.751770751267355,1.262558947481691,-14.215517778540223,-28.60506044393848,-41.09042835145463,-55.78066487421859,-74.07655765819135,-90.44681654868175,-103.6551691098455,-121.61101382498165,-144.71435188648556,-153.1617595067243,-122.47394782210934,-59.2042629711553,1.7628959061516978,40.53994579706184,63.580939194641516,79.48657316777535,90.30415940389486,95.96468704845593,94.94703334307546,87.56537358055967,76.41867290733153,65.67503531624111,59.56161816954719,57.276002404792415,53.4401635288597,46.073051888312236,70.0,108.0,55.0
71.69644228615124,81.71711306996679,90.56714032724267,94.45079173249957,89.6756849173107,77.72955539272847,65.63941890404782,59.34341695227305,56.942754437860266,53.28105834858,46.28794310395212,37.13531930894833,27.72587108944639,18.038950179902074,4.96979732751444,-12.735014226758498,-31.598350064997277,-49.58182185108218,-67.52070289033065,-82.47917912887922,-92.08357220840617,-105.0345666127408,-127.41271605196584,-145.27004512660585,-132.75159586858774,-81.99908815347798,-18.868932734548135,27.584958749447207,52.68870637973035,65.70608676918998,75.96439976309291,86.36055921668671,91.43090144405198,85.87619160341187,73.2291348875821,61.21750619744584,54.315150450557,52.07299973605792,51.03893866810593,44.915308252514194,31.64776677327196,16.568691365565194,2.8296180819610246,-10.943719382017116,-24.14899848347788,-37.13320442153956,-52.286414556150035,-67.56165401496402,-81.15784777299524,-94.76071397546335,-109.59481696303814,-128.87607543141732,-145.67608705714431,-132.50948740852647,-76.92359891664744,-8.593127521373384,42.532508933304534,76.58128488489425,102.84213074872916,121.90843848823087,132.14073705970625,135.87515872997318,132.2954379299067,118.63655673165523,102.82342048388105,96.7723058668473,99.38181599528717,94.99943175217739,67.65483261011138,23.01923002896043,-16.04742897472991,-38.70235924177447,-53.820067120800836,-68.86344969369401,-80.27057788384714,-89.08039193036012,-104.4784956615057,-125.92463770852737,-139.9262768421488,-146.43515941040766,-163.64939490617064,-187.1971115257486,-178.84048364970724,-118.0343647029886,-36.885300839645396,23.714538849196416,59.34225981313539,84.70329634483645,106.17979109069532,122.00154865633355,129.50020632892523,126.3758917374511,113.51568760755814,98.06246164422696,86.87718877902046,79.95528997400194,73.44472483040319,65.62564412200601,54.865297712686065,40.948908150857115,26.246477716837493,11.606097303132549,-2.435433743806522,-16.141808732129494,-30.260971453248143,-45.74217844651418,-63.99191374131068,-82.05086003083476,-96.11235878645675,-112.78146110725345,-139.3981105102466,-163.41391503264506,-154.60631415720772,-100.50361698333415,-29.541476943886206,21.524277762478526,48.1337066515314,67.4146832980856,86.78069515648995,100.41155826780387,103.50239033324573,95.88573185657606,80.93160716097229,67.47594514193136,62.16773636975139,61.25716421046788,57.61524015378572,50.95882176314646,42.91366909986427,31.59957037771354,17.514748462653696,3.3968359129443204,-9.961768863533116,-25.340871734071047,-43.72223075140603,-61.24547889895563,-75.28366144231096,-86.80314602448587,-97.72866659569156,-112.85675709615147,-136.06406314822107,-153.75391983671355,-135.95729840502588,-77.47252344716935,-12.838899825019517,29.706243754261727,54.155860113701266,73.58314091553181,88.76918344917127,95.94624771261734,97.1242814727082,95.85440792915529,91.0039502403418,81.98881418972988,72.76042578060003,66.74493173164991,61.28625277000357,50.71010324933531,36.15825337628718,23.125256286631124,11.145181415270708,-3.1206008844441167,-18.616585449127133,-32.29287498956527,-44.900195777678,-60.85510109752418,-79.27681765808511,-94.3242106811367,-108.01203628104686,-128.24375905466056,-149.96068720813815,-148.85630614038465,-106.19104239529659,-39.85823600876048,15.282224613874702,48.27996669314959,68.74590305861398,83.10839173805904,92.52382279191887,96.40796498001538,93.37740007734142,84.5844333801201,73.04471947070078,63.33885785670727,58.71321040913638,56.54516833059593,51.605094661909696,43.50919650043149,33.09420521342792,20.071564451451568,5.336874212311494,-11.013801408664778,-29.370743798299955,-49.06275459552763,-68.52897746073938,-84.46797345726982,-95.73502288455767,-109.26115645568002,-128.20735772953475,-135.48379018989746,-108.36691518751353,-53.105269350116224,-0.31817920287493956,34.5384247384466,57.53525155517382,75.30766786684465,87.83718529895404,92.65112180612819,90.04146167007295,81.17270693231904,67.88517617383265,56.58655058012663,52.077810649015795,50.75666739165663,45.02545256445463,33.94549283288241,21.047773704404555,6.223077008607298,-12.746356083363365,-32.49375138766088,-48.28009791263005,-63.42974719925882,-81.43894454087491,-97.07534427893256,-110.41453791368856,-129.93830012664264,-148.7264500550807,-139.20511207773947,-89.98885378931524,-29.575037269480863,14.065623578244946,44.03173241364772,70.65262465417672,91.32691498473729,102.662786103349,107.81886208149744,106.4853805735521,97.12895450592961,84.96135570193981,75.64010486968486,69.30626726559383,61.99482544535333,51.06062155384427,37.71863266629828,25.106148385153656,14.264492819739157,1.0439580393667063,-16.883952641234686,-33.84483710797528,-46.383884925063306,70.0,108.0,55.0
129.29958975723426,113.65061222917232,99.80115058484571,97.10424275487446,99.74630313385306,89.73878287110281,55.61900622625884,10.224057303245022,-24.129025315665984,-43.28020519933,-58.20532931783626,-72.72925029654697,-82.70847394066683,-92.5341348584546,-110.5537330592638,-131.2587810472852,-141.85849372976386,-149.69579844965858,-171.11692301277643,-189.88683925634817,-166.1354589716024,-94.41345799155226,-16.32289303971433,35.94802453518483,67.19391611865633,91.31858461629717,111.46074800863725,125.13174369591177,129.7622004077824,123.44372953883942,108.92309455309757,94.24608735797264,84.61092293640152,78.1561707666511,71.36574001382812,62.90440139997025,51.06905191887282,36.70767834367331,21.99579100493279,7.467810483465866,-6.386650145562199,-20.15960340122215,-34.51182377761767,-50.739241805433295,-69.49885800236812,-86.46525589137242,-100.1417151510573,-119.5099610060237,-147.8054095154778,-165.51533044428464,-143.0744288720257,-79.78162010232975,-11.800219948019317,31.054826846327572,53.77813786245868,73.1304342126966,91.6348305192379,102.44987318572979,102.34607695077695,92.01837429195194,76.43745496796376,65.07509563767587,61.8251374634428,60.655159622631516,55.857474587603804,48.83341073015162,40.04322285106784,27.695379604168533,13.337944613121334,-0.47234510924347406,-14.047546130144259,-30.457304413718024,-49.07155608747564,-65.6579300203059,-78.80066603792913,-89.88892865902017,-101.3688897404852,-118.84676140271621,-142.99568276760624,-153.37808614972835,-122.20368701501006,-57.59563129633887,2.0745544383436467,37.92862582903919,59.987420947355886,78.63862039578308,91.69316375757205,96.69426521630032,96.96798685299822,94.93809342506589,88.71533065994714,79.12160322535983,70.6696377217793,65.39426007761307,58.89064352129722,46.646261892611115,32.10050195931942,19.74478349702507,7.307246434904418,-7.620124936107603,-22.838973352718654,-35.85394411539304,-49.034147100105656,-66.18465818955383,-84.12686007603718,-98.0309960530598,-113.01162874820972,-135.15292363891965,-153.28393522969168,-140.78546572320107,-87.79892361901713,-21.655927772602542,26.80252921143201,55.027311105462,73.43383318366556,86.32345215249181,94.29441654985582,96.24848208351553,91.31912359562567,81.3609305732305,69.82939774211665,61.471825558399125,58.095490227258665,55.533471102714174,49.50538028995116,40.76342816501781,29.578040183079633,15.94905364545668,0.8138161619618305,-16.126597714221685,-34.96761851175163,-54.82230832292965,-73.66627432432391,-88.04090807448208,-99.00136024192759,-114.50923914981317,-132.7260484933498,-131.6646210452742,-94.06328727459552,-36.35870674587874,11.549786058402754,41.97761395177068,63.10199428721792,79.58209220291535,90.08415844765945,92.57241448581314,88.11438211596912,77.57386786624853,64.09192422270873,54.562962885009576,51.73912208945231,49.76827759513771,42.2155515355668,30.30444206355981,17.09271990132635,1.1626672586715292,-18.672160229839797,-37.482065214557714,-52.42074982763262,-68.44843422376638,-86.4684757600152,-100.79156592849111,-115.21848149653418,-136.44893522618918,-150.13155070285586,-128.4155574168378,-71.93493990089411,-14.846025226254376,23.48213364798643,51.964640313297565,77.5302112837793,95.48507539639441,104.65635553614372,108.26683441066801,104.48870368901972,93.57929569618796,81.85072082208109,73.6429678639338,67.48282391456671,59.21854019087673,47.32590940834218,33.866639303407794,21.88814813883707,10.9354729558856,-3.7866675285506264,-22.20152555456866,-37.8280123522923,-49.777978509457554,-63.95550591697649,-81.98701679902737,-98.08052198702431,-112.18391169156017,-133.19882795668622,-156.21927545588662,-152.48303030972735,-105.31832271333485,-40.25920257600483,10.46695715616217,43.48097844736409,67.27389201061563,84.00552400287458,95.63803479956105,104.15390798079528,105.19031033783226,96.26315763899859,82.65981306401852,72.08061716089293,66.65575991817477,61.31849866095885,52.027674114574886,40.89571227916887,31.079436489430943,20.524293828763255,6.005909296037498,-10.098579591022759,-24.160823348950615,-36.54370105761979,-50.6686597390139,-66.83831441802113,-83.25393219856616,-99.28401722961979,-117.83873692877138,-141.37033088570516,-156.59338675097257,-136.90915044188816,-79.05662681836455,-15.921410217654254,27.15735071087606,52.77554768312522,69.66049243247579,83.03458657063774,94.92537737249097,99.81757463189422,93.90018817575128,83.21092877588048,73.6089599531347,66.07918544201935,60.65907874108214,56.113421983238055,49.44061083080402,39.60617261783246,28.783800287502277,16.79273781190243,-0.3695024369108616,-20.97576592649528,-38.52120325663467,-51.96361080527358,-65.29329430104679,-79.98689991716184,-93.6268759369568,70.0,108.0,55.0
61.65194285575344,59.68349823254452,53.93172835871519,46.58352400605384,36.842195621922045,23.618309485149865,9.225702124086293,-4.292567915191933,-18.403604881902822,-35.78827912111973,-54.22481072792807,-69.76210842165312,-82.14831155317977,-92.97565806241187,-105.52683761541795,-125.5574902019073,-148.87002169928908,-149.24506186044613,-105.41193874602408,-38.31041020530084,14.77785235293964,45.01770458232986,65.6452151150741,83.21455344789436,93.89687705159403,97.05439734060742,96.66405714130215,93.64301870013757,86.11584426561488,76.36691078874058,68.89629943769665,63.946378274980994,55.94520390808167,42.38243043068061,28.289490330256694,16.352302690226903,3.2223971201545982,-12.14581017200966,-26.838362307811153,-39.411587415229995,-53.559829459409954,-71.60258479978789,-88.54875032474699,-101.81281299718162,-118.73734575965099,-141.8598616570816,-153.93847282158688,-129.02906217100852,-68.29146324209442,-5.168524186763335,36.55377457368778,61.02285676182452,77.67590485182143,89.14034425000482,95.5636882124884,95.49021104263926,88.83524148244933,77.99082010341432,66.8996407647444,60.067572609724266,57.54951986808481,54.18043904188779,47.197347088259995,37.81310792601403,25.84605069110577,11.716206696983948,-3.86423462295616,-21.4043132735224,-40.65486042384005,-60.51354688286843,-78.40311624925866,-91.25889447907707,-102.71462062222047,-120.15160677356164,-135.61577902892842,-124.52109263656837,-77.97610841891576,-20.628278083117102,21.850671386166816,48.68398707145414,68.32285056708227,83.36367333281639,91.62910462821549,91.92730555207119,85.6626776870419,73.69345389359975,60.65903929358494,53.16850456531014,51.47658258868689,48.246474465438794,39.03106316319407,26.595182429875244,12.913859977852557,-4.282502065160041,-24.496870318549426,-42.073901643880745,-56.687398748144936,-73.70568696914819,-91.09736601852465,-104.47582213783978,-120.75900339169114,-142.45830512593344,-148.3628301050617,-114.43837295305528,-53.97521357640638,-1.913139442925463,32.12168978062017,59.75500721490952,83.73008039426108,98.86602969935018,106.24593473144522,108.0762857984415,101.84420069574071,89.98091599442266,79.07734741052585,71.83602321794267,65.4612826212403,56.11471884736443,43.45216989340396,30.161524273795475,18.797773438173653,7.253314578288416,-8.986641029177953,-27.234591386836545,-41.448072378575596,-53.39256328129645,-68.95653849889115,-87.08511704288993,-102.01258043271288,-117.25504423318033,-140.60240987160438,-159.32079400172728,-142.92791245406463,-86.54059605295444,-23.42800791243516,21.40142399633971,51.085019985202784,72.82655938475713,87.71124486290203,98.51016891327053,105.47212973508375,103.53194869981246,92.4441335714458,79.03657426804233,70.11473311685306,65.3921780532297,59.04808743426434,48.81086694810488,37.89205349715607,28.32459591481619,16.732222176521574,1.318820374195128,-14.45799465010393,-27.762352075041726,-40.342364658160605,-55.214208528602676,-71.61825262656924,-87.88899224106822,-104.15171491694335,-124.29414228500687,-147.76008717267936,-155.45659037458773,-123.09310939676469,-59.66617833584928,-1.1306328037028548,35.88300559079615,58.29204235240438,73.6837599034187,86.73042791990422,97.40485550539884,99.09881270339889,90.92693835057638,80.2308695999518,71.21521064050533,64.30874734468553,59.37302602288344,54.52737954298627,46.86009706298478,36.48110329302592,25.604708519355615,12.47608521886241,-6.271814098175256,-26.5577794754033,-42.68456637389119,-55.65688110796265,-69.47119786000606,-84.1467366319295,-97.23829653435024,-111.5633680644223,-133.54198309600721,-152.32922782957647,-138.5321328566398,-84.39171965558091,-19.699286644464873,29.235271163170278,59.5598252757967,78.21099189590642,92.38474205852557,103.67995861464784,106.73402657529802,98.33809531554391,83.93930320891714,71.31791533231244,62.746289237289496,57.88918680101417,56.45183434846342,53.58918001920527,44.010457965240086,31.471199497752988,18.808827942471176,2.055117048259807,-16.961443197445014,-32.53512005778941,-45.65593087690818,-59.37931581220461,-74.3916624628689,-89.93890027445944,-105.4571710529471,-125.02771140625578,-147.16672256877735,-146.4028484989979,-101.25952099890989,-33.12944407954935,22.33689530142024,54.69708948551792,71.29374562318155,80.63098156034312,86.70245144705902,88.7543872265142,83.29428171081125,70.76922580310016,59.94294856065201,55.659791763224916,51.432200503618546,43.12138235970706,33.98275890282406,24.84086520772403,13.73971942606623,1.3880520274754018,-12.184173595069211,-26.40078472751895,-41.674256998869836,-58.90167952634965,-73.54147446958696,-83.49293667845917,-97.74971165827216,-121.79424397888143,-136.14420903627772,-110.6244777927435,-48.90893819636113,70.0,108.0,55.0
44.71276671085847,34.63733057554981,21.929343236473734,7.376766601178747,-8.716121346597212,-26.827413071866086,-46.4029036919092,-66.05313046553192,-82.66751019487077,-94.31400114916113,-107.04236829560936,-125.7759605428585,-136.17625099277748,-114.14140751193929,-60.991683210833216,-6.349931685186235,30.797480793265795,54.843232343821136,73.1917070784028,86.57191419889607,92.48088982962913,90.7552195322872,82.69857559316354,69.70587501157644,57.734451610294684,52.32313632263369,51.05885351966365,46.164432721391385,35.58930374041554,22.82025721011023,8.42068486212853,-10.031226357387952,-30.054846924620698,-46.36265134659683,-61.22510725115914,-79.02505133606972,-95.27922844855155,-108.42561834388073,-126.94584432605086,-147.19833255517094,-142.96245372952305,-98.06926956346321,-36.94476114541034,9.35184235391851,40.3276004361423,67.30144364796428,89.12630472689867,101.5906387924424,107.42849080093649,107.16103188865604,98.69858748075781,86.49482084838255,76.65069985040137,70.10868723876432,63.16215693846418,52.71439271122307,39.523862052782796,26.653025275922996,15.719762202143691,3.116036209868142,-14.385100053556872,-31.86242531900215,-44.84460151210738,-57.36741318702329,-74.2180093596481,-91.83610168482639,-105.91726298180674,-123.16150335873297,-147.78417979021225,-159.29773953643988,-129.71212622934755,-67.29625220921412,-8.352121257687111,31.0699051348962,58.0867393813581,77.77525171089873,91.09320570615476,101.11583295456644,106.00347668236768,101.05623436767526,88.43160648238117,75.8410050191513,68.54486311159263,63.96100998336006,56.40908469633629,45.5456724447515,35.05169527925014,25.38467739574702,12.576363714243877,-3.3906801311260213,-18.575341316651365,-31.290452029494663,-44.36960741049485,-59.88817751374979,-76.37957126809532,-92.4882343600224,-109.36080941178854,-131.17134527468838,-152.90533317929558,-150.71089500897955,-106.45889628434884,-40.868282145992495,11.686622279636453,43.4188747786809,63.23461895562371,77.53753426501775,90.2931168851138,99.0842867345019,97.48521926090531,87.78196026651212,77.4149714579943,68.99628615076561,62.715639870354664,58.106837781617294,52.680307835376325,44.03329198899234,33.347841861828385,22.26096207252014,7.619947200355872,-12.312901970930316,-31.736410063928155,-46.56124497968726,-59.457368933351695,-73.7417094592086,-88.13629085980527,-100.90122006343063,-117.08542950576677,-140.47946773841306,-152.85829674390695,-126.19093002903728,-65.15802339034816,-3.4603259282127383,39.66648889991626,65.78814113623802,82.53702208992897,96.0973098101494,105.69019343636153,105.40454453055798,94.38995123701925,79.89432129972934,68.44652298211658,60.95087168875159,57.211445006780686,56.119759242339875,51.51590021612609,40.39177477895333,27.963113962752374,14.506166454445498,-3.5168845662329082,-21.912402545809726,-36.40351890406916,-49.490937581234604,-63.594898073346734,-78.89184772108688,-94.3559921109298,-110.43034407831907,-131.822319321088,-150.8266278081158,-137.82780889122972,-82.11407910358487,-14.778849814637047,33.87753042149031,60.676782154703375,74.46297822591605,82.67155127095644,87.84409301974544,88.0876892825362,80.13145597692312,67.01914271827494,58.174811556177985,54.79843142074058,49.37675752251416,40.405457634513546,31.457086247706044,21.838465253368568,10.26744524520905,-2.3992908538911943,-16.273018657631507,-30.60199067258761,-46.5512490490752,-63.66608596228943,-76.69384896800048,-86.62341832271862,-103.99179815455922,-128.44981247763167,-133.64816957040568,-95.12857789426836,-29.65987214495394,23.912304241960836,52.39530675109973,69.92119332636803,85.93383710623067,96.72781230244969,97.93384100896736,90.36488408822342,79.91889584382882,72.29058239739743,65.82037478012866,57.663707235289536,49.03477709368189,40.45439768713257,31.66491895916281,20.66206431987784,3.4992324242950343,-16.363539658985076,-32.12997390390726,-46.06851902304001,-62.622872862084044,-79.8845489302071,-94.91373582487579,-109.5777779164819,-130.17282584270475,-153.58337715367804,-153.77733888309865,-109.97935025746916,-43.37439428945177,9.653967985925288,42.37530074866476,66.22680459793712,83.9508624087426,95.37155885646784,103.95072662999664,106.61120316382545,97.05344545542779,80.1175976215313,68.14927331932255,63.23232243734832,56.588740195316404,46.57606911735202,39.412062147478295,32.897856004184334,19.138390382109023,-0.3985090158668122,-19.647214305296906,-37.34318924663922,-55.184146575328626,-73.82878027162214,-91.19867550679123,-107.47756914591794,-127.61925638679077,-149.42435654502347,-148.68086386277858,-104.73887736063499,-38.8960356965596,13.186091135523501,44.623825798009136,66.9094294127185,85.57405428028089,99.29354150059923,107.09516774674952,70.0,108.0,55.0
-48.196033495105546,-61.77619418072438,-79.55591859469331,-96.19151932607339,-110.08812318089427,-129.8838209618133,-153.95759931763334,-155.5519842792043,-113.52484105182295,-48.535580210405065,4.920063804037391,39.74920839754991,64.51043129138853,82.15610469622807,94.24694595999877,103.31926771659131,105.65617803264823,97.89928189648762,84.4389315018894,73.14828118763889,67.2264326356995,62.23553808199809,53.46338883429951,42.33492206452014,32.32509428795347,22.14238512900028,8.127687218363938,-8.017738592176011,-22.44793088397688,-34.857074816383836,-48.63174953247772,-64.63668768229927,-81.09773349844839,-97.11414373838838,-115.04021106771786,-138.19806720698872,-156.0389383999588,-142.13069382285346,-87.93971330135973,-23.394331889565716,22.65650197600711,50.00571487440217,67.71671652829673,81.31036922614244,93.56831623789044,99.81733757879121,95.15482220042766,84.6326877186029,74.77046907940195,66.95736003726137,61.279002779465074,56.77467798493779,50.53353316730404,41.02924513218661,30.226061660547156,18.614025533110407,2.2509050962110946,-18.291208403050867,-36.47750687828786,-50.27272776185289,-63.41414904728134,-78.02856310540429,-91.93284517624589,-104.83591042194396,-123.38554844428229,-146.60240466535592,-149.8640257190032,-110.74463648450754,-46.01876985833985,11.08262911793554,48.6512270686259,71.24129812738232,86.64784320256885,99.52290624630491,106.83541625770623,103.11293758140216,90.16209880672494,76.15126948879573,65.90632045179983,59.466116714301,56.804937311093724,55.4731208521775,48.81757456541083,36.71762915125989,24.40773036333183,9.745019250750534,-9.117974730510326,-26.474238859933873,-40.166453892825,-53.42601207136484,-67.91742331179752,-83.40349265728484,-98.77198725057977,-115.92285705332239,-138.62622435582236,-151.67758673573292,-125.33212145176196,-62.03714992203658,1.7931714631696825,43.53073209041473,65.58618115870776,77.20113001460847,84.48804245092282,88.5891387420628,86.69152747765636,76.47555709417291,63.6956284391516,56.93978454726958,53.70477305748909,46.98328401317954,37.73783815988246,28.876076476035184,18.648859682428117,6.722912798941419,-6.305307320673102,-20.376914787144973,-34.946562507772725,-51.57597529606639,-68.04350802082284,-79.49644392038776,-90.44851424308084,-111.03742129852247,-133.50669276834876,-127.16906138037726,-77.20955145561656,-11.62444733602794,34.34203214818807,57.84888999286914,74.71944554182087,89.8614346276169,98.13197771067492,96.46878918590498,87.30372317135757,77.3466638238224,70.51536800334316,63.62272536574808,55.15636033083196,46.564873073695075,37.95511032653816,28.907461382546384,16.39930419950839,-2.356631922124559,-21.42845217986399,-36.06215558399182,-50.550955409455426,-67.725625502969,-84.48560738655601,-98.94954232473421,-114.67482913931532,-137.40355163351043,-157.49753089542375,-145.5676000930096,-91.22434645098103,-25.660526965973116,20.69719203850751,49.827272599074334,72.07536842809677,87.75021693662721,98.07744437597752,105.69012107611057,105.17205383483956,92.36679256473009,75.73386488380771,66.33216208999809,61.82575402190934,53.780167146190365,44.04264105664994,37.87496438406964,29.827188939650892,13.77857583293371,-6.149323345878898,-24.86333444359457,-42.4003318566177,-60.545707746353294,-79.07656426236258,-95.84952832805082,-112.6792284330123,-134.39171647772733,-152.97936605898008,-140.34025276395474,-86.12842426473387,-21.467318626052084,23.94242272264683,51.55117621710354,72.68369168460828,90.1184316439747,102.19862912577352,107.90398713291198,103.02217094310666,86.96448057028087,68.96275346826215,57.83940983539141,53.446166314284795,48.64129457646826,38.62856032383918,26.348969035778673,13.695876732155735,-2.2589052211728555,-21.72111809485496,-39.99609179751428,-54.97475316588122,-69.57576578470508,-83.63744085849802,-96.84145322757287,-115.8007338430274,-140.9003596765966,-151.8784570258094,-124.83387916407688,-67.10697235569513,-9.081779761531445,34.13213929765978,63.24650129237829,80.59523355572621,91.10972669345435,98.36906227760487,99.25662537224989,90.94613344829426,78.82644882821455,69.55760681220315,63.1889653808727,59.4803486272894,57.91438401439883,51.378213755275276,35.354804220035284,15.688694979539472,0.6939004732789081,-10.70131028595972,-25.463130861113676,-45.17194080805412,-65.24829919486749,-81.38392808535603,-95.15700741442191,-114.13577149948334,-138.9355390003356,-147.5861659361591,-113.80876783642103,-49.268628383775805,7.486400467802323,40.78440515374473,60.99595030865651,77.53838274439042,90.11379043392289,92.49369705618875,82.72478434600819,69.31138126042435,60.00702283602989,54.049730238272225,47.54135306368384,39.054194103960675,29.343694809493986,70.0,108.0,55.0
-95.57819452172994,-109.28270184835836,-130.2744360840746,-151.068218084221,-143.0030361800122,-93.04273108555756,-27.71051812021967,23.89442647150352,56.37200608441673,76.11213801347269,90.60810672264286,102.50456478128976,107.00263565797002,99.99796100620762,85.87926935149497,72.75983756297366,63.67477832755345,58.30957003749257,56.557555704959285,54.32452935942759,45.61117590989492,33.10557916877331,20.65096207701553,4.558738747524515,-14.554053408787507,-30.686943742158647,-43.9142389443353,-57.4740207295357,-72.33197778826946,-87.88770800805075,-103.29366001848086,-122.02300441895007,-144.7785943162326,-148.97906794773522,-109.4714657369551,-42.06000832568949,16.33472390683895,51.512931816184505,69.64983627382996,79.61090175216451,86.06636376784877,88.83705808999844,84.53537976025763,72.5729591161474,60.97374919549463,56.033912160783046,52.24478304841988,44.36686214691386,35.15231942514536,26.157043293664987,15.313566945890404,3.0949106329455733,-10.312337900501396,-24.491889497087605,-39.497842047387124,-56.617324118935734,-71.92720848890868,-82.19609757972384,-95.20781814703481,-118.44042807392955,-136.04758967842514,-116.70068034906178,-57.93751695161998,4.5032064581391715,42.763789851228296,62.85857857628772,79.44328613413008,93.19021444376895,98.67117139701085,94.34348990631263,84.19294433494517,75.1028788693107,68.70930925387835,61.26972786043419,52.65675025888553,44.08946308198507,35.43967296972809,25.874692169061905,11.529268210536465,-8.226041375462179,-26.041219726860646,-40.00154675007637,-55.30982514569812,-72.77797822769864,-88.85901042948534,-103.05752233683397,-120.4605693610668,-144.59540604554624,-158.60571911693785,-133.4681174783789,-71.55579293115817,-9.824552157848533,30.263641844018068,56.805971780543935,77.35131267177948,91.07831723732131,100.63607441628466,106.744170935174,102.60195053356966,87.33534730010565,72.06783669236432,64.97445903897884,60.02848864272993,50.79835984631548,41.9098419193266,36.18282725111637,25.997451343997753,8.097220109313561,-11.75649356732712,-29.971814832682757,-47.52299612706809,-65.96069612857039,-84.1442901497598,-100.47118118224715,-118.36799317355529,-141.09129493039535,-153.80515393737642,-128.1756474117525,-66.6792679780661,-5.905845964831668,33.16419412522971,58.01562362082444,78.17738484395531,94.19555225986974,104.60972099337506,107.80583236585511,99.25873221764287,81.44926098355853,64.86121393296881,56.119109224473995,52.45768590543016,46.26490093138757,35.1097744152148,22.820338637423475,9.551471650522686,-7.676451125716413,-27.34561871802908,-44.57077872524836,-59.12365983572259,-73.81975434940632,-87.34977812335903,-101.40107927683165,-122.91208234526638,-146.8428320912513,-148.43349075652307,-110.02364578209357,-49.21606199143306,5.005426886262546,43.897887666585945,69.31231050692975,84.07389829047635,93.55691363055507,99.52517168261873,97.715964628403,87.44890287743476,75.73755804454518,67.50559967454488,61.76822326726908,59.01724370287959,56.90986072810619,47.65115150084059,29.59601253829111,10.69726096599684,-2.654996850310064,-14.393634452839379,-30.77948437679772,-51.1939750262965,-70.38666704288136,-85.34036075370794,-99.7614717590226,-121.2084750808841,-144.56592100006637,-142.6294652057075,-96.6498834110804,-30.66094064826963,19.300686548522194,47.365407851395894,65.99769901322817,81.8008481940802,92.12982477124909,90.70400869815167,78.72442791551758,66.1038338277877,58.10622856038357,52.37744970589603,45.24801471121806,36.37357363221287,26.28605773234382,14.881536293256438,2.474387679646546,-12.087459325669569,-30.23944242026346,-49.55830902281764,-65.88492828137275,-79.05886706412714,-93.82526056479128,-115.84312466104986,-139.14576843837318,-137.46421556694068,-92.77209994394866,-26.023423149608345,28.38660077393753,58.917041384724605,74.69794131666363,86.68126461378044,97.98812603767358,105.03160004659219,100.60144538484644,86.42968264661587,73.58711153164319,66.78045457744794,61.51650046587724,54.29502546154042,45.81171280028675,35.47410274568704,20.218569239236096,-0.648266703480272,-22.984613728072908,-40.65686900888415,-54.249362801604605,-69.87955007574425,-89.09371300580332,-108.65971591107763,-129.38839786418683,-153.28454003415104,-165.30974626731083,-136.85247415785966,-68.95387499734385,-1.1405283678920555,39.02727530143952,60.54586738754305,80.00734327359505,97.90358033756546,107.61164681918125,106.8717902656741,96.78377177074209,83.17249233794317,72.13545627522302,64.08533269654491,57.731354361913056,50.34226670427014,40.01027761020446,27.2525997231261,10.97560061658551,-8.707624019613693,-27.345751904703086,-42.59092234081107,-57.433029060692505,-74.51260613248454,-93.29169307211964,70.0,108.0,55.0
-38.43605622017913,18.33750322592091,49.622554404464395,67.7024684612718,83.96337866003313,95.79561162662192,98.3553049259789,91.70538638314312,81.21103273579078,73.1348057001672,66.77250547544796,58.814290425191174,50.17464522114398,41.60368555312583,32.87802272174387,22.427198798083584,6.125733703752109,-13.879145270987467,-30.27162382854849,-44.09779073868223,-60.28408254107139,-77.68739377264522,-93.03565987028063,-107.42270169060053,-126.96475129815892,-151.0676037058977,-156.2010832089457,-118.00915879307504,-52.051976569103395,3.965072375890211,38.73927400057147,63.35820019065313,82.0097916120099,94.07004566616213,102.98122683563344,106.89455199988647,99.00307656681257,82.3241465115586,69.20696187874715,63.79489371444608,57.77324409613255,47.85932174111137,40.14265316065979,34.07237043554141,21.44681066179457,2.283058179327047,-17.19493342696858,-35.02084828459757,-52.74255101328548,-71.36342238007776,-89.01370892663807,-105.20874078766894,-124.59076690112416,-147.10050611195868,-151.18447179735512,-112.73173444046525,-47.44271770058781,7.619899339953519,41.21247429179687,64.1626054564981,83.33087761924115,97.79438126385085,106.46118829941672,106.66640867177722,94.65880733741591,76.0694094111812,61.48256411891957,54.86118795406411,51.21627407310789,43.4182060432526,31.53552086507823,19.237007786824645,5.0376646121128745,-13.32843465944574,-32.72450767878248,-48.893099691531575,-63.33321771915659,-77.94129259375819,-91.04731152195119,-106.66831631676543,-130.38953756695827,-150.88457284692763,-141.35816834889758,-93.26421296175587,-32.06121939829866,17.75702768866679,52.54732792996006,74.457260229129,87.1394852684394,95.76552059477648,100.00161937935718,95.4037764371784,83.85104806956781,72.99501614735428,65.63179934763485,60.61723850069354,58.66313470971106,55.256900019288494,43.11381372875144,23.77824200023172,6.254883417268421,-5.854720008481041,-18.530788048993887,-36.46519993316821,-57.096045540883445,-75.12520718458643,-89.21054745765457,-105.03547911973,-128.62597017728925,-148.0475804508426,-133.63785944787008,-77.73540136331081,-13.651821068495881,29.165144789791622,53.223499156922536,70.82313586617869,85.63939636168881,93.1075585942221,87.9573033211403,74.71686418620936,63.33755868356841,56.403716540282346,50.555368196154966,42.80890014654797,33.59735868001533,23.111419915598646,11.405329327627406,-1.4110051087378412,-16.979985780707352,-35.909779647670774,-54.69592506342828,-69.88404720033822,-82.86434012417403,-99.32806249375601,-123.28956553603717,-142.60003717289723,-128.7950076024562,-74.04336794721274,-7.975268690030907,39.493665339914884,64.38528486099655,78.2701654587079,90.05150246307174,100.78688060536618,105.13973555774962,97.06177504767689,82.145735933938,71.09814620807336,65.36045912720543,59.640252904582084,51.92784391481865,43.14044659494609,31.684803740592542,14.679500866422412,-7.253694277066985,-28.729936641172138,-44.749886217179096,-58.33193318406203,-75.19328456421876,-94.8064664749467,-114.33696572077076,-136.14740852671721,-159.27541317468345,-162.1497224657473,-119.94761201141162,-47.42688285215223,13.47405269062418,46.22965090591024,66.02980478042144,85.66398556285985,101.74066694957675,108.4789404850376,104.76416775680804,92.85562263270171,79.60675573013775,69.56361158232683,62.14893199713697,55.85888749531049,47.64078499360432,36.57945485484609,22.98841966154267,5.5007412348405635,-14.42216740781999,-32.03172172830783,-46.74455192246525,-62.11301902447987,-79.8285071521575,-98.87729793834669,-119.21434856968295,-141.4446001452428,-154.9189656592218,-136.04742582409636,-80.72781787485114,-16.764890020543046,31.38945088402509,60.858008616138015,79.59821214677568,94.27581457038129,103.90642072181635,103.59426507460824,92.67171147012886,78.51475089826316,70.18305314598592,67.83382935570515,63.35321353969158,53.20786875309944,41.39126831775658,30.813806144675986,19.655314612781318,4.585817624578553,-13.403699060739875,-30.726851265626475,-47.27359084736485,-63.80147856201231,-80.03601246566225,-97.87086600410514,-120.44564641347587,-147.8409463488682,-167.08250274357272,-149.33201267748083,-86.87268366668097,-15.302255739383488,32.81230521757104,59.30828594802975,78.64329298079203,95.43682992426912,105.36364747674243,104.29392570514082,95.36159514592075,86.08440435545435,78.59817278787298,71.58785983636012,64.28394234035932,54.95595837458138,43.43110293398576,31.942000237765214,19.55067272909207,3.172723630762961,-15.825484889258984,-33.35377144828656,-48.76122191938565,-64.89141064928144,-81.77551453129799,-97.31650166894978,-115.2031778828585,-140.21217728282633,-156.36401029242705,-131.96880252204318,-66.53731885324758,1.1827570241748384,70.0,108.0,55.0
107.63413867918246,104.42253534043458,89.47295569744891,71.07784343525434,58.83178183469405,53.87177008041201,49.566121077241746,40.20043827410958,27.977984397274508,15.499880099172854,0.13034170265291534,-19.0787286477684,-37.78043768185905,-53.068476611155894,-67.60190319299932,-81.88239377017317,-94.92735278891634,-112.73839114802504,-137.73505192706276,-152.28992555261635,-130.77791019248073,-75.44288013740004,-16.033316656489013,29.242083885682433,60.112882199490436,78.81161374463422,89.91028940024837,97.64760198256292,99.68564433295968,92.46150406806235,80.35758000724778,70.57821965812845,63.918606408434954,59.77122338664916,58.21632952318707,52.802604105188365,37.91560827955037,18.15592498649889,2.3446092739054634,-9.11949430068455,-23.162496476057086,-42.39556246116503,-62.75134525490252,-79.48370616025109,-93.20666259311753,-111.08713007989674,-135.8572356047446,-148.54998142809495,-120.83547734218104,-58.19177317298955,1.3193498286403151,37.41690496602596,58.615817780166005,75.47046971541431,88.87698239390002,92.95202848813788,84.48840209431488,70.93446265029144,60.97731503919635,54.792434751444006,48.53848557507403,40.26019989513027,30.712906064518087,19.830880888451023,7.854600626842841,-5.531880846976958,-22.18855189851476,-41.56819244176427,-59.49569903718383,-73.66894080943487,-86.96079768760829,-105.56613690269626,-130.5027438672946,-143.13760721745868,-116.39969226914094,-54.39127909458013,8.316880336603557,48.612136925085686,68.96911409831762,81.72004177155699,93.37522873501932,103.07382683542811,104.10883153679114,92.911610663298,78.26403245779106,69.10344612953295,63.90634203496263,57.57565446211616,49.49489161907373,40.25817757122987,27.404858452695755,8.695022922219632,-13.826385123218955,-33.95065470023646,-48.618483588874106,-62.74422017663667,-80.75553994766372,-100.46282036465989,-120.2099084818793,-143.18377725985553,-163.63725782830485,-154.9063782921215,-100.28971506861582,-27.092429697728182,25.494609307288766,52.39474039717507,71.63426921438007,91.02402303932563,104.75910627646726,108.46260530282024,101.92762192569921,88.83688027877696,76.35239074255787,67.20322003109776,60.329533860637525,53.802209144573894,44.69225940211703,32.9586129169324,18.376203224840907,-0.210052412519859,-19.90563446434279,-36.44410841004243,-50.970923915713335,-67.0112958027074,-85.2467437256636,-104.55143606889624,-125.5584554302252,-147.20845647818368,-153.68326367903128,-122.97601954716328,-61.6508528855877,-0.7461035574171747,41.55833977344221,66.96550520982666,84.1507001500902,97.78893014040946,105.01271500529735,101.34137409838627,88.4470332775563,75.26259130329004,69.19361622256687,67.09898200959132,60.907309654377144,49.747388515232956,38.206321169676094,27.82245493318656,15.774395991705084,-0.4918521525738097,-18.563295493012745,-35.51572813085737,-52.0755672122292,-68.4914480036654,-84.88218730089528,-103.79257692703302,-128.0667627982192,-155.35727327839896,-166.9634832757266,-134.91764957809724,-65.10786086533479,1.5236204681912657,41.995014138466345,65.17495491322697,83.86060249858845,99.26692592505768,106.22491787098292,102.1670044577961,92.48385384528208,83.79560784512279,76.55873016898569,69.56267032932428,61.876808726019675,51.75690985311573,40.049467229645906,28.61556408909285,15.282617684454756,-2.237781690876467,-21.17262781137495,-37.91573560763328,-53.24660514305702,-69.81214109670547,-86.40130089161079,-101.89413094235772,-121.82930247077712,-147.22801859776743,-154.4900496209982,-115.97086164614434,-45.31220127038035,16.19367261522139,49.741525641972274,65.4879700900661,77.97441890940021,91.11087863980634,98.1895465167164,92.44765971508453,77.2601686929596,62.980136745608796,54.511599890743604,48.79754519812926,43.62030218934123,38.721277411186435,30.14047123711038,15.394636243429868,-0.3293134978927722,-13.68641437972543,-29.934319507702334,-51.16745485590189,-70.27905905815736,-84.20691742060087,-99.70422332523306,-121.84038926122454,-141.17315561764443,-132.44599328082802,-81.32418403561859,-12.223040727210837,39.52672238860416,67.02499568152547,82.34453082623904,91.4383853665974,93.8996538136361,91.61734718577817,86.8687626645833,78.77552735841597,65.4703606571637,51.247167271574114,43.65469553875825,40.37815034431633,32.253654334244274,17.692438790821758,3.8644611043084054,-7.858681198410347,-23.82707386192911,-45.60324418805851,-67.34708178229312,-83.46030959340332,-97.96177932786816,-122.49458289808534,-154.1910623017091,-162.8915010684806,-122.67132120878712,-50.29579074313686,14.338105959433035,53.99733381145352,76.17136828651768,90.09159878252521,99.85030750745295,104.71705556083177,101.10501280312215,90.64310862824132,79.17328505615902,68.00348991842218,70.0,108.0,55.0
27.710657554410933,16.460894949778673,4.203653755684082,-9.944202912225881,-27.65616446973958,-47.08956375687402,-63.94513194810011,-77.35437717553225,-91.52197730831679,-112.48161757660557,-136.7853773512817,-140.14141435853534,-100.8142076136538,-34.79725749399925,22.55045056579845,56.002087589236766,72.97606330429021,85.1206422958245,96.58143326065093,104.62483467145611,101.94644611668997,88.47873782809698,74.92673880225976,67.46308171796395,62.31379303473186,55.35750180233725,46.99525268947991,37.07136447053039,22.60580335576173,2.357444722703383,-20.178081868833733,-38.64810491297963,-52.447279548854894,-67.54060680703998,-86.45219225903897,-106.07237678499902,-126.40254409156236,-150.19521897069905,-165.5117000577471,-143.46918272301372,-78.99061855101505,-8.76607924886438,35.20396485818474,58.02198044509254,77.35849924177502,95.88153170876106,106.9141335234685,107.57086885568371,98.50668732320153,84.911546790294,73.40243612003137,65.02952084457091,58.557607777677894,51.496989688920955,41.531305754757305,29.11414781379573,13.393787972629823,-6.028927774823037,-25.07620429524019,-40.67339711999338,-55.348735875604554,-72.10683597893554,-90.73875130415998,-110.36218087238635,-132.06980285945218,-151.78601240744572,-149.11314633851794,-107.15024291225814,-42.73826720663358,13.580726278938517,50.27604991351611,72.41803202331495,88.4651471227753,100.77799200209209,105.16474744824299,98.26111687367057,84.20679529934269,72.68810272776358,68.57514548523828,65.95953874949159,58.00421340660478,46.28514970649457,35.149054284433625,24.692855878942204,11.497973574189155,-5.722848543301387,-23.593859120700383,-40.283639350667045,-56.867550543061604,-73.15831734158841,-89.9358695142268,-110.1869935008814,-136.05316597875697,-161.67943037449638,-162.93605632876495,-117.0560753208923,-43.779889459994685,15.919494671022996,49.73144746874927,70.75932506650452,88.84469539132377,102.37569709841281,106.10004447797766,99.56178753029934,89.74500289035164,81.63280519357559,74.53314017280937,67.49340735400439,59.243093823331755,48.413291465723404,36.72827197522155,25.133355782441726,10.619894678433507,-7.770453381853387,-26.301520664529196,-42.34226232482403,-57.87229464235053,-74.7390354243948,-90.8743148779874,-106.85326808863749,-129.1143713536625,-152.79384508435948,-148.45748397414656,-97.07149986216982,-25.053732319230356,28.658805625207034,55.362150588563566,69.00789223692725,81.85790314802436,94.19587536500119,97.92914073953597,88.60027584133626,72.6292858385287,59.985194528017054,52.760598902680975,47.23603134278273,42.26506764330106,36.86195459588139,26.4037071203274,10.640730892254028,-4.319757990474104,-17.78625727468864,-35.76936430837964,-57.25359034026228,-74.66630724865794,-88.13417745639657,-105.48015888968524,-128.62399818351514,-142.75101652209935,-121.69087008148966,-61.370426235942,5.467731562093271,49.5132715172149,72.2102341563583,85.61782508214225,92.81167331741855,93.58574700055371,90.47093576982834,84.9907382769565,75.44968845802359,61.0559961368434,48.22406880823892,42.66397152957392,38.84587599052119,28.451377649131484,13.33166312783452,0.5015977991377129,-11.792005674153575,-29.68645828232402,-52.227045194679654,-72.64880850243395,-87.31948023815349,-103.62875206083392,-131.81995983861674,-160.75111137957842,-156.47466285769846,-103.26901318266243,-29.398563677890643,28.28295742806088,61.68427519524167,80.78096418293174,93.26646897560704,101.92388883475464,104.63427686876928,98.51165459969303,87.26815406008325,75.94385794685776,64.87492921777365,55.69227467390605,47.92135569623752,36.022603747308594,18.74937721123621,1.4296694315348215,-12.252097608593003,-24.85588384513516,-40.501410746460806,-59.824285641120625,-79.42377680461378,-96.22138270629826,-114.81368105446951,-141.23203943754493,-163.02842236681073,-149.3945770380457,-91.59024129622406,-21.92927849831489,29.837605230452514,62.57912173962585,85.16135895834927,100.5346367789082,108.33115264810873,108.22798044733916,99.88324421420916,86.82574391244219,75.98560625979285,69.0993460017359,62.89111904676259,55.92215920762463,47.17064312699412,34.05080240496007,16.626827211399412,-2.5653811365359838,-22.354804583989658,-42.18843266370499,-60.1351028287479,-75.73312416495077,-90.28137927201486,-105.32460647034954,-125.06400855614245,-151.18748394202305,-166.22612854155744,-138.5409945579848,-67.33282855244573,7.216374053574124,54.96253680526622,79.01259412359519,93.4200065609942,105.02781194730373,110.95528746747704,104.40966584112564,87.67567007673104,73.48934734064726,67.4203287260255,62.014995126477004,52.119011157813915,42.19212834279941,35.90444741991571,29.023487131222304,14.791998485033163,-6.640092796490911,-28.869511567175422,70.0,108.0,55.0
-96.29318555603764,-116.36763527940458,-138.55496685125186,-154.4934187834028,-140.98182698075223,-89.35217532410792,-24.66957817184372,26.162520437835425,57.75865341546496,77.41050709281026,92.51672610800836,103.0995146288283,104.31828130154145,94.53951138399486,80.21081983325114,70.82158306204447,68.08515246543404,64.30281861426766,54.77031683339932,42.906629903340864,32.17584333078327,21.31878245006494,6.842824260166477,-10.990431589004634,-28.498838273089433,-45.063225257492476,-61.62435087166626,-77.84832737794008,-95.28341466382517,-117.0905913972912,-144.1642665809821,-166.00121858840734,-154.62003282634765,-96.74105016520451,-23.836666255550742,27.970963424432323,56.449252986944586,76.18490970388136,93.46757881302608,104.63568938199454,105.05188454562402,96.70576642702592,87.19543179540425,79.54595742429919,72.51671734161559,65.3296500653863,56.36329018692632,45.00414480248509,33.452139810138284,21.38960349826415,5.593015748321734,-13.304444675802829,-31.18340846143885,-46.727286335560144,-62.647635043387005,-79.58674862716524,-95.27378011623931,-112.40282795905988,-136.73530905210535,-155.9619146277488,-138.1209283965279,-76.36425468733725,-6.578369249418806,38.71623927878941,59.919645641698786,72.54832160957899,85.76192656786436,96.53448226605595,96.49326332596232,84.17059924468805,68.34237258554334,57.487620994302546,51.12037654829199,45.716825614522904,40.91496466709383,34.54522576156091,22.164908625551675,6.0007120524718,-8.122020157500401,-22.32685720003273,-41.95550538884683,-62.93192093658586,-78.66170212666513,-92.42775621237163,-111.8559329230472,-134.76361157688385,-141.23679188535496,-107.35218989165506,-40.91513509724666,21.00431498892408,57.656501536666255,76.7089207243928,88.38763822388623,93.62008938685156,92.95772210116316,89.15205378277166,82.7746174371292,71.65523875384018,56.77152789346993,45.90311093188917,41.84147611577918,36.67889071771645,24.20952920874184,9.242697490062499,-2.7823216934561428,-16.254002126818275,-35.97542085138725,-58.65602277919495,-77.38500427866312,-91.27570850864568,-110.44438255706959,-141.4036959223019,-164.4102549790468,-145.61856229384537,-82.08832602503067,-10.095175056090596,40.082180767589364,68.21631470756378,84.8646932212851,96.15862461104591,103.51255980326509,103.75541879928916,95.47927024509083,83.93754898205185,72.71013359748575,61.917165118163176,53.516164574588565,45.120662643781806,31.422675015926416,13.474450642089948,-2.8869016556732245,-15.791285069256128,-28.94933629681964,-45.79445977385464,-65.66995398399544,-84.54495904697824,-101.00494680866498,-121.69149108420187,-149.23023397457138,-163.98153305637132,-136.35268500546744,-70.85981954658445,-4.6076174195964885,40.81985062143387,69.88434171105163,90.35289326512661,103.57737841546528,109.1408769778126,106.62841911311068,96.27994905493487,83.23646666025132,73.7060007209664,67.36604023555319,60.956224236297984,53.69280962429737,43.905538397760125,29.35576569761002,11.167716629402758,-8.22693117054721,-28.147310279263593,-47.64951854753781,-64.82751731024025,-79.99702229092397,-94.45502004735012,-110.30276239575484,-132.22413205264286,-158.09430173846863,-163.6544676732806,-121.09868782938148,-44.15484501699388,24.145137656115303,63.691253055135974,83.66608019033409,97.02641331214053,107.64056841624053,110.53330444334264,100.13333473887315,82.7791913739441,71.06782584124583,66.22136549819045,59.54430241081353,48.96902044074649,40.038915533938045,34.32357274989699,25.839633839341925,9.110759122895107,-13.290450158305276,-34.59207886552777,-51.481440580552395,-66.73986892482674,-83.11048823795771,-98.62527690149098,-116.35070692683242,-142.06887437292406,-158.53911733578357,-132.66676430011825,-64.48263001179566,5.952894196930978,50.36522063830934,73.4349007741782,87.18838136572732,95.5579609685693,97.2361827588804,90.31934517980264,76.45470477409765,64.36399943995814,58.26820762688438,52.62309881785761,44.08137734521986,35.231232093389224,26.598575440831073,15.02241717386668,-0.318044999412871,-18.2431676891442,-38.089627894180865,-57.86004712930532,-76.50781276620683,-93.84316303343411,-111.41306997343311,-131.78779303153559,-140.77912172466117,-112.1027252115527,-48.88142093879176,14.595118670837216,56.738452941732554,79.06069150784973,89.83477064754071,98.07954053421832,105.67677228284252,101.87299189810608,84.28025727488212,68.39545986937117,62.36128682052343,57.870220106292386,47.9047622472922,34.381129170032246,21.04853532651852,9.471251400699014,-3.917354577903035,-24.241900648289683,-48.860304781951555,-70.24630566659074,-86.15670001782497,-102.22851757212462,-124.59645086731017,-152.9463840348763,-172.77165088167598,-155.5157244161094,-92.54602262043,-17.12429576874984,70.0,108.0,55.0
9.589603482333768,46.67204961182609,63.81685396739296,76.22486189748207,89.50331136493283,97.9177710724763,93.95094564817046,79.45200522675725,64.54563109108042,55.3835301471812,49.525536948023486,44.26452397967678,39.46335244707413,31.668284897816175,17.575854164387607,1.6016008433834181,-11.898640967071225,-27.407043632967024,-48.27560158426602,-68.08712671204138,-82.45916409406144,-97.26233137678696,-118.65056025581694,-139.59254011282496,-136.10808248577015,-90.05434946711028,-20.987666649752725,34.21048640188482,64.3351893848464,80.67580839768294,90.60867117443371,93.91562407420896,92.08649198692076,87.64140490656379,80.14456518124905,67.48020604259874,52.863971216041946,44.23833953842004,40.91411525386183,33.807719666677336,19.753667938973884,5.489419029113599,-6.190082560244534,-21.303156929604068,-42.536897265140844,-64.7160888725005,-81.62682801032476,-95.68156108900546,-118.44781135834053,-150.4549772348493,-164.34383171530772,-130.71223556200607,-60.270546471037356,7.146493147764699,49.985570532914856,73.83486420406369,88.52437653572606,98.76098647818019,104.49741355133821,102.10332248396513,92.1952975005247,80.666922085556,69.47965749837859,59.200310018828525,51.36793958085087,41.82396478664756,26.42925012074301,8.366004460647417,-6.871036906782911,-19.356998369739884,-33.380116070890125,-51.36635872142328,-71.4193442522916,-89.39196177442196,-106.15825135470675,-129.3102433919371,-156.27284501368524,-161.12429324269553,-119.88340709206345,-50.21913314732074,10.776947799876902,50.43565836935266,76.52701571972906,94.94452020806675,105.97857533395963,109.2800726654016,104.33328941850657,92.43920670441716,79.99571220250643,71.71473645058676,65.59717282500324,58.96279712993937,51.260502652139756,40.21398593567778,24.347252790762948,5.6261200353989675,-13.93514076831156,-33.91834992291537,-52.893725539303766,-69.34890741938739,-84.2009253513089,-98.71663097067243,-115.81785870839981,-139.88944117267422,-163.37161267453027,-156.73018301986772,-100.55107937421741,-21.906813368435337,38.457092906626094,70.78400382182122,87.83431250677212,100.4643758602517,109.62353371959982,108.9030046602316,95.2220727923072,78.44804884150065,69.3019962455843,64.80538193027135,56.68784611999893,45.99117785602899,38.214458620042954,32.50893765172264,21.901320236914852,2.9277772537723314,-19.823222037297445,-39.89739953569065,-55.85181296320243,-71.38336909936584,-87.75974675220364,-103.11319189331213,-123.1009156297451,-149.31088969011526,-156.43364845134863,-115.94301127791728,-42.43252719276958,21.722635526767714,58.58787961104281,78.02578487733643,90.17891834197026,96.8179713823369,96.18272565446958,86.73577871787201,72.36479670142744,62.12696612547045,56.883323634229264,50.398693300387194,41.42352149202683,32.83530898010207,23.675769849291335,10.916213672023579,-5.254256635690594,-23.842991347774156,-43.9040972824907,-63.35614438139297,-81.67246581108772,-98.69285649232265,-117.15953574183011,-136.79117475470315,-137.1158803144627,-96.09413140937372,-29.06506009692956,29.18626579476762,64.88421331286352,82.95924927324329,92.13585694153892,100.655115291121,106.2716450703349,97.70638523276219,78.78204718348219,65.80564165707709,61.405534256642106,55.587403764641195,44.1764335212232,30.37810042221519,17.562099484018702,6.081085574393519,-9.005585239470998,-31.248460912728113,-55.64003500775638,-75.26723332745887,-90.44231845846474,-107.89425556119645,-132.45110067592935,-160.70008260535894,-172.76758164351494,-141.19637969240222,-70.0262685737947,1.2960871371708265,46.99210450856629,72.17341571013164,89.12425148408799,103.77079700206403,114.99045633276384,114.80827916813504,100.1384175574462,81.93394904341478,71.11020714740883,65.18319236247376,56.117500815223,42.859928529619104,29.404405817408065,17.122986088017154,4.126350155586461,-11.930812232858468,-31.051144357554563,-53.91994772094388,-79.08662551503419,-98.21741750207437,-110.48709856746841,-129.4369443011775,-156.28116228954423,-161.30785717188735,-116.62911272576264,-40.65344020954072,24.45549276053194,63.25615024273289,85.99541675323609,101.26405087543435,110.5758322660199,112.37621765441119,105.3440921020591,91.8679817286368,77.72608762817084,67.22370882605006,59.80550989252998,53.19204332624434,44.30979407755778,30.51593072800371,13.355388215001938,-3.9273939580150157,-21.532889434630945,-40.06796531638602,-57.61484505217457,-73.67782054341991,-91.59832718730722,-113.24113080414403,-139.02375058981866,-161.74787361562272,-156.54667128621696,-105.79296755088897,-31.958050613196484,26.0460107865402,57.63527891453836,78.3001450731943,96.17852226516173,104.6507933909995,100.63180464185596,89.1438509300381,76.62360576490723,65.0957241435919,70.0,108.0,55.0
66.30130045594213,56.74591866259583,49.074992207035265,37.97850854365312,21.195537030577928,3.539977943526773,-10.5946076088322,-23.06781537484812,-38.171972919043654,-57.13110816676818,-76.96121953963333,-94.07152748751827,-111.91159490002867,-137.4329474817285,-161.48952601219747,-154.07138030033573,-100.89717911269076,-30.51898620345578,24.23695853232312,58.95563104750607,82.57072281920436,98.91644952925382,107.73750528236174,108.72418419268575,101.41024057887056,88.56757499592435,77.15818953331802,69.9037320735723,63.76147190656461,56.90293474027749,48.541823672045645,36.09060835611203,19.1030297807956,0.029888512988541616,-19.689355418769477,-39.60942764349747,-57.90277431796275,-73.74140791552996,-88.36593548188814,-103.17050472845276,-121.98538818714518,-147.69479060866803,-166.08723413804688,-145.2829091947845,-78.03428623478675,-1.4477313792181994,50.276451036382944,76.63422354124697,91.70380186426986,103.66513586554706,110.76676670257844,106.07885071467601,90.04590796448187,74.86719427551618,67.96637479062392,63.00112883520128,53.58499932293607,43.30884426668319,36.611867748767,30.25780147663658,17.20054141159517,-3.5811494055885946,-26.095442464630338,-44.816277809945404,-60.20768265210654,-76.13847757000855,-92.24679180809682,-107.99381354022132,-130.59574994795892,-155.01430019638755,-150.00372968282508,-96.24169039888478,-21.383940546413193,35.006896270129594,65.38356263241423,82.07169884531162,92.72657940734848,97.47265352172495,94.35766932294125,82.68626935592063,68.6935078349031,60.364077644327025,55.346179889302434,47.931352331193196,38.83666976092816,30.408410980783493,20.419998204750218,6.523976913819832,-10.3880696147665,-29.581393237601414,-49.6483797781925,-68.76433681841759,-86.70278842589069,-103.65971174684215,-123.17343251209242,-140.2282351943623,-129.68621508945228,-77.76790232963405,-10.174226100983185,41.770683602410884,71.5532772289163,86.103037884785,94.45726963359569,103.08275423995927,105.55021903279126,92.56582088501807,73.9044650378233,64.0316137997578,60.269076389135016,52.78399921607746,40.25593263870046,26.47211879051328,14.232748426612167,2.382836927930351,-14.763844890445464,-38.44663800443021,-61.96651099182775,-79.86615920848806,-94.93709497313367,-114.19883250811885,-140.7299865611272,-167.19540084701813,-168.88419013788646,-123.27390199731047,-47.63004105602081,17.33688014762552,55.75044092506607,77.52818832390705,93.49270666049028,107.62939010905912,116.49356812698352,111.80416192696131,94.56263452995468,77.90091763368866,69.28395105100051,63.11615424603577,52.55146036521393,38.848756846491305,25.777192377611932,13.570092426006113,-0.15661452090993702,-17.158608337708344,-37.20472347043899,-61.24286820898982,-85.5954691096577,-102.02195969760767,-114.67126780639958,-137.17338290143493,-161.7583007067624,-153.70239967650159,-95.93868137007817,-19.302518968723344,38.134523878337966,70.91112487493055,91.02750282857595,104.59110707380181,111.97527710044481,111.22573080599817,101.90260029020342,87.56843622460309,74.2678949587422,64.85888065107382,57.92367816205705,51.01964390402742,40.857219916490585,25.72847539672305,8.310101087473903,-8.906932627805102,-26.843382998198344,-45.340860769033235,-62.303958803980656,-78.5123938407511,-97.45366579250357,-120.28540123015021,-146.7068322458023,-164.43115757931264,-146.39392392032133,-84.94251931019961,-12.35494772180466,37.41330757391471,63.987246329465464,83.9080295096144,99.93244058417825,104.64121985424684,97.77525547445903,85.40957276629689,73.2746265520106,61.64157956984095,49.663827785563356,40.83044581274938,35.29311943977843,26.815948021247152,12.212356968893165,-4.518234363496695,-23.218872516292546,-45.413976967720686,-65.0543024670691,-77.51304590414868,-89.88470604932282,-112.05026289877843,-138.9921845484352,-143.57631102576352,-101.37288197158249,-30.592311971709833,26.39716547630547,57.259447554040996,77.75842017281494,95.7086473348991,105.62612683536457,104.13737432001813,93.57191141065633,79.73800089962445,69.21674346731281,60.905033700772705,50.50614914271161,39.60004666057637,29.158459243216818,16.295095601565297,-0.531851140403914,-19.424462955854388,-37.2381899988477,-53.40741666887914,-69.3308035847575,-86.03671441462656,-106.05269241764977,-132.4237817695176,-160.3320338690825,-166.611187892777,-125.83280830120229,-51.54117952009048,13.7088729930681,51.677217734015336,72.32153918208985,88.54315330599688,107.56880833030375,122.26900483767041,119.40732803176834,101.55213507683153,84.69987560065512,76.20713840325146,69.1088536745264,57.991074904339335,46.12793317255057,36.106816461414276,23.48820598792182,3.80227838087047,-18.422846734043166,-37.11051929870928,-55.7989887084212,-76.74241126557641,70.0,108.0,55.0
-32.005406066888824,-49.428139950948314,-64.64763195618563,-80.92321037483632,-96.6143182278135,-113.52693731795411,-138.47286271022995,-158.1874296197742,-139.11733505324622,-74.69699269461721,-2.151920843687481,45.989746170626425,71.09135010191063,85.66928711363774,94.7861910680898,97.47200392250814,91.76111462401032,78.41878330140719,65.58930755502413,58.898784745298464,53.55094942378053,45.311482866984846,36.3491402203466,27.850164010281468,16.806548849111355,1.890316557826918,-15.719996747044659,-35.399245666311785,-55.29311121464791,-74.08678106524128,-91.60852077297666,-108.88629859479916,-129.16447937518336,-141.294810349407,-118.4657267335124,-58.11107159014533,7.200508193936506,52.42987130136324,76.94740170344167,88.73019999309233,96.90591033505488,105.03827696127784,103.36570046765462,86.91623434936245,69.90892176648426,62.81781801907007,58.74178635761104,49.529571307645384,36.240378158196954,22.718287349493053,10.980039313216183,-1.7932045356665238,-21.133792957369554,-45.619289557133804,-67.7598521085171,-84.19785609061209,-99.8130346240432,-121.16709669522552,-149.14137206199584,-171.64073778562602,-160.73313320809734,-102.65453352079874,-26.347705945830317,30.973751046302432,63.141300886413504,82.44295205298675,97.75500334773974,111.09708989906235,116.79356002499857,107.64777472686764,89.08762707580908,74.64203327909313,67.66781073388515,60.610982080773034,48.710118048887765,34.92136851658411,22.23790019158819,9.888781950555945,-4.7371572973469975,-22.617623899116293,-43.72557768602468,-68.64675538153737,-91.3425588395174,-105.41296232371847,-119.8423872533582,-145.31176432641627,-164.3897500673633,-141.55252457234334,-73.63462720129175,0.17244931424360638,49.640980217611165,77.57954321503904,95.54220127889364,107.42170514112783,112.68285024569757,109.33203290865414,98.01985638642651,83.38282015920922,71.16666793401976,62.70077055360385,56.05423036766763,48.56699124769974,36.95180424531416,20.75247128551403,3.3147233171945434,-13.959932816242745,-32.21888245889762,-50.46332937914401,-66.90232648897862,-83.60652137623414,-103.62259445058449,-127.70943075497473,-153.80460254252563,-163.9972754631394,-132.28671715618432,-63.16102498129949,5.0707557590602335,46.7223125384573,69.9155099042042,89.26786414041507,102.66937126153537,103.62679304062085,94.45916870414294,81.74099479083011,69.9784538231649,58.11087751622805,46.63688214275939,39.08980661792439,33.45643587309767,23.113069659453107,7.4342943282367,-9.558368783400597,-29.395911978633926,-51.733337825972896,-69.2970191229058,-80.55896591344582,-95.08459556827283,-120.1719575118525,-144.15475094498453,-136.36947963462202,-81.90554748051144,-11.309652315753974,37.4898321440331,63.53607818605738,83.33298452062371,99.69023839989327,106.33143498538668,101.83708101084697,89.55749489698583,76.21996009854615,66.84143370910739,58.15458434159645,47.262138980019486,36.63229985284666,25.82344493506591,11.815288419001561,-5.927997140927335,-24.779316891893068,-42.01814158787029,-57.987184968349865,-74.01252995284658,-91.3131646222564,-112.97406884688658,-140.96511329296072,-165.81246537512217,-160.06306176236254,-105.98556690936813,-30.177091138098373,27.309435714816935,58.78832274103375,76.97474005064461,93.74009487028958,112.94525131596909,123.55308549941157,115.15067698104131,95.92850642391801,81.51689102503268,74.4389682847509,66.27489179423054,54.415079325484804,43.11420710363787,33.036245853649795,18.517033716209248,-2.754506263681713,-24.199294630969696,-42.23347182914176,-61.779385006469276,-82.4758082930552,-99.25777700202585,-115.04169852234729,-136.7009895181809,-160.07852258868888,-162.61093399146745,-122.33526174469608,-53.81604646055201,5.4391481785117595,42.84278992068699,69.75768023773163,92.94088632595891,107.86558626900373,111.86708979546883,107.45584305464197,95.56787756946629,80.40139625598232,69.48469848759258,62.794060303732266,54.824002529405085,44.72884449480424,35.322567207731176,26.457703380316083,15.498816169618257,-0.7763992641709602,-25.458772997241457,-53.10004040846766,-73.00878682752419,-86.50926457486274,-101.34242131155314,-121.18561515699305,-147.7100532642019,-166.448243051856,-147.81437739060237,-85.7639083662046,-16.43770737907604,28.370701237332472,54.388417904037155,77.378393999883,97.99711659110335,109.26394708186218,108.84044133466972,99.98736979213123,87.1529919281176,75.01477819003738,67.44172648009564,62.74822844342849,56.92256385488524,49.09117203583433,38.517444299471975,23.00634033281961,2.6264956232553103,-17.455601483319946,-32.78709290628629,-46.36129653645375,-62.373294222056046,-80.21107756058866,-97.94966942203068,-116.80762459550036,-138.4478698820963,-153.64892397251907,-139.0723079421512,-85.7554968314679,70.0,108.0,55.0
-6.9118204337344284,42.39136439585964,69.50486690353955,87.06299409005894,101.90813103895852,113.95120206036539,115.75157110877606,102.63517657535027,84.04529826178616,72.09022903593299,66.01685533677576,57.636927960276566,44.718309455981135,31.115666048462696,18.73894205382301,6.003706824703721,-9.600909133028757,-28.324743702939493,-50.624764078182146,-75.8827560832637,-96.23719568618084,-108.8006766731293,-126.15659343070092,-153.08311135349265,-163.2716019157616,-125.29249905860405,-50.93755934877316,17.35164997301754,59.31172312352862,83.48655242989028,99.56861860783393,109.71527806871333,112.64907500434512,106.74727156066058,93.84508027205156,79.4387474042008,68.39928120725683,60.69426969047351,54.1248769468963,45.74978504600362,32.62941480666053,15.692588515327293,-1.6434613234767,-19.11748265354697,-37.6021210962685,-55.401019061736605,-71.51469062240916,-89.00401384581197,-110.1231201508556,-135.425181830893,-159.6681414343405,-159.83269079757244,-114.77880339120092,-41.56865259755007,20.008783917305003,54.45583410942472,75.67414182352225,94.15452523705012,104.28732752517297,101.74667980195804,90.85584249077347,78.20536504353176,66.6548378402272,54.579990807492045,43.98571218487221,37.55083028364866,31.17448407782653,18.918999630712115,2.6108070457562733,-14.853011064548626,-35.84924880402763,-57.60701373586633,-72.92336869085028,-83.88925225233385,-101.29908454135428,-128.3608853087473,-146.5721398513645,-124.88984899253688,-61.038033976132965,5.836727729204683,46.56684852698719,69.4230403703766,88.68351101802803,102.80975654306378,106.08202533150059,98.86051921125845,85.45949095408425,73.10706117077986,64.51708521766166,55.16468341225902,44.07557145211354,33.66784568227443,22.20047768490027,7.001052680497577,-11.419254803798141,-29.972220666276467,-46.68795383172436,-62.57719505934613,-78.78282340572072,-96.95436945748486,-120.49333553855638,-149.39691547621408,-168.6966519566605,-149.11447792868196,-84.22208282850302,-10.626526435630504,38.61184658880239,64.81662793141165,81.54643535696529,99.26798135737798,117.60188407935414,123.09777505792573,109.9346508527476,90.81496307871804,79.03435916063131,72.5202205913691,63.07971766143465,50.915237073439116,40.25822024528155,29.569819283010517,12.90355622268172,-9.30175989007191,-29.60662076557855,-47.53923078229299,-67.9008930322117,-87.80803129378909,-103.56000927173315,-120.55409042130687,-143.9457635363832,-164.2736049663559,-155.61522020435928,-103.74168483202678,-34.46781839502253,18.165648072184478,51.13563346872367,76.90582071959697,98.37830936840146,110.04836784483135,111.38317210772485,104.73451182710069,91.16630845603554,76.59761352975049,67.36846383932573,60.79242328093763,52.004301702448736,41.858488165520484,32.811259580925544,23.628745552312193,11.52283733738922,-7.041217001492943,-33.678344312628425,-59.8991466214076,-77.16984696575034,-90.45282229308285,-106.39839200544077,-128.3376749073638,-155.17228281436374,-166.0271987924742,-133.34918443606637,-64.441579845923,-0.585505590153768,36.94245145402101,61.006184885470766,83.88328206969231,102.46083559952179,110.2597251469134,106.95163103340714,96.49343868786157,83.34956300326773,72.30381810571548,66.00150970861385,61.27811927077503,54.85901164917941,46.40671376964256,34.62694809070898,17.478587331274078,-3.5127551617321924,-22.37352926940918,-36.640831227222584,-50.666457308303386,-67.46263758132775,-85.36026395542598,-103.15342944467076,-122.8491021274451,-144.3872746254389,-153.51486316958918,-127.09394058019963,-66.1876275004312,-1.9616197466223193,40.3158434264027,62.712625490729465,78.87119333563646,92.34535925815287,99.19272446327913,96.92827580035025,85.94288765952257,73.15821125070833,65.08330115953662,58.78154828512702,51.006726863010456,43.861454505338536,37.08742659248379,25.95773142322543,9.278684035084032,-10.665126894252182,-30.356247013932798,-46.7460410663339,-61.60076661842452,-77.9999226964253,-95.33451733030421,-114.07070783473155,-134.6573523668717,-139.67549985910696,-104.2120381929662,-39.41849203222666,15.649729988051543,47.755945091740884,70.13744358952786,87.93294348025339,96.89076857223878,95.32930750133295,84.76342091058723,70.53749327641323,58.801128582085326,51.94867670256487,47.49265556696293,41.44245960908828,32.72478736638073,21.36878433082651,7.515832061656113,-8.418754361956495,-26.80530487490296,-47.565137091127994,-67.22697376190268,-81.87132884766139,-93.99067043767111,-112.14759543704709,-138.063082770335,-153.2315494185437,-129.54123563080563,-66.83967368036251,-0.4644399354905412,42.64637219894266,65.79591270366635,82.5686634734464,99.28200813612095,111.67049979513094,112.1773313465947,100.84552076101676,84.75482419003862,70.0,108.0,55.0
63.246178206837776,51.16453548399525,41.73823305820236,36.0375841502249,28.32974935505129,14.378692899255707,-2.249615813310172,-20.49165641380177,-42.411680799325225,-62.86424315468387,-76.11646610690676,-87.80797295365363,-108.47416917932641,-135.93341426091126,-145.45158199831883,-109.54212085847914,-40.01574315822594,20.49193585255332,54.13367364565544,75.14860048855472,93.62507275915755,104.96727085186363,104.94209575537805,95.33638032890178,81.48247185145684,70.3744208018468,62.09043078992472,51.99827370940721,40.98955533942186,30.618419938303525,18.240768381279683,1.899183503531738,-16.913816831163565,-34.98510675822874,-51.2940436238513,-67.19127795974771,-83.69954771204135,-103.05849454965791,-128.5596357072573,-157.16614222002505,-168.17985208281544,-134.01799168700467,-61.782502677607084,6.605492269180239,47.93914693188343,70.07541967837346,86.26809793538561,104.96429798362217,121.12523467587965,120.9317853214726,104.22327551133822,86.43951584676958,77.03745728650905,70.27759127039893,59.63005938087814,47.58877287248389,37.43909864566031,25.554097064018663,6.761424993893655,-15.625075024328027,-34.76629755860808,-53.124513431661164,-73.99377995851678,-92.70907574720724,-107.96704665327634,-126.70047517328914,-151.07244297906138,-165.9877048288662,-144.6781274594885,-83.63634363107866,-16.77730669250645,29.152293981627697,58.915918329311516,83.76402913213867,102.94190648999962,111.34950157799965,110.25840952803252,101.38949003502562,86.66869234605288,73.32223857170385,65.4845063345901,58.556259036034604,49.05977058997084,39.115258629447766,30.29354918237372,20.559308571389902,7.011148965844636,-14.070274946364801,-41.87185880851219,-65.82552276160537,-81.00395018835275,-94.64899163540711,-111.95234855261047,-136.05958637491136,-161.37917411506942,-161.70725797334669,-115.57212988306449,-43.723480551968585,12.796017727500216,44.42791896888938,67.64805299895859,90.04445058497289,105.97340478665676,110.30092558928132,104.46616525745281,92.77250278655795,79.7284224493177,70.04126531722072,64.68878695751518,59.63850265906619,52.63889466569948,43.45243632266284,30.263424331970278,11.5907116556716,-9.448483413527695,-26.847698555179292,-40.49069937151353,-55.24461391586653,-72.6345160192872,-90.47458104601509,-108.51881918063842,-129.14902021513421,-149.3873286655408,-150.22663486205596,-111.99514876048958,-46.40209965454649,12.91815529994745,48.19053520878687,67.597310806963,83.19078390335919,95.15929824068901,99.53638695025097,94.4844786412698,81.9979283206926,70.31400968372758,63.3371546366777,56.65477163938161,48.76402886123278,42.05176300241055,34.491366070660035,21.626989939332056,3.728065869037243,-16.57013502649469,-35.45633429924041,-51.01292760586858,-66.13887624610071,-82.9868083413666,-100.4535120293015,-120.12889936770729,-139.03218075732204,-134.06647241622397,-86.81498554774475,-21.11296021456832,26.859854025823797,54.66197606979881,75.91274354812766,91.58005310544168,97.51102503682775,93.04030854658623,80.71913419010924,66.6946226465252,56.33984910841002,50.62286202818982,46.012502154055305,39.191843906288824,29.718963906446007,17.600668643763804,3.1220974426655625,-13.444223706294403,-32.63944341721085,-53.586692899762056,-72.03068429162195,-85.30121476078203,-98.2565209275017,-119.2256304809732,-144.87985065227542,-151.2440572034057,-114.264337429367,-46.274053444420005,14.716926271819172,50.75419674154774,70.81456837519846,87.40842405826346,103.69461234478436,113.22748188618495,109.88025061760676,96.31105273237063,80.40199563042361,69.6750059625949,65.7859907717842,60.98760051127504,50.23821063188157,37.22840692920636,22.68517972906127,5.832136085270807,-10.498084302968302,-26.397133579458984,-42.91010157019467,-60.04972906650816,-78.01336637556554,-95.05081046993313,-111.8409847264302,-134.9065820136056,-163.98854544962018,-173.71804566723347,-133.25532456426936,-54.963705923601836,13.465980750307558,50.539643930236984,71.39678761678205,90.08793962958498,105.75971640279826,112.67601344374634,107.85160415038932,95.39782412301187,83.48351557511515,74.29578600059158,65.49184966376251,57.853420116551696,51.79751391015601,42.51446201612608,28.050858173252596,10.884009359662176,-5.845260443581006,-22.245243324433137,-41.770059882362894,-62.91823073623075,-78.85438286334806,-89.22129175256227,-103.53880946212956,-128.8004238657401,-157.15282780576865,-162.87283786536102,-121.46020992956413,-46.29567148957058,19.241880875643076,54.61164414065692,72.57515212523225,86.70572470375599,98.53126078510465,105.03640674023713,103.73318371791747,93.43522499657963,78.06298990968403,66.45169199808768,60.99300096026747,55.32240146603876,46.13279914323656,34.6643924789614,21.828938255652346,70.0,108.0,55.0
