14.449116167313019,-4.897198876017775,-17.167983034432208,-22.192468422857804,-25.8347370173431,-33.55403271103707,-43.93359184977674,-52.1278870469385,-58.72821851035674,-65.93927421943361,-74.12610905011148,-82.94722324426206,-90.73507656627112,-97.510586294794,-107.43714755155656,-117.90727139017952,-105.83167368047731,-54.26876662458291,14.398243820817013,62.16848438923344,77.9688540459717,78.12691034042012,77.28151914722437,76.29754776744997,72.51987734337946,68.08766593869865,68.08156714129761,72.21237934576979,74.24459282735451,70.9901745974622,65.31989290013186,58.07483028595804,45.40230932002645,29.395188705628804,17.300164787058037,7.323232413612582,-6.21377424628561,-20.828679158037822,-32.63083410099542,-43.6098341149152,-54.730956944119335,-64.45494650364682,-73.32101743395842,-83.35590729207878,-100.05760580805189,-121.78306661379719,-125.70093758762732,-86.51509248039113,-15.458684616499406,46.01288428148242,71.73238923786309,68.26582337512825,58.511529465658796,55.55387987923709,52.996493527759995,45.19967149376497,41.7791250632932,49.9053826837019,59.20953821054295,58.187879153043255,49.700658806163744,39.661414717767904,28.592522183440916,16.962540872232072,6.570487696984426,-3.0059371524819873,-12.788884764635336,-22.382704124080693,-31.52984166935115,-41.546074411164255,-53.667045567614345,-66.68937870979039,-77.87020204012468,-86.88654058450098,-101.07607204279863,-120.8193098915054,-125.32198861320877,-91.06085567075627,-25.648166757715327,35.458459489995164,67.68050598884147,75.18557557387747,73.36646964746487,71.55966393758969,71.17351424052266,68.62142442958674,62.56594992837551,58.624983925205996,60.68166254491453,65.38855261369666,68.41823857979387,66.14292160977219,56.10564189740654,41.35997172496626,27.891826084687686,16.430889933350265,3.951466842998368,-9.780528280081844,-23.87506426810149,-37.23916256591465,-48.07551831955861,-57.90848298619257,-69.22325514214323,-82.12773960960435,-95.06712583717699,-108.32622994161855,-126.5491625588129,-145.84220842198752,-141.57865180172456,-93.10411557969825,-19.75551615018731,38.39488060438195,64.66366409886058,70.10812092572588,69.88000442675259,70.5331370611411,70.86705270931317,68.26837334993402,64.22472132479366,63.83013647954794,68.83874602683281,74.48738773853873,74.4901972768519,67.88996952503308,57.11948713913062,43.93918718232264,30.43378546313409,18.63083341337009,7.9932476744061365,-1.994791854671129,-10.245662448793984,-19.841327741704927,-34.99789832638668,-51.03821403417425,-61.56956404371297,-68.3132669818175,-76.42291819817041,-88.17456814334707,-104.39931773594152,-125.43871975292508,-138.00106653774324,-114.5037279169299,-50.87126861544823,18.44842057913661,60.664368368990395,72.52312961671372,69.78956892511854,66.74624065826016,65.48496439940813,61.185424216298486,55.29066361786397,54.66283189938959,59.35173600603302,63.662868368084226,64.35327921498379,60.36551344622121,50.66443838158024,36.42063767329254,21.6401989504157,9.135793532477322,-0.9893068844506169,-9.303463198792793,-16.66556142394214,-25.606881334932947,-38.24799319564046,-51.779329965677114,-61.51901756432784,-67.75584487560681,-75.41506904188508,-86.64413835685258,-101.31045680528328,-118.9223183177156,-124.69312424893421,-94.24825305870665,-30.71700694763219,31.22842396078485,65.41357696790115,73.69729696327008,70.23533005573533,66.9175766417146,67.55559735170044,66.89528851183174,62.1894577239468,60.507911547604316,66.82266923830664,73.2057641952223,70.98429258989145,63.828556697472706,55.42188669592496,43.65368524193235,30.517416649808435,19.87942571490014,10.470160914375963,-0.31543754369236204,-13.708780944043525,-28.82225807248254,-42.10677583540372,-52.58869914385501,-63.754536261696636,-76.41499367766303,-86.19416235864692,-93.13414726283716,-104.03737929159085,-123.95679643861594,-145.4562403629039,-144.82193314314281,-101.8125045749383,-30.585762229553904,30.163864921347997,58.46145043659589,64.46681129896997,67.17001769160832,71.1373037831435,73.92096192821094,75.04368207272427,73.53158194360732,70.48284991151793,69.76551416052772,72.90555745269425,76.69238568140216,76.30969497230922,69.42799903053158,58.66796352923947,47.14079100885727,33.00642971450869,17.095553897579016,4.376553701762965,-4.923159817284748,-13.792366325615049,-23.220609512705572,-32.90749814455361,-45.39479840445646,-63.04158030581115,-79.834602752481,-87.11800767361359,-90.44305312021488,-104.37408372070345,-129.92986142957574,-143.80871721376812,-116.4711753868829,-50.52125930535242,17.348520150272343,58.1238406628899,70.08426136682232,66.39235639208246,60.7832076298891,60.118820672388445,61.54924581060399,59.250015318271664,54.87619927589838,57.0,114.0,68.0
25.20079792728127,13.795574234140423,3.7921304630510693,-5.811070262034819,-15.6100342468191,-25.047514081634308,-34.24485451892186,-44.84059570679026,-57.437193893323325,-70.24561710710509,-80.49089221434392,-90.09178049787077,-106.73829696577214,-125.00166558397626,-119.85258802921928,-74.02798546974773,-5.932096515290241,48.03337844124506,71.69814355019712,75.03587523427542,72.64915050373865,71.40588780567832,70.84509540643627,67.08691158518944,60.89559856023762,58.64949340258772,61.99678709967756,66.58509301685748,68.47906173803128,64.02861672819195,52.047904334893936,37.15532798243188,24.518786417879895,13.005114643837405,0.05990759901038267,-13.834831887104846,-27.91022800953078,-40.64239218507255,-50.87545351747178,-60.97717193770474,-72.83534080169666,-85.94105351760432,-98.70438990679403,-112.90634716599975,-132.73890777811943,-148.43052325387512,-132.12859127278804,-72.63264695289928,0.02197820996036875,49.111505113338175,67.59275426193162,70.15221840758645,69.92541275047255,70.8146547113166,70.45774059060429,67.04253119984743,63.53662093788857,64.81960032276527,70.73379284724325,75.23207522677532,73.16538711461452,65.1088257937464,53.49092485150487,39.9513903667243,26.82054620885647,15.505347473483214,4.990723107623723,-4.549272038962291,-12.601238398064497,-23.66377729111043,-39.93408924236472,-54.7262148109786,-63.668620230229024,-70.33886222390159,-79.42840261970213,-92.31993535013734,-110.15923817398183,-131.0951883876938,-135.9396541791803,-99.22336646334519,-29.52947560633908,34.14802557735012,66.68028164875255,72.42638842477471,68.5967012820992,66.4047761886962,64.69060703191323,59.3323409734684,54.36986133349507,55.70332509312897,60.85908094988376,64.28950922153531,63.729524685366755,58.171569390638574,46.86230409683297,32.027407884960695,17.745463756150862,6.001248972351028,-3.5624845060755788,-11.451165548553467,-18.939057910843136,-28.894515080757166,-42.30758211371171,-55.102200039864634,-63.494686736360684,-69.62197846257376,-78.32164270989914,-90.47444791529601,-106.33972672444312,-122.9761845116187,-120.29780950817077,-78.07080894941016,-10.98704784360327,44.34751678711696,69.8838484604144,73.28292295577837,68.8904358655766,66.81290545282987,67.79997218740257,65.78867757542582,60.97127126580742,61.62811055364437,69.22646075288633,73.49607504549084,69.10062723308519,61.59410259636141,52.41468917460206,39.76589818392462,27.14578715614156,17.177898147835606,7.5689412071564055,-3.8936277703149162,-18.03079141086293,-32.997305199487805,-45.31656803960816,-55.57874290375486,-67.41332490671785,-79.70298094941123,-88.26544324743999,-95.52874662454657,-108.86951463014728,-130.79881526537304,-148.8139297565104,-136.93078239440896,-82.52930274166002,-10.363559676682494,41.746104293059034,61.50989263764835,65.06835490411706,68.31666062724648,72.10399285243383,74.44429666095527,74.90865768007369,72.65349229556078,69.8792075453893,70.34069777882266,74.15385380987898,77.19300992636654,74.96717102186648,66.50652962121399,55.42193656515916,43.4329164950251,28.366138182841315,12.94982888764758,1.4758515869691569,-7.43148024929721,-16.483756480842075,-25.95558552981862,-36.040734399914896,-50.028169945020956,-68.47445903109646,-83.02756714977725,-87.820471106301,-92.90223037849492,-111.15129303819121,-136.64959109390892,-140.91818382665554,-100.0961757926201,-29.335533957932718,32.46646787838464,64.07723779163634,69.95245068744333,64.48457636574584,60.04122852743865,60.6231403523603,61.39031879838486,57.89417790969499,54.25684219648716,56.25222595004905,62.00021210915392,64.59156413043638,59.59727763351597,48.49343163943561,36.509313246834516,25.895201193628523,14.161945730987593,1.1571050893771497,-9.667282963820215,-17.324159275456143,-26.09378938116778,-38.705958110334535,-51.17229565750608,-61.061481195040116,-71.89457074237964,-84.68370811469052,-97.4383171306424,-113.93614705636865,-133.79344708338132,-133.6800693945129,-89.4777523320724,-19.5518446961731,34.896591103204834,59.18399654814621,65.62963187358099,68.4021810331158,73.09272519490555,75.87383412954271,73.17206959398361,70.08054357049168,71.69083345665905,76.97529246095661,82.16157860479755,81.8463906243439,72.42494266160715,57.126750370090164,43.767036236445335,34.32975953308407,23.396217553251788,9.744872823606453,-2.5880672322327967,-12.69059724326316,-22.523657286584243,-32.091684245187125,-41.78963580462483,-54.52439924817756,-71.10006036332167,-86.94611459167373,-99.52793783447005,-114.62577906771617,-137.95444613607242,-162.04905207986295,-161.54649067624703,-115.6831900789095,-42.30651901351445,18.78092141725873,50.20068922573461,59.82775312467649,61.84435343660269,65.43592024696406,69.68616555831133,57.0,114.0,68.0
49.69221181079898,36.00253976136971,23.382886177006743,12.434049463776688,2.0572252928752874,-6.928626560867849,-15.221791210555615,-28.00385728892241,-44.721157366101615,-57.861913852674896,-65.57427304382148,-72.59708235956275,-82.74865643315641,-96.8775330227687,-116.31252324944035,-135.49391331662403,-130.1360322642313,-80.95036464330452,-8.817576691027242,47.029581758095084,70.37934121839959,71.5799357622436,67.63580506836576,66.12481224284008,63.51982713809428,57.49493101594588,54.04924212077657,57.08163480726387,62.1896869213813,64.57778905551808,62.69295473936872,55.47298710956363,42.75056906385909,27.698148728179767,14.081578278937688,3.043827115131059,-5.989918457064623,-13.551650863781115,-21.427996526805046,-32.514739701436454,-46.31279099143984,-58.01200479573225,-65.25675548966727,-71.74396531596952,-81.51572738981592,-94.61108996154023,-111.58010711743638,-125.44843515107117,-112.31680412444385,-59.64980011679795,7.601704140924594,54.788100493322126,72.48153129512588,72.24547977357966,67.80416484055628,67.0224950238219,67.7417467286602,64.37564775420304,60.264357491116044,63.429371041544634,71.31009467212455,72.96166636198322,67.01072332579743,59.24845744360681,49.061851714909366,35.891373556214916,24.039535154613624,14.496407808971934,4.507629090432551,-7.714234344065898,-22.44008960311496,-36.91671997722407,-48.32684561626703,-58.740690908895985,-71.14224408492714,-82.62085705582646,-90.19139869916222,-98.46065671414729,-114.52214807338841,-137.42741884681274,-149.59715233232953,-125.1900993152281,-61.6706786803786,7.984604162141567,50.41221807925187,63.22367879479975,65.77531708803322,69.50735578183425,72.93473181780159,74.82435826029251,74.51912770180358,71.71873990426204,69.57363549977691,71.22800605959345,75.33854843789298,77.23097739195488,73.06537907428678,63.38045218286331,52.14441049643058,39.41651395088324,23.682957674105612,9.186452204484565,-1.2074750424362408,-9.971607159626917,-19.21487250868726,-28.709857094894208,-39.514759378281425,-55.11152490398168,-73.57278579813111,-85.26970821506633,-88.52394849782804,-96.595462954286,-118.70770461276466,-141.58476045831642,-133.9557143293409,-81.04145446397423,-9.053847357472902,44.878554283576314,67.82891470459977,68.88971628537,62.719565927932074,59.785906580981255,61.14184216102443,60.80164065536201,56.51444413627353,54.17065734380102,57.805730150063425,63.37108397124437,63.97224469355275,56.8156027048538,44.89877721379528,33.37244165819924,22.7280196213087,10.40895404297241,-2.341471387526653,-12.09390192980589,-19.5001713075994,-29.421624795156223,-42.559910760087895,-54.20720318160473,-63.91800815517793,-75.5124957138065,-88.3399118985536,-101.54668594818013,-119.87578537082645,-137.3283073931925,-125.59593305225732,-70.0049568526175,-0.8437388308513327,44.739553039288644,62.1294691328122,66.37458828338,69.57725754886066,74.39511512913859,75.56886489329216,71.98509602621988,70.01141075785347,72.97980611769927,78.69513488257995,82.8846884829644,80.0685685685116,68.27752512909152,52.77640891216557,40.82466169269601,31.54397505023588,19.576114819260123,5.896110853249072,-5.645948736576104,-15.510383457572914,-25.35514812431885,-34.77597855516009,-45.02657979560065,-59.037811895361735,-76.00749881044948,-90.79956666962491,-103.25666154569197,-120.50147455189683,-145.66981899658765,-165.79483002584888,-153.0374721906254,-95.510653950555,-21.977984762420142,30.85841480190736,54.584314682698555,60.62352139712145,62.567709117517786,66.8470838931677,70.25314718051689,69.55889672685132,69.12891847506577,73.61388915582224,81.00139547422756,86.53560400184296,87.00696687229824,82.91777854409288,76.15315721496567,64.65007953653503,47.82286597528802,31.20237950162047,19.5469690728402,9.512186162117366,-2.6238626311637225,-13.68878536067299,-21.44511956670176,-31.570540905505638,-46.60113708527933,-61.308659249863865,-75.70178626229003,-94.3455721027549,-114.44999486112823,-133.539576829413,-150.35933853329126,-144.224249983838,-93.588894669533,-20.982034141158426,30.519096459664077,48.75462104619766,52.48079021998914,57.719786816973524,63.28259381717801,63.73649958934027,59.60167076453547,58.534703369717455,66.00479765806651,76.33033410611208,79.80537135698287,73.39596958103839,60.672980006533095,47.51284035960429,36.39412859888248,24.728662040545853,10.955602264401762,-1.109452998113691,-8.062558640723028,-14.798422468541673,-27.302510271025838,-43.424261594923536,-57.243739816557266,-69.22559522682732,-84.28316829203784,-100.88055278120936,-118.54852273020985,-138.9143431338462,-147.19865449631797,-119.27135308703276,-56.469032137482415,11.029068489062032,53.690900360573785,65.60400352975931,65.2649962889494,57.0,114.0,68.0
64.84113927833697,56.69504560513749,45.410291009587915,32.161399849724056,21.155054300859078,11.763176340745735,1.255792842200523,-11.769325486478927,-26.833020916859304,-40.53790110536002,-51.243040731083454,-62.12271785417558,-74.79686145530441,-85.14832129865397,-92.15755973498607,-102.09360625694144,-120.8663039711128,-143.24078341358944,-147.163852983214,-109.89739153430324,-40.308394798145954,23.82102635936732,56.444246751154495,64.16209941263098,66.68508159932861,70.6472474758485,73.63767118274622,75.02405314251402,73.88971730771388,70.83891391207185,69.61997717135134,72.34381245241444,76.33235954456978,76.73259696784734,70.67051851441266,60.16180650940273,48.7623263747119,35.08947051325862,19.11878163836196,5.812469852336345,-3.76448398010229,-12.571345031496266,-21.95781526023649,-31.546535800002886,-43.42644771046961,-60.50753845621129,-78.04731103276922,-86.67966297442307,-89.66070816146538,-101.62221374323731,-126.47556983774446,-143.86601111613865,-122.88175263889352,-60.327565572826394,9.524781774984985,54.55306940961013,69.72890868393698,67.2507976487834,61.29179942160099,59.94308125187209,61.49018864751798,59.8127046343417,55.31577743921703,54.64730636601608,59.53861627256464,64.29568659812271,62.66573346594113,53.61528946476515,41.37806186365272,30.335317654509797,19.385166613378317,6.6019209322501835,-5.558004641002348,-14.286712220230516,-21.92019570303344,-33.067957569328286,-46.249227539314155,-57.04065249888691,-66.97926426307087,-79.23824692375523,-91.96475768166106,-106.14854585681144,-125.94354496586494,-138.3429561012759,-113.47268118397997,-49.36290137805037,15.625932724309573,52.102491533178586,64.01661344553881,67.09205121250895,70.95510785790704,75.35545461924798,74.80207250136439,70.96416806539617,70.39647460672802,74.50411059497047,80.30321166354578,82.99890448214141,77.48687046084862,63.799175139508854,48.7916335182481,38.14382156979149,28.473217635569455,15.591911560951019,2.267779356968565,-8.557763971066418,-18.35126954485682,-28.13398835466065,-37.51473862253375,-48.6032101646882,-63.84065732201574,-80.69330600223742,-94.39556984440487,-107.41216921454193,-127.14858141492344,-153.09333048072466,-166.69750019897265,-140.45757964381843,-73.95204882023575,-3.614305591579626,40.38048877915359,57.487216546408895,61.12475958564859,63.56284652259597,68.18412451326239,70.41006841549184,69.10355583218276,69.88498571766306,75.66634592292198,82.97551664312009,87.26121205942798,86.16519417105923,81.2578828774274,73.45296129995565,60.188368150128646,42.67285762025246,27.3230055715265,16.759196473496985,6.195187585074579,-6.163932835287772,-16.138257275962584,-23.813431021375138,-35.58621827091105,-51.082965252836445,-65.25303037511,-80.60968086092122,-100.2569633665288,-119.98253807189397,-139.05672691860713,-152.37067020910848,-134.15313163797512,-72.79313004912389,-2.572555144878695,38.69800994806066,50.28279971625784,53.631598052448325,59.58835599665062,64.06730229223724,62.77577361578704,58.5714409367747,59.85063701237931,69.17452316468851,78.33581893346144,78.9016812224843,70.1071876793534,56.69576067501816,44.13716989662063,33.240019511477875,20.889158467553866,7.0412589142708475,-3.5969260798443745,-9.655534446164932,-17.75201638030668,-31.866724666980822,-47.82454894717123,-60.63797607873718,-73.18591555603807,-89.09245205618609,-105.69356928971793,-124.37415156349351,-143.72651633281743,-143.51747255856714,-103.70374926750026,-35.86641302755743,26.72543836624089,59.80698226223086,65.67134619094277,65.93303437503342,72.6985915501009,78.1000306606657,76.29570884010235,73.79755012465331,75.39269775302857,79.27679388301199,82.19794221442802,81.2945550489712,75.95111331788935,66.88498538352361,53.864594304573565,38.68786613915785,24.722260496015263,12.332084563801617,1.3227456288886152,-8.457179713598416,-19.94353637799053,-35.22149747882243,-49.66835854624573,-59.45032467423151,-70.305509025688,-87.25799431704351,-107.59159391578241,-128.24725349135696,-149.3681205307026,-163.67549239277798,-149.0804317245063,-94.90080986100051,-26.87752673988294,21.017538535834586,41.32273910638189,49.33422874488796,58.41766479296854,69.32402890952804,76.57445924609911,78.60545860319185,78.69838811278774,79.8248278764978,82.80331156005205,85.55465792584948,84.86644010014165,79.60873434584856,69.9855024537247,56.22762139982114,41.761590361155186,30.46360230160285,20.468829998949573,7.59189885757449,-5.838038153005762,-15.943186090565959,-27.245352514268237,-43.796804323788955,-60.44338441733761,-74.14353968867817,-87.32486884015003,-101.8433193454414,-122.72570813070548,-148.5424855074011,-150.81348329877898,-104.05767330888567,-30.709554798891734,24.70853062729277,57.0,114.0,68.0
54.480681057887146,55.64443965852051,61.26189753409848,64.64700887110493,60.70411120379497,50.14286580555726,38.00645900969041,27.311117776376722,15.850118307223646,2.843638653343933,-8.447161634608333,-16.364693849359575,-24.687178309351896,-36.91036688938356,-49.68411908935192,-59.78736589813783,-70.28882696352377,-82.97611062305334,-95.66396196767342,-111.34450944530134,-131.56264342715298,-136.03301698905815,-97.7366195729509,-28.74451301525088,29.452066428535225,57.35485052015189,65.21792880584664,67.94009047628728,72.42711181826115,75.83481662372216,73.72260940123485,70.26492675868042,71.19831914977364,76.17838885857684,81.66112862910244,82.39135044718302,74.1690798262262,59.21422876930069,45.25062139129728,35.548313184516985,25.07122248040819,11.573431952369864,-1.110823914038594,-11.392769458011463,-21.207929000924143,-30.85285695037571,-40.39195029927518,-52.565357783882106,-68.80251254084868,-85.05580512660994,-97.89285785829594,-112.18162663033657,-134.44212146654428,-159.58005794072974,-164.0783662538361,-124.21104470821912,-52.14622159093556,12.318873363979515,47.57918549059351,59.27793617081138,61.588404657681856,64.8050814941985,69.28986363750619,70.21347861539203,68.84783343164497,71.10990947211282,77.84743766426728,84.68581082963807,87.502955714287,85.01077988140788,79.39259306447423,70.26432782752258,55.327730180255635,37.73109946271205,23.910917268468218,13.94052202143195,2.675924906281378,-9.470986987775845,-18.331981516820008,-26.589203527138594,-39.9556683606042,-55.380246645620474,-69.28821186213844,-85.95563412619109,-106.12608477536543,-125.46645927987115,-144.29299680721326,-151.6649210047417,-120.0881571545761,-51.24912015753102,13.123118314191018,44.24124092287267,51.22590308155809,55.11354765360637,61.32147156069939,64.32177350855686,61.522283805218756,58.04317968532277,61.926075188303315,72.32667979015116,79.56297826816143,77.18291234730881,66.4249503902679,52.82561644649364,40.933612060214855,29.938371447849008,16.884677907931163,3.4158328287888513,-5.6279091506273105,-11.446370090539663,-21.270729177822442,-36.594683506412515,-51.89231311982304,-64.00213294793917,-77.49664710104753,-93.90736831213663,-110.68373030873491,-130.41674978738052,-146.92484483178856,-136.2737116245448,-85.64381131119939,-15.773712093163606,39.76851023590108,63.50061138486853,65.35174226284879,67.31078468671778,74.92225049331476,78.18111965748257,75.27315266863188,73.84445400815702,76.42103058608205,80.3666516889364,82.41219824995785,80.16835824759033,73.71271088240988,63.52313845770843,49.531698945140704,34.44504743990413,21.021169980252026,8.980038519234599,-1.552800199863934,-11.425325646857171,-24.033539158002284,-39.809354995236696,-52.87118335119332,-62.110083889720286,-74.58330734412722,-92.99561040524813,-113.54398064042243,-134.3355322044057,-154.97082123369594,-163.49141214244443,-137.00611306574396,-74.89901537013667,-10.017794103584963,29.268046504833723,44.0843303375417,51.594131305576084,61.601157100698366,72.00266085774955,77.58917260057565,78.66980403102566,78.83055202865675,80.53360953215673,83.77274397411192,85.81684802405475,83.79945663900233,77.29045362268847,66.36082178041536,51.89133264195701,38.12092526422238,27.675192443200828,17.099131718167225,3.501035694777263,-9.07043635113543,-18.73616366346967,-31.594213057484186,-48.88438762142815,-64.63376621293217,-77.90351465844041,-91.27036282421318,-106.91576012676512,-130.40993783282593,-153.34553101943035,-142.35891574855575,-83.5011441980296,-11.35232004855042,33.991872894783754,46.32783032558465,44.96077038909384,47.85829704568867,56.948631453775754,63.94348895084553,65.01006824334382,65.40381766972826,70.32633671314927,76.04057080746654,75.83236417938404,69.65255540026503,60.22050667959378,48.17900147299609,35.12436169586594,24.63135473596857,17.717248382353652,8.464317436638304,-5.603348252117774,-18.70166658503459,-27.712538538084658,-36.22799223708682,-48.88049615680732,-64.15026817569348,-77.43461190796125,-89.84627476360816,-106.6641631009539,-131.6537971308623,-154.0576908858583,-145.11764434122793,-92.16256642555774,-25.14471136345937,19.90678172856334,37.54233013304675,45.68432561406754,58.74947539808147,74.06905092810449,82.14570374881104,80.69950248747054,75.57671875991754,72.90194074823961,74.14674845157447,76.87062886158157,78.76432322453515,77.36729860832577,70.6271408030028,59.527342696378085,47.00937705679111,35.51567766768365,25.324318367551754,14.747832717329617,3.7035757872463924,-6.255943426309461,-16.34505909352635,-28.93758153429095,-43.13710083102981,-56.25790988957719,-68.6724873408829,-81.20354294015343,-92.49479425637232,-105.00230266815916,-124.80399528459911,-146.47399919265723,57.0,114.0,68.0
70.04320787949463,69.78729332346087,68.94019613704114,72.74685634177384,80.0287197284023,86.04662952777703,87.26579539062803,83.62226470613447,77.25520320986809,66.5437927409368,50.21532195888836,33.15698575448094,20.867352408952435,10.961290258582713,-0.9513544014785686,-12.443275041730937,-20.44212767837538,-29.877195393415402,-44.49915614378857,-59.47357644981158,-73.5894516398446,-91.6471524614632,-111.85915035603281,-130.98141778670737,-148.7537634597818,-147.4789563726845,-102.57674716844974,-30.20413129758759,25.74970186237288,47.69396987235649,52.050172290424605,56.86200448427208,62.75739507851335,64.03732793994912,60.182356074338394,58.19977190891643,64.61694855381398,75.18227416630046,79.93158147898095,74.73694088436453,62.51143809992473,49.139847338538374,37.82376165677427,26.425985249298925,12.816367862937694,0.20659003162386022,-7.333195441117758,-13.625261104089235,-25.301110900820674,-41.305314398838895,-55.62044359261044,-67.51492755066604,-82.09639368753746,-98.68351641614153,-115.98115019737625,-136.35039186613795,-147.77882207479945,-125.42530416362193,-65.8963346287237,3.0054159509952756,49.957265613669335,65.27000022811896,65.18198472507463,69.28640691374595,76.69986825716487,77.66915915385395,74.4301262612279,74.2587023141515,77.5635608300006,81.2949794466928,82.2474718591595,78.68765344474863,71.17468186245348,59.81668775277031,45.10551878990385,30.37255404970179,17.422638524548532,5.761128230159515,-4.3492051609176805,-14.639516857127267,-28.449794638707417,-44.130036979401595,-55.68223594225097,-65.08208284626969,-79.41064656739107,-98.88923475357245,-119.49212558175745,-140.49362717836436,-159.67583948451218,-160.2213817799779,-121.6805877311161,-54.71936274986832,4.479189092202633,35.363843437981785,46.307826692384225,54.14716037581945,64.8391871585248,74.229273128886,78.20829140763219,78.66749201832337,79.10722623281468,81.39149686588688,84.64402118188498,85.7177713167517,82.35751210153543,74.6030783032906,62.40815294453479,47.62358503582123,34.809664576085076,24.874547360995948,13.412040484168646,-0.48772861819545205,-11.983217159174636,-21.84095922241246,-36.37956580937851,-53.78935152505366,-68.59194142390565,-81.69302870998685,-95.35419512250347,-112.72781621751086,-138.28173886137625,-155.17951634606638,-129.50522870627574,-61.81749532333621,5.500928968290246,40.3427510254233,46.314230292995624,44.946576530895015,50.15409883628859,59.54114169767112,64.7631837129742,64.84559789518681,66.3416488103617,72.25619977301521,76.73813977600877,74.50948889663982,67.20853800004362,56.98417650079017,44.37843994576588,31.66397500680683,22.424510042834797,15.590818414729208,4.722479825354095,-9.77045732501572,-21.66051166136327,-29.973523036541682,-39.364754869009325,-53.27520212701917,-68.27171876195925,-80.91854720810228,-93.98110717137234,-113.10697149601415,-139.45575249466685,-156.00461672804917,-133.720801775404,-72.27971417377137,-8.962831510618576,27.2440859372583,39.95136446956728,48.75890270454683,63.396238139678466,77.446205429904,82.54716843190049,79.25992442030076,74.38944940825414,72.92279689375168,74.9131870471837,77.58373614943524,78.83392011074649,75.98453134921012,67.75483492253858,55.918251085760474,43.52174818316854,32.494691308622464,22.37596080557865,11.527162766711156,0.6916039171078431,-9.02051793361632,-19.691196976838032,-33.0045585699504,-47.10268129051218,-59.8259917805153,-72.33348879551039,-84.6160326863766,-95.69710760331652,-109.83857322574714,-131.64698988283075,-150.002337173383,-140.2942920607508,-92.01691225443369,-26.794057277373632,21.86389979954333,41.440065325878045,46.3522880836134,55.1321840348816,68.38588557434348,74.34955158348475,69.46447467418466,63.156404839661114,64.87423439874398,72.35404533670552,76.41633285169796,72.35983936681366,62.51634416563807,52.480329409090906,43.95249567736732,34.42111758787764,24.19301716834148,16.272351076638063,7.956051308269697,-4.42277131940593,-16.56799783011877,-24.409710348910075,-34.021478505656184,-48.93191931003632,-61.24558082105906,-68.31198214807864,-76.18271621852433,-87.5270128954978,-103.06914641282877,-122.13494429830574,-128.90938687716402,-100.37532453838418,-41.098813467828414,16.255338179360606,48.14557627685261,56.12236956535797,54.50859147325555,55.98862435297748,61.88867732524274,64.10737774504062,61.705164889105006,61.415243644962636,65.01047569195316,69.32055080194407,72.45774553458205,70.88667293378055,60.99132905738765,46.620654110428426,35.7252519783345,30.29183393590132,24.257828108035813,13.927167569417461,2.265806888842203,-7.196098641166278,-15.041983531819202,-26.49132490956334,-42.008233561306234,-54.449328962664595,-62.28590471357046,57.0,114.0,68.0
65.53684663801116,71.60469414215365,77.82579749130402,76.77164711269864,73.90878949107763,74.97871660830711,78.74261029679796,81.98217743514053,81.68618764534442,76.88424921105836,68.31681659547681,55.80154824563647,40.692391843121285,26.470446970389737,13.915941925026589,2.689850841017317,-7.143361535708424,-18.18397332539871,-33.070600041362496,-48.032118646063104,-58.27169711479164,-68.52884588221757,-84.69844145442588,-104.84338826843876,-125.46962888244673,-146.6167632278371,-162.88499068708498,-153.44079694393056,-103.77781674290134,-35.32478767859741,16.3946577805178,39.744484102523955,48.36468442149297,57.009030482827825,67.96583262222414,75.95061158860425,78.5296831618338,78.67410923779173,79.556585342396,82.34802094579052,85.32682247635475,85.22691085483818,80.55734299906165,71.53180394827658,58.212512575499275,43.548363821569346,31.7858107167467,21.91754319741122,9.466072755681784,-4.226586323159761,-14.70266999677751,-25.416438620819132,-41.4324901094786,-58.41456952788048,-72.40738151378129,-85.53369650349859,-99.70102467819977,-119.38449740015997,-145.60566423843338,-153.1871868441755,-112.80457598446593,-40.27329861399013,19.374607033710497,44.16507575947634,45.75366664722195,45.604199789333336,52.839333002927724,61.725020612000925,65.09322817909445,64.82782485645515,67.72322464889109,74.05846084961566,76.81441523354138,72.7681691904215,64.53629134448762,53.533519695519985,40.55468867646706,28.524393849928117,20.475992178897002,13.062962523757315,0.6300308755929603,-13.671350375309672,-24.281263477978484,-32.329011190161744,-42.94112515572018,-57.75750082315137,-72.14542963039236,-84.42074615562838,-98.63754080620532,-120.28457859512389,-146.56386799610254,-154.49384181066316,-118.74366374460737,-52.3305330186232,4.709768245434951,32.51039864499285,42.11787791716336,52.44601436468898,67.99869374433287,80.00663129348685,82.202614925933,77.70774805853605,73.51983015522161,73.25562520152683,75.72113883181422,78.19083755396062,78.54932516418415,74.13028876385128,64.57267717015576,52.27154154651653,40.16385714626381,29.562468427263042,19.343362521879726,8.303079910578372,-2.1958202136593976,-11.870265301654722,-23.285540711381746,-37.142953535947605,-50.91779419764245,-63.39181100575341,-75.9895049486866,-87.88426445553067,-99.1357386937722,-115.43554675943292,-138.3156446863183,-151.09054959142077,-129.93599154250194,-73.33077380570413,-9.884383167585916,30.254978625355186,43.36165626345033,48.05012550721367,58.97161776916281,71.31246669356256,73.80340478114564,67.23267947217718,62.666800467601846,66.8436734366703,74.2257484890971,76.0965374636533,69.86346030858631,59.44037911691588,49.94147642940546,41.40349419707608,31.37481396430199,21.64417393765683,14.171610436157685,4.7641357040504575,-8.28732284008545,-19.18326549689916,-26.60752495733836,-38.00946305363609,-53.127435932084985,-63.61095973562435,-70.25961151637883,-79.11438529374819,-91.48987524159185,-108.52568977256918,-126.51953431676309,-124.86175493646112,-85.20763998117756,-22.818113513930186,28.440753755955768,52.36443220939987,55.95648671261495,54.27872659529659,57.54733499722795,63.20647061355244,63.61111869180754,61.164370060800564,62.174813096957834,66.30195562441008,70.42387133013837,72.73155983037753,68.87604871264757,56.94136663354052,42.83537263387582,33.77371252506278,28.917181316169366,21.671454227862238,10.493415784324663,-0.775344520252747,-9.445238885897398,-17.7610581566437,-30.815336502312288,-46.207623207530304,-56.95618242428675,-64.64990309566494,-75.91015538717473,-89.12468403936148,-98.92968238154533,-111.46668517282097,-133.59018124207458,-148.56780677657846,-125.12987013479743,-61.05860576647187,5.659369554579941,42.12814050788179,52.174330303849636,55.51293917237721,61.5835632467213,69.05212450505135,72.95522458890747,72.28020866545396,69.83590073928399,68.2719296602482,70.81976324275671,75.82963499751465,76.08298555962287,69.86622437323275,61.15792097487261,52.20854752781894,42.50285675696409,30.197890684692247,15.668955179008623,2.553330445488187,-5.039043688964014,-9.881636803022069,-18.95737699655901,-32.53647053211371,-45.96016943514971,-56.536573967249936,-67.38300410101641,-79.14921979593322,-88.97323911768065,-101.29679465882812,-121.65587295889577,-137.94600766671238,-124.80083731315005,-73.80088429735319,-10.065436734834014,34.38769129854738,51.73991713912574,54.14493633925696,53.986933620815414,57.02438815713557,61.8274005794197,63.23413565990682,62.670905334439944,66.00712759292524,71.95810648827347,74.8989682015762,73.04724495581279,66.30871250359466,53.454738764974444,38.34816768774457,27.76000201176817,20.462546060872683,13.185456264530002,7.723746801780549,57.0,114.0,68.0
30.094077815259325,45.992885604011015,45.14514475416977,46.98954063553329,55.667113549231395,63.376413852090444,65.07979259585994,65.12638529512877,69.45436460992875,75.52520261111172,76.27399742250252,70.69850690402677,61.63568676093341,49.90129982577286,36.801835036749196,25.768563447753863,18.608969038310573,10.03416211989809,-3.6340903288744664,-17.20658499686335,-26.661790006630188,-34.91994234177218,-46.92881523985168,-62.17213391374859,-75.80216941923752,-88.07253255530202,-103.95801085360917,-128.0056553117665,-152.19488952596063,-149.0262523316907,-100.99462224589504,-33.34051037505693,15.714163369209372,36.210501524889104,44.46029263529612,56.6702061085368,72.27626670960092,81.67670215164543,81.27298892393924,76.21034355353214,73.01145071539466,73.82681845027139,76.51781392776053,78.63471604695494,77.8454100850014,71.82792991919052,61.1577125029777,48.6531492881286,36.94983142096734,26.664793493274477,16.216548242482283,5.133027052362771,-4.986261919266979,-14.883838465960876,-27.109421317146637,-41.26473950627713,-54.595932408481765,-66.99523997022483,-79.58319847307114,-91.04715034946173,-103.01343960572291,-121.72696275215148,-144.20660693784748,-149.1835154852124,-116.38437933861567,-54.06667191159636,4.8765761428111585,36.22658798103636,44.615791273054725,50.4238965935821,62.975688387348804,73.31618222177448,72.4250562426316,65.19970625732913,63.00806728749855,69.09626878182645,75.58994998604562,75.05541974701036,67.00518513817043,56.48515312355729,47.50477220078848,38.68936101046454,28.34711127153031,19.3447301316859,11.889234743904161,1.198066204450692,-11.936071717567035,-21.423786891152947,-29.206858231677284,-42.38486634571189,-56.84572348127577,-65.61722338123569,-72.44525966107693,-82.3267692982885,-95.85814644118274,-114.20655854225558,-129.27071308621612,-117.369874634567,-68.0012793242734,-5.619226718893494,38.17897800951859,54.84199588771413,55.38171455449874,54.5591126891833,59.351754759496885,63.990401907968895,62.85114261008103,60.972389286288326,63.21214800555743,67.56983680304623,71.40779480413858,72.47460566172359,66.12797492773126,52.69875350399801,39.53465750708477,32.221584126287205,27.296126514575054,18.71577947725641,7.065637677364311,-3.567362803056057,-11.631311838607,-20.940566504527332,-35.37813810930396,-49.943268752368695,-59.1640925404583,-67.3841570454432,-79.85643776895691,-92.306648219126,-101.7315026926282,-117.04741046688534,-140.0784910571231,-146.76518906244243,-109.61410447399768,-40.025151401832474,19.81946626043746,46.8430080338739,53.13885087952197,56.89967671629639,63.821232466325164,70.70974433234755,73.12748412346534,71.63547005484645,69.15306455068396,68.49293440211883,72.30993398327524,76.65432490747486,74.79678008727721,67.44943388418334,58.56845063221349,49.56913904021841,39.264406987582724,26.120878307705066,11.512541854915169,-0.2771787773595742,-6.368830308650134,-11.895841769388094,-22.58787209197577,-36.654387430841886,-49.25358192410128,-59.46930675362214,-70.84726457530421,-82.18482060803723,-91.87369963151255,-106.45070255245962,-127.85730588624403,-138.1575498532939,-113.40565454695029,-55.037070740579836,5.671689999584363,41.83554489185236,53.306894255968665,53.98257954942856,54.456358551882914,58.471123794791744,62.71490367522916,62.979249079753245,63.10503793259079,67.72261871744456,73.29407894137225,74.83105272314212,71.66582117131203,63.209433160716536,48.96062277737507,34.69397461825858,25.550426757843045,18.334335822531845,11.3485484877555,6.417169865332535,-0.04348981202962218,-11.781099568702286,-25.055827544167926,-36.101049029653375,-47.07238117256482,-61.10060862330963,-77.29394152862784,-91.34619051682564,-102.16301999113938,-116.03380629267454,-136.77765808997495,-148.14033092313903,-122.37513735240304,-60.487939817015764,3.42955996633556,40.16625179555016,49.658544388581575,50.548433933538426,56.129740348647076,66.09619916051007,72.06950385547573,69.3455521727716,64.8889481391198,67.47992094798363,75.04182482090451,81.73133683983421,85.7783058717457,85.01106898173526,77.08136691224223,63.1152520731456,46.71239311475992,30.334062803547592,15.646934091183685,4.099575288087932,-5.676019398066048,-15.262430611584817,-25.517201243215695,-38.50814599237758,-52.75727316694527,-64.72034071157496,-75.76548630128363,-87.9328887667422,-99.49285625732975,-112.9031927552789,-132.99584377073307,-146.24925760974293,-124.26616069223003,-63.676777442251314,1.5271628922192664,40.43212713597412,51.837536173602686,53.24607623643283,58.981600286590925,67.78807094149684,69.62839912677536,62.53161064955983,57.445132277626826,61.49103716490378,69.1611752386283,72.08926477950872,67.865080591078,59.35558032898257,57.0,114.0,68.0
-148.64030599476962,-143.90772031135432,-100.1795513010893,-35.154722013934915,17.11515616770996,40.16761252252543,45.74624913457373,53.50477779601151,66.78940118843991,74.26884257369176,70.47337032351952,63.64750761916914,64.13176645321478,71.36868159353973,76.31764451415825,73.3467491659619,63.948578502310866,53.70268913109394,45.08643343192537,35.80079142929089,25.454502762869314,17.224006348101952,9.287974553956232,-2.623117516078236,-15.210098591515065,-23.467703963034637,-32.36419923324408,-46.89012281537461,-59.988993994975914,-67.4613446738398,-74.9315029733499,-85.81687879163388,-100.68661374437495,-119.75781914507154,-129.6822972181068,-106.46520597913303,-49.66670057020641,9.842694399193665,45.51931904652556,55.95760349536998,54.742171622252435,55.413068270492886,61.14148349979142,64.19400018804424,62.04006125861871,61.183642044628975,64.42238077939568,68.78362457218407,72.1938176822111,71.55705529325641,62.73358770439698,48.489710625156434,36.796669870134274,30.888661919798793,25.311540206894836,15.481031519164357,3.7414766027298336,-6.103777665637201,-13.911495940549298,-24.628613888432543,-39.95647415934489,-53.146793003026055,-61.28042293155893,-70.55980972358064,-83.79621664602237,-95.12156239793843,-105.07004042713062,-123.48064189387628,-145.2539524432721,-140.99500612709255,-91.14839360075267,-19.96646546216273,30.963054858823796,49.80959151013201,53.99445262128393,58.60487996782828,66.06614900927183,71.95053966007094,72.95884947637292,70.91710925973892,68.60816056660086,69.14418976796262,73.87236145848934,76.89167122344554,73.03463971228862,64.9262990807807,55.98686815181133,46.82436188845394,35.766868171726706,21.90174321192429,7.591323326328915,-2.5601329918101956,-7.648590806956484,-14.405354581105883,-26.51775087619141,-40.62268308184972,-52.30179593761667,-62.55070962871646,-74.31675809504965,-85.00416276319864,-95.20659365020568,-112.334127133396,-133.18925261331464,-135.25611151306225,-98.96625176924378,-36.123285634843754,19.150525331954807,47.13155130388653,54.012093546292526,53.84421812249029,55.27275995516263,59.9512730577619,63.19592949919172,62.705969135204995,63.98805639691913,69.52259717650153,74.25286357501936,74.37619883967118,69.85288821535501,59.56843447990771,44.465839432562376,31.54665210207012,23.479786459731883,16.186408412361285,9.73947300061664,4.986274369035694,-2.9277529068291415,-15.730438071658089,-28.47459033851691,-39.098054414648765,-50.75544680569732,-65.71819468448767,-81.75990404921279,-94.64234399052413,-105.48388405996528,-121.54512454939399,-142.34967878873886,-145.31414977301787,-107.04582217329124,-40.510915153970245,17.434160384008024,45.005321320270504,49.9592526428161,51.45101464361437,58.862445002951894,68.62293091715868,72.08692130542478,67.71423551038434,64.78397328228259,69.47216921795066,77.19915519910629,83.22238451836859,86.19307814962593,83.48606250171619,73.51894076794683,58.477569803269375,41.9124106599854,25.826160739959107,11.988111488492498,1.202500085894193,-8.44704094389593,-18.07050036690628,-28.9387605978484,-42.69630586563735,-56.49530731314533,-67.8460092335813,-79.19856285190981,-91.40086721377313,-102.84586799695418,-118.12057871667112,-138.7641244446084,-144.51371932351256,-109.6912311500586,-43.4826635543489,16.095995821680198,45.93367100946319,52.41110864485901,54.19986219415401,61.62930633403914,69.41145624003794,68.16852857481999,60.290441213946345,57.73298131238604,63.7525727476245,70.75596399059987,71.51254325644074,65.71633048194825,56.45016339421461,46.10793795587282,37.91349868151955,31.193537542711752,20.69269355498884,6.349366226834737,-6.789111835985248,-16.794882081299296,-24.999860691625447,-33.12797456744749,-42.4951822896768,-52.801352899511286,-64.01609487093322,-74.82354815278431,-83.11141670749466,-92.74284089681647,-111.21188877861616,-131.04466294396755,-123.40721406538734,-72.26957264770691,-3.434143565369395,44.40559070910224,60.31767185591223,59.6362948435341,59.0220680122753,62.042456196697614,64.27527804249705,64.06619155422972,65.68867938653001,71.24357144290398,75.09762696654094,73.20364170884568,68.43291514469698,61.59826050836929,51.83287732642266,41.02517577154368,30.712082599155845,21.064894944357032,13.315802888242278,5.938656074651561,-5.2441677740035,-19.68571178532158,-33.13178157371481,-42.97080144323834,-51.25756349487499,-62.628057227854484,-78.19471610324348,-92.33422721127273,-101.58744026716073,-112.62835560165989,-130.94858386826292,-145.12958604010555,-129.14419292527467,-72.7928448277614,-4.0239260002939545,40.29853688212705,53.03250676798513,52.63553177089268,55.28159731581926,62.48295505537619,67.49301155060151,68.16930897101449,68.84310578179198,57.0,114.0,68.0
-63.52171078717247,-74.1482070542755,-87.52245949523189,-97.72740351862437,-109.22588596733297,-130.39690899602974,-148.20168384552795,-131.0654322242623,-70.77143950387382,-1.8436146766363737,39.208593643068454,51.59995767875937,54.976895135897955,60.59332407711709,68.16921078427883,72.74021529956423,72.5364869172859,70.17354820389146,68.30303469040412,70.21055778746822,75.28743076064615,76.4839917866971,70.92371874198389,62.35169953978968,53.40575608043683,43.91463211227391,32.010352881851695,17.628538235297498,4.036477436582971,-4.346975407542728,-9.101072961221771,-17.414836242994838,-30.622274550043933,-44.34335150594459,-55.20825824092673,-65.8196454716736,-77.6699096513273,-87.71244931840995,-99.19491534832642,-118.68549147192145,-136.9428605768655,-128.9123024124585,-82.13567691157007,-17.964796976295098,30.154247820633223,50.626922225105304,54.17606431496214,53.880313952596595,56.41157681551068,61.29637923119126,63.2923944772095,62.60922628405796,65.29127972345702,71.23791951131385,74.79272819538625,73.55204142235097,67.55013501609555,55.46397277698288,40.192392675540574,28.867034490050198,21.425000177767036,14.10031190821793,8.330503044266653,3.2636949761446905,-6.28072199148125,-19.644049090175194,-31.675096576641966,-42.19053056701519,-54.748434914585765,-70.44517956381895,-85.92113031209634,-97.71512055084804,-109.28284189069562,-127.63194254684798,-146.46471684486397,-138.74976702682733,-89.18280811242509,-21.372537333574968,28.679165299324893,47.88397366033041,50.0546453027669,52.9367019339924,61.82867804355677,70.57343195677404,71.3574122509045,66.2316755040535,65.40722578198164,71.70667986411323,79.18289864558568,84.47856483543248,86.12563753550215,81.3255264624298,69.52311263067607,53.72918888402953,37.150921724029,21.507856105200904,8.612821634280284,-1.61424570038661,-11.214669674200007,-20.969024211160843,-32.646308622811766,-46.884535101978855,-59.98149328892251,-70.98927204443015,-82.73388871187323,-94.74420596680169,-106.52245771457058,-123.962563607102,-143.35960222242898,-139.11242085899434,-92.2693212262869,-23.977143955399665,27.964800257991218,49.407873081994246,52.65582777744564,55.745365829430526,64.33636422252792,70.18945679459834,66.07205487567323,58.57171124264724,58.81754465837515,66.08825351897883,71.77406771195363,70.3663858495758,63.29282396995331,53.43811664419649,43.40965287349252,36.04152489481947,28.71664394316149,16.74041134393471,2.238385467530337,-9.96164171944343,-19.28070535039587,-27.27230379383392,-35.69702470153542,-45.39789926799469,-55.94443853185724,-67.31628722155601,-77.46606335759375,-85.3827018569639,-97.02406018282612,-117.81685456697059,-133.03842084537226,-112.73274630934294,-52.264541710129464,13.720056061098356,51.89639454722058,60.910254804657384,59.026911173311134,59.67187430230902,62.96496882488447,64.35676925110613,64.11149476116071,67.021834884917,72.86229398918918,75.08602010814067,71.98005800622877,66.74706179814234,59.03874692558588,48.70392966746592,37.98992138025363,27.819300923708912,18.59153759012167,11.351843573620812,3.197079580229319,-9.248016344985222,-23.861523888531558,-36.34624716675794,-45.32558641542486,-54.04990118032369,-66.83905390293114,-82.74833445203718,-95.38380793467927,-104.16072600568445,-117.27403701808922,-136.50487683045597,-144.714160387704,-116.44395392786274,-52.2972192257582,12.330699976604187,46.6425720754433,53.312130949492015,52.74118986570396,57.1543249105102,64.42359502980378,67.99591666712669,68.17206271991378,69.4190365195404,71.87842473013353,74.22711631895244,77.73369572298817,79.48816049416371,71.92700733651624,58.22556072591028,46.9580486408165,36.96543390187027,25.36131192890925,14.949485983938956,6.470019518222799,-1.9524616226366613,-10.934186410190796,-20.200489708693585,-30.600839191184857,-43.13107717098119,-56.923097699440525,-69.50491414076572,-78.80617946828595,-87.35540891144677,-102.19578349434731,-122.99114004878888,-127.89614628534422,-91.35188284831383,-25.278104615980396,30.33800642001689,53.51118196300738,53.38313364474116,49.242739738124996,50.09961197780712,53.89643419902503,55.29470772528907,53.46153306157484,53.48238837099363,56.36902918135275,57.07667482193984,54.13188917965728,48.64148515293586,39.73457838556084,29.696844465481806,21.472219864578378,11.502690887802773,-2.874416032152034,-17.453139454951753,-26.648766337029574,-30.954619903455967,-36.874248982519674,-48.55667261419991,-61.055644673320465,-70.2002455784652,-79.60201935392327,-94.58967806350259,-114.86659930352218,-124.5265383208494,-98.12515588828602,-36.721455069138834,22.906670298613097,50.747041274583765,52.102601938991825,51.01840459956209,58.900958788612385,67.65788040756566,57.0,114.0,68.0
7.024587831493003,1.1143492226900216,-9.991822684459342,-23.398973019761307,-34.722300394694244,-45.47351191522145,-59.03693154479756,-75.16024601098597,-89.7188533306568,-100.73298406130752,-113.73452097880076,-133.94182932734958,-148.2867869063484,-128.37477879173622,-69.71972836977021,-3.891316400357709,37.146908309403806,49.32718853536183,50.30614486731084,55.003254180679164,64.79620344766332,71.78526558026812,70.06211704236001,65.17432677436852,66.6977828234627,74.00234796250508,80.97316686410723,85.44781379136214,85.50180318503388,78.5522530919507,65.19482432895857,48.929919786419376,32.461070335425596,17.432450456129423,5.479842738957128,-4.397087753925729,-13.98217998291712,-24.03048604204209,-36.61285423404537,-50.95060366226559,-63.258168663848885,-74.22790919467056,-86.30103994789629,-97.99519458772488,-110.73602951695308,-130.15218241767207,-145.95350781159595,-129.8266069355571,-72.9382335266881,-6.032094754860982,37.09968042541368,51.33181953930206,52.98058295204426,57.855276597765126,66.8083302023091,70.02151149685584,63.65483208103806,57.603905443039224,60.54004680624825,68.26714923433224,72.14244511130673,68.74554828168378,60.64256122164862,50.398309496224236,40.980031387840484,34.19551734883829,25.789948088894743,12.557111259586197,-1.6395650010616902,-12.884660741590162,-21.653686215850282,-29.586281368902053,-38.38640655372458,-48.35876481878209,-59.17889770814965,-70.51083714649904,-79.86561240983147,-87.95019671046038,-102.22080601949652,-124.10003655383508,-131.87762465269358,-98.38712398344197,-31.82692768140116,28.30200893184463,56.82143129574283,60.63976479880177,58.73171068112334,60.57021151774453,63.690432034930964,64.2604260057936,64.4612614316027,68.65674254813786,74.13408960442742,74.58488873493764,70.62264352809683,64.84679527223508,56.23791824070255,45.558634143874436,35.00534803372032,24.989795281635683,16.321756045069765,9.317912458324889,0.04938170336562597,-13.446084324513425,-27.83828297663409,-39.23356900278371,-47.64928461812493,-57.21942663937325,-71.36119755828257,-86.98302057648887,-98.03307949637943,-107.14196001609477,-122.56975076463632,-141.22529023128473,-141.06268831461514,-100.46801313974356,-31.80670437695648,25.89102104264564,50.560794271021855,53.06110370789992,53.36870064600733,59.29613526602486,65.99583315334095,68.18061834181128,68.30884583781312,70.10485148700711,72.54712680072066,75.07307116002873,78.79448290441803,78.41144020284763,68.13543703661689,54.559352579091204,44.18728264621704,33.709177578760745,22.103569568974073,12.379136158515438,4.096120267527008,-4.5067391579883065,-13.574513324240433,-23.022427176902237,-34.0001540739377,-47.07444598490046,-60.812388179801346,-72.54039942200048,-81.07598748850253,-90.71392554093546,-108.10551765825313,-127.49313212045016,-122.00227826673165,-73.63490940551985,-6.52240082375242,40.4480779576354,54.95844198498905,51.93315866894218,48.9193616553345,51.14038921325644,54.72706457691333,54.92975678436402,53.0550831840459,54.2153402178064,56.98407226130728,56.52911595773035,52.82342388877174,46.43187865388394,36.72756005854144,27.18100844125458,19.00771157392255,7.7327655087322995,-7.367377816161413,-20.793099646330692,-28.176593162712205,-32.16971495571368,-39.72298684157822,-52.41864454400553,-63.99723760281407,-72.62535601334916,-83.19007703015039,-100.23084992374854,-119.9299185828712,-121.3921434538024,-82.77784326257486,-17.427186868225313,34.66033344248053,52.84737867530206,51.10249233505926,52.460682380163945,61.94890185326484,68.58658272015015,65.09849758028379,58.70525977420568,59.088187784451684,65.72567538479066,71.84570306496863,70.77329268353223,60.885756161568786,48.84431883692068,40.929456837610296,34.69805796604118,26.398358133611637,15.222778329368495,1.4186085313869767,-12.53507134577643,-23.77950567605825,-32.643873510899105,-40.05232981974565,-48.33817938607653,-61.72385902411182,-77.17853382991377,-89.48463842353118,-104.4000972901749,-126.06155051406185,-140.76065831691542,-123.30136013775655,-68.87287313883549,-7.050744783827423,32.4617134118903,45.37535142698588,45.523324290027716,48.088016062547204,56.412805783169205,64.00502621008513,66.33296644236844,65.87652286164318,66.49451447963126,69.15203948301017,70.37645883742567,66.82853979440704,59.74197497499746,50.21067021390342,38.81396927130539,28.481937280426138,19.84159630871573,10.85454918462053,3.377694500021883,-1.9710026308188349,-10.029871663529224,-23.033720685354105,-37.497574556309786,-50.86204336418339,-62.53134379941791,-73.43883509650873,-88.07786149581007,-109.85849822412705,-130.4401779978074,-128.89528752309047,-90.25124008542727,-28.195074925100826,23.702809699240117,44.58659525221644,43.64811931145334,57.0,114.0,68.0
57.806873298691414,47.42700429395558,38.826751877402586,32.205227151135006,22.399196404773186,8.297094790413855,-5.232213887624821,-15.600864497257291,-23.95270941602262,-31.98488787334246,-41.17929267269964,-51.38212999085802,-62.48318291985104,-73.51761243941078,-82.09949469055357,-91.0617033808763,-108.23764787625205,-129.27332040524374,-126.99535335212221,-81.03150411787587,-12.055253316652182,40.001619064550006,59.61127770998242,59.97122101308468,58.83808680674729,61.57926633084343,64.15434070819745,64.11128427664698,65.20476901202338,70.4323461879785,74.91948673523324,73.70368065959191,69.153509737259,62.68719832995547,53.252345644381975,42.44376869369693,32.059243939079,22.268523742209872,14.234745865247723,7.075870401733369,-3.4928912110597166,-17.721607276930357,-31.535701197080858,-41.841185159603576,-50.07169979118717,-60.82054107690621,-76.03875794311396,-90.7628650257496,-100.46920483524184,-110.73284874988747,-128.28026317337353,-144.39608568833842,-133.77242063408988,-81.9372912894136,-12.373279004386085,36.4397280990852,52.58102698451529,52.723343784344145,54.55821703702486,61.501847371315506,67.12448428477086,68.18598279210933,68.63109039988693,70.83537917402805,73.19845272154842,76.07633644793616,79.53030062034222,76.39256655377245,64.07388013553971,51.25451978260963,41.37405140312188,30.323143750920504,19.039858214520788,9.935765597526826,1.6806024326090248,-7.101293084296381,-16.233735388814633,-25.97732039136503,-37.589452919596,-51.081741856890815,-64.52773528250536,-75.26804354202629,-83.40992564150773,-94.79810208703047,-114.3614876281843,-129.87441716302828,-112.18277804660387,-54.251485550709894,10.337123201285241,47.651310126489356,54.938671742047326,50.58072787672048,49.09265626501369,52.300696846229364,55.229361777180195,54.35318953691334,52.9630187923903,55.110279130715014,57.28137317566051,55.71022935328433,51.31196967813442,43.89928092395678,33.75337437692547,24.833960473110192,16.248764081789396,3.5944305060309647,-11.711260783440819,-23.575259164124414,-29.387348940357043,-33.71926348331698,-43.07482682747706,-56.141280094219056,-66.64265926705444,-75.2172000161836,-87.36404978995452,-106.22657690838709,-123.51054542269613,-114.6346680812191,-64.98458571520818,0.5962846538323018,43.32337502686106,53.22523560426406,50.50930752729825,54.69907591950376,64.7277154387868,68.55067293719802,62.99219745166209,57.936130697994216,60.61759583169596,67.87803036138581,72.49684756623368,68.66496525393924,57.215581856322245,46.09013117587427,39.19300117431295,32.57648886125143,23.47799981353203,11.445878859746097,-2.761507242728788,-16.10861074883619,-26.52295528068133,-34.90551916837513,-42.14245560174257,-51.610195417143515,-66.34066909199151,-81.00777139725136,-93.11097217692392,-110.18046707434996,-132.11487668433,-139.94736585768766,-110.54919837361967,-50.080624220281436,7.346204545396477,38.519928882691694,45.93142117935311,45.5934370812799,50.09431205080644,59.02026269843005,65.21050380061136,66.28877427254609,65.82458417281002,67.12825217386069,69.87717504689395,69.85476838930751,65.04825569842744,57.244611095070205,47.018249194022474,35.58236916069079,25.928085135703267,17.27769991658008,8.40453029508155,1.7551854175079358,-3.7781154841475466,-13.382587931188207,-27.231901298755986,-41.51772978911541,-54.411562492446876,-65.63925375132425,-77.01481941206724,-93.71399567212302,-116.6914711394117,-133.29094525318905,-121.56865900619562,-73.3577219206882,-10.72388537607783,33.075295367272496,45.51419290815105,42.85188262100489,46.82686271455743,57.90112151081383,61.83067497906124,56.0975902706577,51.107967422775125,52.948378888331064,58.36146818391073,62.0598058569909,60.99143606141295,54.88770710310494,44.12440804117934,30.338787383605137,19.264739404456268,13.576473506099411,7.029526157314452,-4.859233758577909,-17.81875805182231,-27.747347454908365,-36.18581566620622,-46.75107009721569,-61.4152472001366,-77.38348886784232,-89.29868303137204,-101.16132016267872,-120.58516090574219,-130.71067235508605,-100.98233102217048,-38.19890121345318,16.71892814996738,41.67734886212382,47.49639843222167,52.14930634639383,60.48551901156967,68.09382048384609,70.39468877814214,65.69340979269879,60.657051654383324,63.54972659131486,71.077774931659,72.33045546184167,65.19320192746335,56.38066544159948,47.853696084820285,37.51279331350856,26.147799668366485,17.27193782122186,9.385615010464463,-2.0945624180864155,-17.334237476094113,-31.344822613946057,-41.14196347753294,-50.917198694293624,-64.52353242020794,-80.09448823758476,-94.79859502634012,-109.48628637170485,-127.29977503312548,-143.30661114097848,-138.01514701942529,-97.14504274844289,-34.73911818164141,19.31586815297807,57.0,114.0,68.0
69.13597233747203,71.5572940054306,73.88264245931771,77.20320137518229,79.68030028969062,73.5028783522191,60.02447678436057,48.26415636227571,38.40305874082868,26.911731464428453,16.192763150295246,7.558937742712003,-0.7923870009665575,-9.72108413364498,-18.933207951938634,-29.098988088687083,-41.34926609826048,-55.09198589212461,-68.00052966800142,-77.73323632339942,-86.0092211066012,-99.68309093964348,-120.43966281735733,-129.32289769626945,-98.66915883134217,-34.332868601671485,24.68000936470864,52.19855847776144,53.993410824942615,49.56098062155087,49.701135213659484,53.42793582907361,55.358399482366046,53.722601672062495,53.237777995583,56.002984918426435,57.22214028391717,54.67343825343347,49.55152299155341,41.093100319835,30.92902224149049,22.54654171217237,13.099117196509248,-0.8016914299839218,-15.740360315814936,-25.79810288107576,-30.455868508880734,-35.750756413205266,-46.78229299633355,-59.58356106564168,-69.09630085570643,-78.1212452546102,-92.16768415570985,-112.23024776719528,-124.85678032961005,-104.15286089768121,-45.757693377335734,16.481496806450636,49.02179292490575,52.567823030936204,50.65482109040089,57.503265308468116,66.91716229836163,67.62371311734151,60.95722783671352,57.89454860264504,62.549808833354184,69.8025163926078,72.39795484670759,65.85891986743341,53.60665453891866,43.75839039515145,37.455392307665456,30.234729025792504,20.308519057762837,7.466791583619028,-6.863993355725274,-19.40780615465122,-29.108631120693275,-37.04903601606487,-44.409330760776555,-55.402015841220674,-70.9307636467053,-84.52578147631253,-97.21276109063473,-116.507691869744,-137.04668284206403,-135.80028477795133,-94.97833701035646,-31.648076682349142,19.36388106362975,42.50688626639754,45.86721071748651,46.16827348081058,52.51803911900311,61.356829316681285,65.94342392464655,66.12357973682921,65.94291278480542,67.9168322175642,70.35215328281802,68.89838749872088,63.037641168455,54.539997104450144,43.701397287792055,32.5374646489471,23.463120984903178,14.654607921182333,6.171389470459476,0.2663422100021686,-5.972804386785062,-17.119125976953434,-31.444629888253726,-45.41437925559432,-57.811719188958776,-68.72664933317812,-81.0606474414246,-99.97221337109245,-123.07245481593426,-133.6875155042477,-110.96127918563889,-55.17734230674558,5.01786011998798,39.615133899072035,45.14076713084079,42.78153249227247,49.899125302235745,60.256086098065225,60.80781868736958,54.09989365074425,50.96073018646331,54.39828579899465,59.79999196797005,62.29229148810662,59.72127779619036,52.246177542494785,40.26543275238708,26.576454241979757,17.20916763887592,12.144215137171424,4.074747427348576,-8.77173064099931,-21.02725237389102,-30.173469521560353,-38.87977320918492,-50.571646275805904,-66.17001468187158,-81.33451005614319,-92.23366902804986,-106.0866686385317,-125.99801231936398,-126.95545981897786,-84.6285870470239,-19.814277216195034,26.986331559376662,44.40722885234618,48.44093680680718,54.31984046806765,62.97818391248334,69.48207004788182,69.64154096807734,63.79160272222002,60.55316468043149,65.7189675752717,72.4663151598275,70.86134225839336,62.58136489722998,53.972170874232255,45.118154003400804,34.16479378304537,23.255154768640175,15.114356415874099,6.568469300048009,-6.268237133508947,-21.767681208973574,-34.534884253562296,-43.698098815639696,-54.44296142201149,-68.99029061718215,-84.47651334440525,-98.90036345831581,-114.24941149839678,-132.74955171254635,-144.98603535031043,-129.82043536625724,-80.05160266778908,-17.026137256373868,30.068297170967845,48.82822471696666,50.43407183901753,51.928499129809275,59.44682217212583,67.24965540119646,68.55938613516986,65.164544694216,64.07285496221888,68.64125522293305,74.12982917156471,73.63753626737704,67.02269011626309,59.355702944448325,51.767995144649646,40.992064167665596,28.735442813778956,19.99778361468529,14.274317381309258,7.163374364954171,-2.675851351220135,-14.756506002461691,-28.62397391755235,-42.34095671110379,-54.59726567035317,-66.82526201457408,-78.1830835816488,-87.25834121263891,-99.05501479449661,-117.98794758002047,-129.48673903116472,-105.66533245994518,-46.03325900084968,14.904644531018638,48.78935188679447,54.79316286700625,48.087036778197124,44.521071506275334,47.82104553250777,50.25557552375965,49.25743261302992,48.7564866358966,50.95877258455424,56.24906097841636,59.97310240982672,55.07774387102103,42.499722796869605,30.865840081454902,25.308629268232824,21.821073942024864,14.590960040318512,3.5737802041396725,-9.001773069340882,-20.697294102524037,-30.838244110734,-42.05072436469129,-53.67994236367396,-62.21432108327349,-67.54619765692142,-75.12281657993252,-92.73549011527338,-117.99950594493514,-129.17268784583726,57.0,114.0,68.0
68.27764122190699,66.00261092798603,59.28788034529605,58.56339335625459,64.70672209374216,71.32465951365522,71.47812956883922,62.53260621163467,50.259880579131895,41.768001676981264,35.60743530249619,27.66321695027573,16.88525809635078,3.3451096780587415,-10.798194716168988,-22.45153246753008,-31.558195313596407,-39.110292284094555,-46.99911593888699,-59.65109297707529,-75.28690451889031,-87.90605631115203,-101.96649110447026,-123.07473846462308,-140.14573217948984,-128.06756922058045,-77.3953420340948,-14.40994957325101,28.893123812578313,44.784624299267264,45.60715009293942,47.34353494035925,55.17100421611605,63.280580445831134,66.28125503007881,65.9411839874616,66.2701057338012,68.76979918648573,70.46626595676598,67.55739246063757,60.82653116514872,51.62359760682819,40.34600784463744,29.713452718197335,20.99742196311823,12.035862978329241,4.199168174911154,-1.231600421801029,-8.637335702940707,-21.127170936145955,-35.60737504552638,-49.175820435352065,-61.07024339061522,-71.90426876632979,-85.7089057787126,-106.68481230866169,-128.45754057885267,-131.14861452171746,-97.37479212724233,-36.62103802009199,18.42378471544241,43.54325168120757,44.14056431952723,43.695046818182306,53.29174204675641,61.6554239889148,59.11953373095848,52.47123884552722,51.415751315320385,56.00749997069698,60.97674658066325,62.08450570356055,58.04505544938091,49.21541969439475,36.227062214973714,23.22327670680315,15.578202049328892,10.409428415813858,0.6636680561706956,-12.606113833159387,-23.935800653941953,-32.562874245436355,-41.83624326334072,-54.759936065292464,-70.89735578303689,-84.82892624951891,-95.42132620426996,-111.76145054201187,-129.8504066424777,-119.2104909038409,-66.24866442850998,-3.1846549883918605,34.60829693989201,46.03908422949742,49.65722846565677,56.75090323554277,65.28409688378198,70.31800762202886,68.31249068936265,62.12855692217882,61.25215432545529,68.05001678689713,73.05253143418297,68.80394737008862,60.00241406460276,51.5535223995529,42.1733355618804,30.81004879427408,20.648552338466015,12.92563282947529,3.3505424206788605,-10.69603193338984,-25.937745817733937,-37.37078524084971,-46.41606269084867,-58.32734598000903,-73.52426290139559,-88.74129632160056,-103.06497045226158,-119.36033303538798,-137.78285924442503,-144.279390182683,-118.51080132727223,-61.80677903111716,-0.761223372621018,38.27343152640544,50.20227498046378,50.338873001048476,53.565737693762905,62.079735572149836,68.39707772986378,67.77406864879855,64.3242783119199,64.87422618132182,70.4957703047194,74.77331654936339,72.15840410030906,64.71742913649929,57.30037929740358,49.052049926850714,37.35930731847811,25.71945707479694,18.2369805138397,12.4981447302234,4.579572164919323,-5.947918588929454,-18.628425952325447,-32.71896471825419,-45.993426600466435,-58.08623742184509,-70.32418238020426,-80.96215315383571,-90.02298046007475,-103.94738219615198,-123.34063551498934,-127.12143626342058,-90.96812904512133,-26.824488413313922,27.998166230725833,52.86779643661254,53.360581201496295,46.24651501234251,45.02839910703058,48.94113395438983,50.16703784285143,48.91722144638764,49.05704285354266,52.24421182181861,57.84545896839137,59.620695121910664,51.911487097647175,38.65380707811508,28.654358986184643,24.42173383615793,20.223791426869177,11.700063709337831,-0.0008977515637236116,-12.576479379879295,-23.696829435044698,-33.8771635963229,-45.5391811252018,-56.55930159001732,-63.95997337334684,-69.12216815313158,-78.9665867586802,-99.83704326657805,-124.05158689769263,-125.48166295332244,-83.40647616905254,-16.352870314770488,34.902752116585084,54.88832153631132,58.300810303517174,59.06893599887086,60.404269299218676,62.66142537979575,64.61119681191933,64.03076420906973,64.12154021588205,67.45348348357317,69.29831494156964,66.98741362274505,62.30431201206878,54.63221407708143,45.04726720434371,35.796033099733364,24.119486158480328,10.507028151795236,0.9644845863860758,-5.27971974082116,-15.212538651151592,-29.081672969609105,-42.46642932530471,-53.979922683442176,-64.87355115277695,-76.61690558308312,-88.85217361687198,-100.610208885295,-114.87815048054546,-132.2480011004357,-139.69621914617426,-115.8580258857029,-57.22461160285288,9.647090851176575,51.27881501195808,58.571136372258515,52.94968759887047,56.87736815803806,69.0763581364611,75.7590274279713,72.11735341702521,64.59035595664172,61.80328991856783,65.30310612731743,68.5616926493035,65.86532540169436,57.97797100546977,49.26331903927681,41.31281796336706,33.12916355524332,24.180113855538483,13.154720763526086,0.07390616438612854,-12.79058717154867,-21.587195548131298,-26.618885471758436,-34.772696430002945,-49.65112437109211,-66.11330522455123,-78.46391219619427,57.0,114.0,68.0
43.152152492728355,45.63072194300402,56.55710466710289,62.007977864255295,57.07237101165979,51.39281075428833,52.373508310062775,57.637991980558965,61.809049634151414,61.43593879949282,55.974060449129084,45.80978598205346,32.167332544949375,20.38712897709444,14.193402862993208,8.216656890106028,-3.0724401632027676,-16.236828564328253,-26.58922537365502,-35.01176141889121,-45.11694639960156,-59.261725635992335,-75.41578027227256,-87.94190960497349,-99.1741302038483,-117.8260843872865,-131.18232553429755,-107.55026000156965,-47.020009436067404,11.056472303504346,39.8998457393658,47.086211590033855,51.26855290991045,59.3048087875365,67.29537510585261,70.52339103425932,66.57126789423187,60.96653960049398,62.685954353970054,70.21976564074974,72.75564760802457,66.37789594459989,57.50549985183807,49.05304636237305,39.02257596696645,27.571424542079598,18.29502005707519,10.565729832343752,-0.2850226654042154,-15.241960510262883,-29.735135986749818,-39.97547269797565,-49.41688222748102,-62.51465119260407,-78.03826458592792,-92.9031037908447,-107.40027189125587,-124.75938040173133,-141.8883675251035,-140.7114248202356,-104.42599216542214,-43.21146247611831,13.514417654077874,44.05943170738283,50.609738771548336,50.59390657870286,55.71836051290535,64.50328046306102,68.89544133719707,66.73483283356701,63.8604727289178,66.1581567740812,72.2304077102481,74.78078969011123,70.25328925293788,62.465531711956665,55.19270967454812,45.99189120890041,33.72514801947598,23.10834212714489,16.629800486971078,10.507887222991345,1.7759302531893213,-9.397981203330719,-22.635029138107377,-36.730323230531496,-49.52679300220864,-61.621988209647526,-73.67924882712015,-83.54925811142024,-93.2229046111789,-109.46856450518075,-127.44657225351999,-121.12653647149578,-73.7394741724093,-8.544344740616584,38.40344173356554,54.847076947352896,51.31018314584795,45.01005761729747,46.02065059492033,49.757458831501154,49.85184357036113,48.71602921008251,49.61666281120797,53.78112455677843,59.122075373229066,58.3993438167213,48.245152195726845,35.12831962503503,26.991122220554065,23.522004509979162,18.21862297461719,8.544706831010274,-3.6530825891450114,-16.009110909513097,-26.59443674905036,-37.08544072923786,-48.97702663604948,-59.10673310699283,-65.47651633354403,-71.08432691722862,-83.82683104007566,-107.36172345074459,-128.19037451533833,-117.8468381775629,-64.76897886571712,1.5370147278016209,43.55762984004597,56.72216742988769,58.51270940327005,59.382779654891465,60.95151437609758,63.3999488518377,64.68179480682006,63.743633087606284,64.85771503796337,68.39972131384236,68.98708935732006,65.84612466764256,60.44751208359017,51.891487640135594,42.38679885433297,32.81528196302046,20.136934292841097,7.139486172849796,-0.8608292817104511,-7.571289398650021,-19.01617328962726,-33.14098260151604,-45.95435179493679,-57.11312898243252,-68.14329279510886,-80.1840848183529,-92.2450001547972,-104.287638630111,-119.83962808431806,-136.37968963434076,-136.76804705962138,-101.7959522825511,-37.09999831425989,25.341222694671295,56.39061687092576,56.96611861503828,52.66967911049408,60.160571068184865,72.05634448736254,75.63273294308773,69.9092757687186,63.03847651372956,62.35891755549727,66.62431408773097,68.48664331286699,63.937329714272785,55.381066288305355,46.931774387844875,38.99413075049329,30.669631127106914,21.25273938717621,9.529663678309195,-3.8291040944538706,-15.885742767447745,-23.19862962725792,-28.324426147417572,-38.476230801924686,-54.582984121393224,-70.21452905353473,-81.11830554850428,-88.76850531339647,-99.75258186905016,-117.33305785654062,-122.78321944318274,-89.45912649556871,-24.250878796492287,34.74833279208317,60.29813018647843,57.875696281402256,49.71970890084943,49.52905711805234,54.81778651356939,56.49320271525168,54.72723015197259,56.60855941071156,61.242867677701426,60.96135673334613,55.924500170114925,50.46495112678589,42.96886146949167,32.08013785869175,21.414235582715317,12.885011344937077,1.953438153509107,-12.967502856971509,-26.030072169494467,-34.31526043997254,-41.80965113906707,-51.20238146880474,-62.189522132819654,-74.01964409828871,-84.68900978001432,-96.57038903958315,-115.14381563264118,-129.40763173058417,-112.10241597449823,-56.85408243980335,5.913144928770267,44.17638806483646,53.68641343528684,52.96653233196714,58.092703762028954,66.88903257901127,69.0279331457899,65.89776587231115,66.65741198968148,71.65352717458059,74.46336192576835,72.63582261058163,67.98491876934202,61.76079393482578,53.60032392715293,43.250109111644406,32.18260988393672,21.874420289593562,10.996963498424591,-1.2163386313829285,-13.137361703000124,-23.7021046105369,-33.01656279309131,-42.75747461092279,-54.675006235418806,57.0,114.0,68.0
25.427696544160245,47.73158924867299,50.52372285704479,51.37127774602601,58.22814307541992,66.50939689250447,68.78619656041474,65.63656281507929,63.88285371680791,67.80579922760192,73.63894746558245,74.13943279362125,68.07537874347928,60.3156584038018,52.91003989384035,42.62386938509892,30.247115847704436,20.898362508773882,15.037660868051145,8.275294480677578,-1.2279062474030142,-13.02555454285944,-26.726762795749583,-40.606448365760464,-52.99928399499198,-65.18655333639643,-76.81935463207195,-86.06956050295975,-97.04750175536851,-115.31588370420778,-129.47337301862348,-111.37304162961523,-54.93938078291128,8.015104329778152,46.10832437861623,55.12180974613893,49.07274985850323,44.50543334827532,47.24810474405265,50.18713209190741,49.44324510993686,48.696046517753636,50.465372158122776,55.46561767606757,59.86378174527468,56.310526931198275,44.32349147516967,32.08187214539845,25.768345262232714,22.429075613581606,15.81850745079949,5.180542242467286,-7.322477582832375,-19.260821793058895,-29.482798999697813,-40.456630260724836,-52.251721451032864,-61.310152472853666,-66.88626518894782,-73.66529480403683,-89.70924062957288,-114.78833250933474,-129.62074417116008,-106.31118143005031,-44.96993307825942,17.128285954618978,49.645999549194556,57.68896345930146,58.70848295212121,59.75145668599118,61.59290340840246,64.04012761637031,64.51216864206988,63.6623357318745,65.85201183156538,69.04878009605444,68.34824304460675,64.55031221823054,58.28898822350237,49.08182768005588,39.765679176808646,29.519223593058634,16.099799972245897,4.271517015745638,-2.559068518054982,-10.333292715553526,-23.05123428393079,-37.05864851995983,-49.29427784032265,-60.237597056054376,-71.51502037876472,-83.75026261648605,-95.59745612971342,-108.29649665683318,-124.99802595133428,-139.19688582232982,-130.69987967136097,-85.05352842837188,-17.18423182268155,38.1924201488678,58.76774623593612,55.03311032599216,53.56548894643707,63.83910183806146,74.24480743075671,74.66833135179428,67.61171143014654,62.068095780334076,63.37549554397034,67.7139627060561,67.82918860390448,61.66184177196101,52.82787179435157,44.6480529597026,36.63781573604688,28.129669871522378,18.114964646374588,5.755189154993592,-7.635611045456246,-18.537833525915584,-24.584452715744586,-30.50232642780408,-42.7366438315971,-59.45037849058238,-73.88296829244607,-83.46556071400859,-91.22099219329556,-104.4712995616617,-121.55586244370184,-117.72855259246963,-72.46020520830497,-4.818309819066825,45.93492994259097,61.542212734576964,55.19801172564227,48.67177038709162,50.92749136393393,55.92353092917878,56.02084936841232,54.686985760435874,58.01531949734308,61.879985892564484,59.742606586127394,54.349248320967135,48.66520090263381,40.08126860190775,28.771663341011205,18.839197820712656,10.216613054922165,-2.1275202458966063,-17.217829671115684,-28.817461791635438,-36.348436011190245,-44.32928217283515,-54.225110067047794,-65.60203503639659,-77.27214122856847,-87.68354522597228,-101.25244719382977,-120.8310750205094,-128.70200939543335,-99.20861680715393,-37.724478412131766,20.287753356160437,49.2968903830045,53.549900025230734,53.57845032191011,60.76536786795581,68.44520671574483,68.23408359896898,65.45905864765375,67.93698920582857,72.92318317277109,74.36541887836515,71.4882196131879,66.34346451128306,59.636086578397254,50.80483291164879,40.02449994153927,29.13403429101455,18.884358017405294,7.552160085454401,-4.76203612732155,-16.350218590073208,-26.47460260482421,-35.68972404996717,-45.93665340928417,-58.584119583460904,-73.34205199760316,-88.21299808556932,-100.35552137018601,-114.67924336897755,-136.7082081061809,-146.7084642678318,-114.32253724972857,-46.43825403489894,16.068162097462807,48.00141656521382,55.77800653298326,55.65334185909595,57.58529966866184,60.70194510398769,59.49172265658782,55.176791140015276,55.263967278817965,61.66992727903304,68.25961025053957,70.03421188922312,68.53180592072998,64.06215048918313,52.878262942360394,36.81286455444111,21.86644529922997,10.124941385955342,1.3148914681455142,-6.470251860696728,-15.667034227909975,-25.769354550438553,-34.91939510920733,-43.96399525353584,-55.98544383991547,-69.94724095747291,-81.66480563088595,-92.61739287291532,-109.15693464911271,-124.13133552723404,-110.78064889948242,-56.717543139681766,9.820470674907366,53.75812377885087,67.04607908884091,62.54785271286873,56.57401291164193,56.37147326525174,57.40580888278509,53.793844435035496,49.61888343547006,52.77014482029517,59.966439059292284,61.56894513689242,55.330208756761856,46.982169907289105,40.081393105573476,32.058753153207284,21.445113655078487,9.021057550025027,-4.5533589159011445,-17.26907238169059,-26.696843147102847,-33.90036707321216,57.0,114.0,68.0
-127.66207935240651,-91.29791676737291,-25.17283656434759,29.962220967442402,53.62161252125974,58.1673986593398,58.94279932124905,60.18139090579694,62.314317644441424,64.4883546911293,64.19208738311636,63.894991667744904,66.95645769106447,69.31315669969548,67.46082200421617,63.06680175914531,55.84155051109954,46.30200687823303,37.085296810758976,25.89038939494012,12.203104483541832,1.9077508647163053,-4.358367562644174,-13.573800077130796,-27.180511416109866,-40.80143542913124,-52.52009049883664,-63.3958014205318,-74.987906584216,-87.26124154531315,-98.99610965519278,-112.70706548875845,-130.05929501603558,-140.09329663730904,-121.3027567112915,-66.31095624946023,1.6006521878756552,47.88955798975263,58.99453228452244,53.43162791028379,55.60574503201064,67.50074863017876,75.50369868162177,73.0359331567904,65.46714528725342,61.740229382917,64.67041560767703,68.40837903059183,66.60481801882105,59.16703903306251,50.36540762075295,42.37010091423537,34.245301645777474,25.464237929828446,14.765924410165951,1.878449322719127,-11.233660432465841,-20.725177081721924,-25.94209576400992,-33.276936944729,-47.40921953705113,-64.08765653565287,-77.11432773469312,-85.62091937621501,-94.176784749135,-109.70907589606482,-124.02089095082981,-108.89196993636502,-53.45027997115018,13.040335289449894,53.94988643727407,60.90598245034355,52.6058704384125,48.46572546256551,52.56865773999268,56.52231844813342,55.4074263203927,55.126066242819626,59.48818568883718,61.92800342750649,58.2570546946763,52.80436291355249,46.593901665353705,36.93124738213923,25.611223671871816,16.423808305931516,7.181703264643396,-6.482538624156532,-21.12671478855762,-31.22214686637562,-38.454171055514834,-47.017197793446414,-57.373413288096756,-69.05315983206354,-80.36733406901915,-90.93065367501302,-106.60304732646789,-125.62779192992481,-124.63220792021708,-83.40718533861835,-18.977299648881967,32.01956901245103,52.23618970185729,53.135840302045885,54.92937213579435,63.491217672964744,69.22171011904238,67.21032119271851,65.55191457727571,69.44475036558336,73.85071333232996,73.88840655000884,70.16533524373027,64.58053146456946,57.32865642377425,47.83243863660821,36.79603434951731,26.164242193876873,15.784346756169754,4.012916907057187,-8.236405630237426,-19.434533001327374,-29.159003983822473,-38.453852805200874,-49.32948510863478,-62.675627958673196,-77.78539428900834,-92.00612766309058,-103.80309369331279,-120.50386142008112,-142.41406259684751,-142.39636813727918,-96.79304205450762,-26.035007816706013,28.605399595696298,51.996233059662316,55.92284734248732,55.841108245547076,58.62331165860238,60.9469506698052,58.25117328666732,54.47364597797145,56.64091943886123,63.890860908689,69.30251697008762,69.7966410166297,67.71014392434843,61.61111060793938,48.452104252026786,32.19930944588454,18.138646859968745,7.321906417343217,-0.9076903934479218,-8.935368558205635,-18.589450081505504,-28.550937260462142,-37.40304839010766,-47.05229541754495,-60.018566703536074,-73.67061528212501,-84.61375895043459,-96.68970996514076,-114.60090217331914,-124.43018186019744,-98.78375120362426,-36.88873897920105,25.766275950167522,60.41154443539405,66.78573282210469,60.40785350183724,55.943728845998784,56.91256889228135,56.88399646974351,52.213546068772494,49.64580149379523,54.88977008136121,61.30722733695953,60.406869618046954,52.834313962928064,44.889591170020076,38.01928273629874,29.229516881707305,18.015655762309635,5.165950263516784,-8.445648432872169,-20.379815551943974,-28.838693692505075,-36.153781050418694,-45.88170837957472,-58.09601222624347,-70.68204243793151,-82.14699422934333,-92.81780606450765,-107.16683538732704,-127.06632306401096,-131.93195619015796,-94.5974143905756,-26.949579514428436,29.423434994030107,51.66217813169071,53.06212053750477,55.98152237285317,62.93205432246394,66.79899627934165,67.30905779309722,66.34623102102123,64.97820011906683,66.21442599967344,70.04248495559872,69.78245337541694,62.01915063172139,51.76924904444007,42.384272037736125,31.43007336362538,18.88251368645445,9.127719160589802,2.4489642545019557,-5.497335480452205,-16.69061495399073,-27.932975200195653,-38.6531875203211,-52.08239945159591,-66.38874216371993,-76.58993344471229,-86.05604394624442,-102.75639294640337,-125.46727840106077,-135.74805840994114,-109.29539523121854,-46.794875023883996,18.07828077061596,53.26172959609503,57.88252412705913,51.79381067775718,52.29878486247206,59.703796664341496,61.66444670647622,55.64001275813848,50.683683030706305,51.25868281952573,54.650885695866094,56.840776319734445,55.828275968100975,51.39728007257296,44.105142861720495,34.55361385310841,21.737782912344283,7.25481338296487,-3.9449705941938547,-12.247113468490689,57.0,114.0,68.0
-79.93812362063834,-87.74483638884841,-97.81795618401522,-115.0271959546219,-123.90436440787133,-96.36348064303432,-33.479580422384025,28.54824219100939,58.93059290965281,59.007622352885356,50.47405195021891,49.04218667946912,54.1671191057463,56.60523254760843,54.88111412844494,56.04726114410607,60.77550056881938,61.38671933827927,56.66306807197368,51.22849495443393,44.192130795177995,33.6234076350821,22.6797719998414,14.028956244397545,3.7054391431478253,-10.935441655639469,-24.59236716960909,-33.37067633652025,-40.70938551885158,-49.85126822128351,-60.64425283263572,-72.4733966645021,-83.33635313273359,-94.64761128352433,-112.41549320060375,-128.75113181140628,-116.90050907239373,-65.52751897569983,-1.505829258269619,40.9685547448192,53.50560843013395,52.90917421794732,56.96888262812554,65.93708818816704,69.23853801948394,66.24810305593473,66.19490425204432,70.98438946886996,74.36870822127773,73.09227924276433,68.70167619954061,62.684631200064494,54.82338132280839,44.719329210342686,33.619320003805136,23.230976895386334,12.5415824525201,0.4328038686770821,-11.61584205899921,-22.385300815066262,-31.79946177668627,-41.359060524639794,-52.93957271773878,-66.92560312716931,-82.16219137846038,-95.51082212984079,-107.6896630779689,-127.00304248037935,-146.28234853127765,-133.92060277052855,-77.0047624362142,-7.204692694352881,38.34442172927047,54.35959780918312,55.792499838610595,56.3454576569214,59.633338461617235,60.69971939687062,56.89584858689828,54.33176288661863,58.48897999168159,65.92568795637601,69.88412241835883,69.38516208153251,66.57128826281166,58.506104504926675,43.761688272639105,27.807397759260446,14.685073242772704,4.750102105600123,-3.1152001867632397,-11.564813657846315,-21.53723198907634,-31.21363372273455,-39.94243943708855,-50.46398397300968,-64.11770201525269,-77.10867455292538,-87.63180927788129,-101.39252022262828,-119.50081103832893,-121.56797766663651,-83.45942913177826,-17.07713661644797,39.15934428324394,64.60640698222402,65.47040533694359,58.50863600756976,55.843933141104806,57.348094560039286,55.88663265038972,50.81298456410839,50.43345007675505,57.114699628432525,61.96497693941549,58.64209308608841,50.35346736151186,42.9217913729627,35.76851433464582,26.19244812163559,14.452998264319945,1.2321440933341026,-12.196400056495927,-23.165922495499814,-30.874550254822605,-38.638584994419105,-49.23868288877758,-61.783690200271,-74.14424579395157,-85.21156275412832,-96.2863522620467,-112.7130248016794,-131.53260629282957,-125.93260377243396,-76.46135575711298,-7.792139488248824,39.35748023255552,53.0227745761895,53.20079188622096,57.93448529064178,64.52807964624445,67.1655059634031,67.15869933771603,65.88826452744495,64.93664831044771,67.25810490551916,70.72502141366785,68.18761593340679,59.03655102800533,49.00925439773654,39.513844789532236,27.78702335624598,15.633816888001782,7.032817128209957,0.4868883277045567,-8.484324931847574,-20.084373839566787,-30.943906312342108,-42.174404826582645,-56.40365772997216,-69.81308851174701,-79.02288453749674,-89.90177499499474,-109.18414889906126,-130.9102397826512,-132.58214802172844,-93.89627319908368,-26.454542116710893,31.97920918629468,57.01957223847332,56.253084232319765,50.85250473497103,54.21667530906214,61.289915613107254,60.41223879662457,53.72000418479042,50.31656984102784,52.14674976603096,55.543068677944866,56.9073538459733,54.886845378248665,49.54097372387208,41.59627969465692,31.224396921015966,17.50556615266561,3.5312959823302554,-6.416475210257553,-14.890617706666042,-26.060859856807372,-37.376966426724685,-45.204289255335766,-53.05309391447086,-65.83370506394323,-80.95045983232254,-95.57447518761292,-110.96145793644813,-115.59943190384328,-85.025451167176,-22.200518946416203,35.775477274601776,62.76503425661344,62.54212887912217,54.7805800168563,53.74685937948727,56.04357628528626,52.74800637365891,47.402027954113365,47.86958221611244,51.53117391357,52.530718670990936,49.32623796273408,41.129166887791826,29.417937732163683,17.959156980283062,8.519585501670623,0.7634097839083348,-6.164616285228559,-15.111739379593583,-28.134574786491715,-41.5358400261836,-51.346655479585834,-60.123927493312806,-70.75050728335349,-80.93487326869739,-91.97093192951506,-108.96430026156013,-122.4427241054376,-106.26952833572962,-51.204581695865926,14.281216341367767,54.957092423471266,64.8745267925281,62.88351535608871,65.92793094730948,73.21538887073126,73.86147025662743,66.13902693938242,61.26785167684805,64.30775380266203,68.24642255843862,68.39292612662445,64.76336111836336,55.944239041671,42.73242349439557,30.22561989402706,19.704647545587463,9.204467176494717,-0.9879721577985383,-11.592186211664343,-24.179917078746577,57.0,114.0,68.0
-56.75796678237839,-71.29891219727968,-86.36269608039073,-98.83206320461828,-112.27940183919722,-133.72397314542107,-147.370231614381,-121.36382875310962,-56.112381172701504,9.337622633967213,45.489473583374576,55.5275409638439,55.658985428857804,57.143180562355,60.44175096315657,59.96809405097919,55.65184317698466,54.82358585539675,60.635099624080986,67.6213749406286,70.062208951593,68.83674069188848,64.98136855878629,54.77895463004235,38.99277468879941,23.67793704100347,11.502665731111067,2.3666466038111316,-5.3848379479101744,-14.345005422790809,-24.451320499160147,-33.767620789380175,-42.640157788462396,-54.18393564777868,-68.14719671671429,-80.27487571854454,-90.93796668538444,-106.6327036550072,-123.11858643867477,-115.06304290655243,-65.56412621318182,1.7235509793463621,49.79187891218498,66.68701595980998,63.53609902272882,57.05810203547617,56.147017736907856,57.48419094649681,54.50866548464323,49.85302680435194,51.907473910001,59.15764519025432,61.868089256627286,56.439882420554724,48.00496358560493,40.989036576654684,33.28528134830508,22.978856941371184,10.762897078840949,-2.7323239083409847,-15.73073011827283,-25.643723222717988,-32.921742105829885,-41.38876614096713,-52.76536076070807,-65.4474729330674,-77.48662891191603,-88.2379364093906,-100.23741967619252,-118.67110345581244,-133.92718678483584,-115.90526907169362,-56.61184245930812,9.342504743794047,46.252761836599696,53.28648024009202,53.8979949536591,60.04675442132987,65.72687065258435,67.32649559029973,66.90079172582936,65.43763942928081,65.20691562728888,68.44685965360796,70.84725137972039,65.98902837514994,56.02163988555757,46.33128246296864,36.412971562988965,24.088357947362184,12.730089605400979,5.132603133573514,-1.7128941125707362,-11.724495848369516,-23.37236620258305,-33.969947074171955,-46.00547206961676,-60.65753877834791,-72.80583292536414,-81.58631323537095,-94.5391118744606,-115.94102002844323,-134.68425328465338,-125.80378378542582,-75.89175941849085,-6.976359007785728,42.84554130859587,58.544378819330774,54.29033230300903,50.78427652535826,56.50125523114901,62.08671593672316,58.62609787928635,52.140384287339494,50.42291681962371,53.16167324254775,56.24798041942754,56.683321281512676,53.6645635886257,47.46730935395815,38.903639128189724,27.57906809513971,13.236205885611616,0.20522735940146286,-8.750274985461143,-17.820576146750987,-29.55668697892541,-39.996281090255835,-47.15739831202293,-56.21158509482502,-70.19847066241813,-85.16946277151098,-100.02026115703501,-114.49926797367179,-111.14077078108544,-68.86231857965959,-3.2219871239706452,47.09313340508323,64.74954956178973,60.16023833489676,53.61053194564287,54.56922407656106,55.797591340706894,50.9560768456864,46.8343080070337,48.93402086320628,52.21445456358313,52.07428516827436,47.476774141032884,37.9487526096844,25.93589533197009,15.028170292281434,6.124451213156129,-1.2434889257735622,-8.374791440210236,-18.506272368126208,-32.234532805592266,-44.74930487846764,-53.76416402685743,-63.044019293290575,-73.8455888809366,-83.76056098588768,-96.24464761029684,-114.23819272067406,-121.91855466042676,-93.71701770236032,-31.500351861459077,29.533779013669655,60.39471453828124,64.5209547719947,62.91816168022676,68.05351722781742,74.48087859129802,72.12037720138255,63.92100656995626,61.5183922831219,65.71684850601497,68.68971562089116,67.75972448791843,62.82170209117147,52.37939773555806,38.85743429372644,27.08055489401248,16.701415061032776,6.19159391489625,-3.893818979255022,-15.056973254007302,-27.932519580503975,-40.47448420912918,-53.559997106633084,-67.25356273007608,-79.51760597406975,-90.0090280177427,-100.79792648833522,-117.65226247943879,-138.84189555607486,-138.28051437527677,-91.08015382691964,-17.425432172785644,36.600259861258685,53.52913907532502,51.75254143306422,53.099545128031636,61.02767908764786,66.96275135428097,66.46486746553703,62.99696537650875,60.11112536091896,60.557581074232665,65.89637625814824,71.28779985872772,69.34263945544008,58.21406023915758,43.44724123461148,30.027820660150454,18.95854618163867,9.336472689490831,0.16861528480105598,-8.878881726207657,-19.278804894507555,-32.21513100074944,-45.67935662501347,-58.65306374078193,-71.63219160564103,-82.73445009303025,-93.3982786621545,-110.99081002757634,-132.6790919385271,-132.40897767923556,-88.02716524026917,-18.81696355529641,34.343554284108045,54.94628780388801,56.50810110173568,54.7432497014578,55.06358090248468,58.298095297363766,59.97747294969245,54.609243641208195,46.76029165359935,48.29356689519615,59.59390999526152,66.05763652150756,59.889205271458835,47.82124557777667,36.747028348383964,26.373719465415785,16.340199387811666,8.706875315099621,2.7530228049036776,57.0,114.0,68.0
-35.089455576014046,-44.40644846247356,-56.40042616403297,-69.05009805398788,-80.70348491639092,-91.33000394141006,-104.82148346793554,-124.56219646631465,-133.37728550621276,-102.08495939747199,-36.21533422749045,23.78507590506983,50.46906942111006,53.12402552597384,55.20282552265378,62.07784814743765,66.53871774775583,67.34178319982126,66.54084403400219,65.08257104885082,65.82107161451096,69.59090627194252,70.28483404357843,63.34147161840932,53.08296077249071,43.65016908363123,33.055728191683635,20.47858659078509,10.187116534581461,3.3045033528440717,-4.225842668439601,-15.112144056103121,-26.522082633627598,-37.12517463735584,-50.117668301239654,-64.66455780860973,-75.44802569217109,-84.51851696128318,-99.99093862404594,-122.59036655713835,-136.08295472326938,-115.32378503033748,-56.17680067551096,10.722434262030257,50.64642821948297,58.37480357407178,52.4719853872199,51.62964487774874,58.76968321450084,61.99557193643989,56.58703860546345,51.02530245304284,50.9232358057495,54.195273095105385,56.71499233066044,56.165457021108644,52.17218021358779,45.20540085398059,35.98731770797892,23.637150801871176,9.086326692852294,-2.71732265878521,-11.109396564922477,-21.030442714098807,-32.92857381979232,-42.27771601850463,-49.28715092027344,-59.846818995420364,-74.61409703863825,-89.34762105930963,-104.57860112912674,-116.6148251461384,-103.12943039682138,-50.56623636281341,14.286907629005638,55.49319028457943,64.81028855148958,57.69604842679759,53.20074990616159,55.40452023157844,54.925926732120516,49.241399573689684,46.88019418074791,50.0782577789738,52.58399375860495,51.25172427388852,45.190464495090865,34.55043065515836,22.571411456221334,12.270578218302202,3.8597831877702053,-3.210545033566372,-10.852404152430939,-22.250849332466252,-36.21132897585606,-47.616270056742174,-56.228657628212225,-66.13046720286158,-76.80990203253381,-86.7863279902103,-101.12753659921242,-118.75025257301313,-118.18782774607816,-78.06067487635282,-11.95252675380822,42.01485881519144,63.483260544840654,63.75838437013291,63.65406158693558,70.32072996908101,74.90730843198979,69.8147169104359,62.28549028574657,62.38864804229912,66.96522848890648,68.79296632352973,66.81263462772888,60.388273397064474,48.53103667484597,35.179351871349176,24.056536795819124,13.662595151643561,3.2393013616523487,-6.895963567786838,-18.69627379078619,-31.62035159888368,-44.118571265538364,-57.549899032513984,-71.00068355318574,-82.69651883501642,-92.9058106396907,-104.77119001267792,-124.0058485882781,-142.51879656394715,-129.55901773404685,-70.44575824128012,1.8376158497064115,44.9384663412424,53.73560371780208,51.283138369366675,55.012813037518654,63.336168391688965,67.40912593313134,65.56654043508419,61.99464069072685,59.756400648912994,61.67499135627873,67.80400915575747,71.72533396633612,66.91717794632306,54.01848569496313,39.32857454143852,26.606863100441036,16.091142751142137,6.655320270303634,-2.427039783274557,-11.64411196155493,-22.794522542735717,-36.1657725870534,-49.43425817464861,-62.44578880243767,-75.11846079543884,-85.57761847110626,-97.4973452884159,-117.58591724956847,-136.35255095742338,-124.15442637192982,-68.72318335901218,-0.3549107702547629,43.41205815853932,56.45946584978557,55.953113473363075,54.52339612202299,55.77437242738281,59.27141263686764,59.203732475560095,52.07554617164444,45.842577534895156,51.0592231634987,62.62768585037874,65.46227892478858,56.56613550533978,44.43075999356286,33.76614211514982,23.35411272560862,13.82851332980409,6.970401027407999,0.7258742935234227,-9.30871330859871,-22.815097032554473,-34.696228761275165,-44.24314229703111,-56.14029233663532,-68.65073656355776,-77.61438684425963,-87.96908877670437,-106.01797787878371,-120.21133436458199,-102.332117218669,-44.4527947723633,20.49276351068563,55.883740326649544,59.334928521976764,52.94392153361129,51.13990125482092,52.53850149919056,52.211560614021835,50.594758726953906,51.87968146623815,55.76276371756562,58.20294435255011,57.30800694064459,52.06120563824018,41.314196955617966,28.098533963415154,17.26271709997541,9.39779900668902,0.8022930331188539,-9.762549441404929,-20.27929297708188,-32.347441470049056,-46.86022661992078,-59.34422824059741,-67.63052843348622,-75.40482139490409,-85.0674192358411,-98.43663090241083,-116.44192333520658,-125.45283780301072,-100.8322422901779,-41.130498512259564,22.294224838821975,59.122478832937034,65.26721636440836,59.64901522507788,59.98387381613913,66.37485169071424,69.42021065008514,66.93464762867038,65.26496097133095,67.17252282185083,68.91819118099022,68.08012343132299,65.51944827971171,60.413805011974944,49.05917084683583,33.22877747660822,19.140903067659067,7.317486114533856,-4.448724828399298,57.0,114.0,68.0
-13.6385741801901,-24.447689163945142,-36.048634453129935,-44.31059402233113,-51.76212877250318,-63.87765094013153,-78.97399668671594,-93.57971516365772,-109.04112615817016,-116.55811690921708,-91.5142842207595,-31.18949037211902,29.597532145274812,61.0730318191747,63.47462169031934,55.56567541631802,53.45897223005097,55.95361404578239,53.521225604106974,47.86591280026698,47.46261664409563,51.12161077538086,52.62468514620828,50.031314423089164,42.49476018858254,31.04245304962847,19.372323375838167,9.669837005422954,1.7159185391240435,-5.20844630352005,-13.678234218028878,-26.246352312226964,-39.93207622778441,-50.21045910371289,-58.847602252970816,-69.29465368634581,-79.64834473680791,-90.21034889864269,-106.45241933049141,-121.76772640412636,-110.87579953682247,-60.04515766209767,6.434488879919174,51.54318898700831,64.74636292904452,63.07000227749501,65.07762165530005,72.40478689862069,74.4009789879569,67.281821082547,61.40465842465376,63.657511083254605,67.92191987869894,68.58643848691095,65.50445558584943,57.45472810530268,44.55992528851638,31.736880010326466,21.078664473528573,10.608125668800561,0.3408904444634116,-10.06383360356162,-22.441099027733753,-35.23631872176881,-47.86955083483207,-61.54505381578878,-74.58523435016286,-85.73771289494263,-95.90355180238218,-109.44719633526452,-130.50315469746783,-143.46424594656142,-116.59514695391508,-48.64651399403125,18.360366535843,50.21445586887511,53.061891193064056,51.476507607872314,57.357424174186974,65.22540434767994,67.31921477748124,64.54294361703187,61.10028262181357,59.76087593371096,63.20074683124773,69.52584622193933,71.38227558934486,63.76972868311724,49.701155546119494,35.397677995260686,23.378233032235208,13.309510995951415,4.000092539774976,-5.020059560959001,-14.5807896224575,-26.52284648503735,-40.082566667142615,-53.166706794418815,-66.2362854962944,-78.37360533073526,-88.50291462610014,-102.39210605498067,-124.25103714879971,-137.3212385075491,-111.94413870486507,-48.29593030165461,15.801269676636311,49.74694476611738,56.90355878968609,55.385175827840264,54.53972393669148,56.72173490300489,59.93474203063991,57.748466509386276,49.585384605832104,46.007708553198576,54.441311555814096,64.8240156365967,63.80048322986474,53.01376367211979,41.21204121155916,30.782008718728797,20.39775622992288,11.570525441353247,5.308582775929334,-1.6574234255314415,-13.048791908747,-26.617981318165285,-37.491367793143944,-47.32569669198664,-59.97235745970476,-71.58197236859625,-80.04577268066419,-92.42420509942521,-111.66004487308957,-119.46859354161653,-88.9063488604327,-24.384093357577488,34.615930603720436,59.35286235923403,57.50707856797404,51.798260311747065,51.478975144516056,52.73648379975853,51.69064912917864,50.545586933669696,52.90992145198151,56.760009673793384,58.30877765148253,56.32188733143501,49.491582212939555,37.50021736341989,24.59151461138603,14.800787101587158,7.164092191619316,-2.150903904077758,-12.821183771616845,-23.465892447311685,-36.415862950546526,-50.905768008854984,-62.067553029807904,-69.75008985127538,-77.96827623383821,-88.401839558429,-103.3716796702355,-121.07418177576528,-122.61688800828665,-86.2032531331106,-21.50673625893934,36.43265958193249,63.48000891371157,63.815788713658335,58.776897647984555,61.60719047375684,67.93301730155282,69.05637209690501,66.08392482646832,65.54977534304678,67.88480906603259,68.9349130775198,67.47006737318615,64.46486213163635,57.87522060962254,44.64633416610917,28.813431929560892,15.617887077479393,3.9404347141817793,-7.784796218880894,-18.212656575771746,-27.50805467544717,-37.65930018871143,-47.4508114025577,-55.96905961222853,-66.32465812211916,-78.99565745281025,-90.68166232363045,-102.18314035293731,-120.21427393005575,-136.40846789475378,-118.44269192701574,-58.81727025676286,4.706975838192928,42.41125407224844,58.1602118294619,63.435389435974464,62.965608163956226,61.228679222092765,60.75917731070322,58.452329301762774,57.13243737295193,60.891864988251164,64.41038636133457,64.67857963424618,63.79509582764835,59.01304624019394,47.50771957401856,32.93407678262321,20.897049166698952,12.74475345111878,4.760157290781975,-5.685211477519545,-16.2142787724285,-24.69446975878145,-32.640952622281425,-44.020338100792735,-58.768361590453544,-70.91760238592983,-79.37409386217605,-89.88287943105856,-107.5340103408472,-125.201849166303,-116.46794075914387,-63.524116082084404,8.55237622797722,56.74339083481484,68.67409611456418,64.32714099237084,61.44452278595228,59.27224550200914,53.44484460251735,47.61980299176376,47.532848221855375,53.42942027550953,60.55560148913542,63.73654644285728,60.20729139749577,50.25052692600708,36.76950667108249,22.715719414743642,10.026673210997975,57.0,114.0,68.0
-26.20823839453914,-38.81778158492641,-51.740783289031114,-65.47759209059846,-77.99957501390666,-88.67519323489924,-99.15860507857704,-114.89709955969761,-136.48609886259555,-140.8519858895449,-99.84900518522178,-27.003829676221734,31.63163269838728,52.94776681425855,52.128295198774694,52.42137696405708,59.87937581676284,66.55527409289931,66.80720294503786,63.480733988035624,60.37197225295392,60.19824402558244,65.01187821171621,70.85751557020811,70.18533812118072,60.061530047031646,45.398111445317696,31.673874783308467,20.319652503811184,10.581870442037413,1.371698769706621,-7.64468179051969,-17.739718068922688,-30.399753735591663,-43.93003882983558,-56.91415129516251,-69.95990656748772,-81.39936709507685,-91.737143979823,-108.110566211028,-130.31268707464415,-134.850314807543,-96.23599461295026,-27.903986416223827,29.174691504008617,53.748719114720295,56.71397217291235,54.91086183416598,54.83100786631665,57.79953880754665,60.105095629223754,55.70173122072201,47.49421824234265,47.32212220655162,58.01161753263574,65.93938168880696,61.27466470346496,49.437834754553656,38.134579999139156,27.769736341297445,17.576595767293107,9.56062640048164,3.5968135547457765,-4.460663986415207,-16.995171194179047,-30.13833650712448,-40.1749359458548,-50.72097877626435,-63.702264110732415,-74.169303051775,-82.82369447149098,-97.61602129185768,-116.44015843828396,-115.28442793141377,-72.3607761189182,-4.874706778493241,45.598229739305715,60.500407946484046,55.47867014409434,51.19412005952112,51.941634531305816,52.69367271206751,51.147636660043815,50.84098586968955,54.07382565167645,57.53969777544563,58.12564593163611,54.92945807772009,46.449690655725824,33.61377060554113,21.380707064275168,12.547229830038752,4.748379130450746,-5.225532483406956,-15.837450996503303,-26.87274193639602,-40.65196999595933,-54.63152433241567,-64.46412243461315,-71.9468793418763,-80.70237947311976,-92.1254159533272,-108.67389002186874,-124.40729804280913,-116.35994172195569,-69.02133768140266,-2.5410496078071265,47.78604705453072,65.48327393541449,61.98454772009599,58.69788959270652,63.55012467510795,68.97313526756778,68.30884247645194,65.49163557948623,66.10979226277955,68.46032515321706,68.72365236532649,66.75702119394862,63.12904202664424,54.7168044968878,40.00655986182029,24.6781092131061,12.218284649915663,0.5316517525904209,-10.997484166918897,-20.912953167309407,-30.324705085294944,-40.65335819765913,-49.94213315685367,-58.641593575335776,-69.87296837414374,-82.59170680965254,-93.76384465377134,-106.52384691958069,-126.29173335253483,-136.07159953731164,-104.37109699898204,-38.87969393598764,18.575656456435382,48.595530785994974,60.45503925316647,63.74551416257102,62.352803323803805,61.06003427213987,60.361416386645125,57.63339149525643,57.79718805412801,62.23814019338879,64.72751972547887,64.53251471035746,63.05064137171139,56.32359309756915,43.3427331027699,29.01484918204567,18.246212369049204,10.624483200139165,1.9672560187195596,-8.879729075201876,-18.8713718478875,-26.893946688810416,-35.41756110996362,-48.16613758980395,-62.76756219898897,-73.56389937080687,-81.88514496190032,-94.20357368355485,-113.500340284251,-126.77018472234808,-105.47642944258632,-42.60226757329739,26.312370758356135,63.386902839820586,67.96315858479204,63.08835168744195,61.044215482826495,57.95586846753994,51.450409923924646,46.868020545461604,48.77010537586916,55.624818197800394,62.05214050412066,63.458225234140954,57.89251360673193,46.569483377055406,32.660903917920294,18.85640879239133,6.717713225087351,-3.8855369970937126,-13.716096287695981,-22.30650971065344,-30.1126157107145,-39.45601264600114,-51.796719313754544,-64.55751026495628,-74.53505780047537,-83.87431909345182,-99.67319617046145,-122.97471781880739,-137.3218651400993,-116.22972005881664,-55.647115328153106,12.480445856961815,56.346564128021704,70.53308021338583,68.10048440353697,63.90029155234865,64.55839123317952,68.61176744254419,71.31573690618848,70.84520196854076,69.19565503898153,67.69097118780857,67.14252406615019,66.14794055630442,60.32599944590229,48.208556338800456,35.011739791217394,25.136455400386744,16.607709755748555,7.369538609357509,-2.797478343841406,-15.66903462542443,-31.133533459396943,-45.833047495838954,-57.4470968355879,-68.292872773246,-81.18360924276234,-94.25572699568637,-105.37577627866604,-117.68026830501529,-135.49643287337798,-146.5535940877392,-121.61171988670264,-56.4105108393946,13.957416578198366,56.7165459962449,69.46612475200459,68.854570438508,69.32216226901915,73.42031790142833,76.07305014070454,75.11681837265208,74.24847517785975,75.12294915919084,74.24530518578368,71.02271963238412,68.32997982948764,63.90089606266639,53.808145141193016,57.0,114.0,68.0
1.6989291993261126,-7.689483787746378,-20.99612187403919,-33.329325794194546,-42.91613763538018,-54.388823791176165,-67.17043901890952,-76.54031726511255,-86.17924950911383,-103.32310455556332,-119.55933233107984,-107.30476141763857,-53.572436893822115,13.023830956555837,53.350653569222295,59.96523230291211,53.64834148166639,51.06940471224415,52.37944448806257,52.409932740575,50.71866427380347,51.48181652655261,55.24889629141609,58.05802324005551,57.640875462277926,53.07889264927041,43.006391605185776,29.79907803092075,18.490246414304373,10.392590617097904,2.1005118782878647,-8.335749772801584,-18.86077226026388,-30.55466918514649,-44.92233915473008,-57.95493262410551,-66.6539004959029,-74.27779100818363,-83.63422341712626,-96.3261394913785,-114.05480702943085,-125.72110445886568,-106.52974167573032,-50.1416916266542,14.933228362197042,56.20983014531095,65.64801254468537,60.28061807827621,59.41584542266762,65.52760304845677,69.41511747777673,67.37272495274257,65.2501988485146,66.82607153525028,68.82856616039086,68.31950675889668,65.94052474709474,61.38736162028929,50.96340664723822,35.340121556788866,20.82998007759701,8.864568915099683,-2.884280459805977,-14.048915956626963,-23.566566597435163,-33.25448680827183,-43.53612571403654,-52.35848322733224,-61.56357498566679,-73.56505717058258,-86.01028773542832,-96.9323914590793,-111.62299436548695,-131.6970923046695,-131.94716518845692,-87.1974947514577,-19.826526536355303,29.93751856521478,53.29548231085786,62.08278545834621,63.63912343129833,61.78356393646799,60.98154282567281,59.708399106980266,57.092366485932914,58.89154999476228,63.360527570621,64.80199666732327,64.33849030232825,61.836254354640104,53.06867155376116,39.06442061806815,25.434108794770133,15.887999496631641,8.39385853697755,-1.0463746330418764,-11.981177435214759,-21.342890384944013,-29.115838554066478,-38.599089233762605,-52.49809016553876,-66.38688122509973,-75.96820924646185,-84.74779987585363,-99.21269913338995,-119.11094783247871,-125.30333241586032,-90.66702214182845,-21.165952733265453,41.11663394854775,67.14639224075557,66.56740002278731,62.21213859439129,60.531507566305606,56.28865314017932,49.628380250218584,46.70312816422397,50.44823028626771,57.774705944006556,63.113138938758134,62.57593697674478,55.08210081214719,42.679290475670776,28.567118826900888,15.148007267025028,3.5439800889922743,-6.806871489391755,-16.34947447418173,-24.56214314686275,-32.53723148129152,-42.7452232516281,-55.633257543469036,-67.76744198618405,-77.02287390936182,-87.48397636266532,-105.98454215607791,-129.22846160953537,-135.7990540358139,-101.87507582410736,-34.93171566328333,28.400193613719615,63.11789608118157,70.78641200479126,66.58861905429123,63.53775976895865,65.57937268502889,69.71615249176027,71.44582607075428,70.40308765893096,68.7060616166926,67.4237541848937,67.06494102269843,65.15379926590636,57.34195285454477,44.19816717240679,31.80919679327516,22.690870753855574,14.01312873040185,4.579680202028857,-6.163373635333324,-19.98291141694422,-35.62981921911955,-49.49192264262445,-60.472017693562954,-71.8032238420496,-85.09950298053916,-97.65013306440318,-108.528229696553,-122.31346459648995,-140.6001626566037,-144.12461213597348,-105.8549192942956,-34.697713315440076,29.844524767304286,62.89978619712528,69.84166001993398,68.52779987210793,70.30558033114012,74.56424039361539,76.07226377437928,74.66224918264678,74.4258696385544,75.20765616811903,73.40867524526143,70.15916589764832,67.46013756559339,61.623693691381554,49.91326632532308,35.69272683370106,24.044753113853858,14.921683300972333,4.298677659144247,-8.622971805252762,-20.34998124282192,-28.94445340967468,-36.74862720398349,-47.97722806434528,-63.70209402784916,-79.19709670645479,-87.70550639508616,-90.57127213308436,-100.39727106645564,-123.09746439473956,-139.71316664312565,-118.58920543544872,-54.28449358403681,17.15343605043101,59.67232010032004,70.28772522328694,66.48878728095094,62.537709668215136,60.18839785016813,56.37391174127797,50.89706116616658,47.63009536078808,51.965670571300045,62.572511743580556,71.22689085648867,71.03830192249438,60.94111529805352,46.543748812231186,33.98797831630616,24.1847513339141,13.160973399213926,-0.5507002938020032,-11.760527234965656,-20.022194409472437,-30.066232549676418,-41.927043781409786,-54.58061530742463,-67.44485018803512,-78.18372210991838,-87.97161415326894,-104.10776576559064,-126.06489957974222,-131.23758269220784,-92.53812801717055,-21.35932626707195,38.64901797396899,65.5687599919668,69.75913961136088,68.79572872044561,68.91935890067731,66.65587732027154,60.606266918843176,55.46049956765622,56.127655251204786,61.08188378253749,64.95023757213005,63.73318441053367,57.0,114.0,68.0
-6.25891176409023,-16.932691464840275,-26.24637677971875,-36.26368338681987,-46.25508877857272,-54.80271270174411,-64.76166204174393,-77.29418202077746,-89.2416609867146,-100.40948790855636,-117.40372855342326,-135.48473040028367,-123.6589576126876,-68.00609562343956,-2.5207008737165086,38.95743689803061,56.840917006671354,63.130601461472644,63.223609982630876,61.36140064205104,60.864092785042374,58.86427780751862,56.99939002613606,60.24165554188329,64.15882193963307,64.73402996391349,64.01941070842025,60.04645984927292,49.346221138768804,34.83053176800809,22.23915211879253,13.716713805005277,5.963109435287221,-4.206202411088597,-14.922536190864404,-23.66239040849599,-31.473612704938482,-42.21618942491431,-56.826518213466,-69.58187019427366,-78.28609241529352,-88.1205574043613,-104.8144668928523,-123.67293288933418,-120.17376481826155,-72.65493351663245,-0.44661776877992415,52.59345512451939,68.5977896783346,65.00274841532624,61.64269202680982,59.75083483837319,54.37136163466476,48.14826467578612,47.13817550749272,52.44275168025295,59.742754558537925,63.66736022663611,61.089695845086844,51.85491027722755,38.65315776041767,24.53881888695996,11.604533828759992,0.4742089313686795,-9.672898368693993,-18.856729494349434,-26.78719076014329,-35.16004912420221,-46.29389565229465,-59.39584979062725,-70.6910026369926,-79.58228722149855,-91.83347847776032,-112.82921936610319,-134.13168434488563,-130.6580843954851,-84.52798703943023,-14.633208889014837,41.73976692753861,67.54332887684888,70.07177791525898,65.23936820463457,63.6454005647373,66.78782810664525,70.58435701741323,71.3253963917011,69.92170132441588,68.24709192897339,67.25720614291157,66.87707216620295,63.62928279342831,53.8653799564938,40.282067889035424,28.926164697493146,20.258704019270574,11.350408161528318,1.6992153500506701,-9.814241000821612,-24.467308589134802,-39.95972513949902,-52.872125017630765,-63.53981802310561,-75.51696532319967,-88.93732156532211,-100.86086508487588,-111.92558373985702,-127.48435260467838,-144.5708945703033,-137.91165097934467,-87.11546614342392,-13.670163454771146,42.878541101413575,66.82666346667797,69.58208680440669,68.54808031112063,71.52782915386092,75.4354734052698,75.7908823859441,74.34425273163372,74.72030858732138,75.03058680252393,72.44098579601554,69.39764432622755,66.31645712865372,58.80851463696878,45.794393986778815,31.938455356329452,21.3091427191633,12.158099098384275,0.682684902098884,-12.29541354863498,-23.129069541067878,-31.089209378907157,-39.49274832796907,-52.15862448615526,-68.5366118704356,-82.55891472822807,-88.70282340253561,-92.06706836094311,-105.96980675827301,-129.95018174643803,-138.59285540939845,-103.44296222678233,-32.30583044017713,33.19497874356791,65.39559618536181,69.82471894008884,65.06356948420766,61.8486213706548,59.314782275523534,54.87576770409367,49.45063764377534,47.97663301060983,54.68080263615239,65.67036900016289,72.25066135941621,69.00652319703056,56.872344332227236,42.58270622390589,30.976299450487257,21.34242858243057,9.307917396134977,-4.2621260131829315,-14.22388818037856,-22.632740843930296,-33.39456017083842,-45.495294826166294,-58.36284236754951,-70.85069356154625,-80.85198007889058,-91.66989257593438,-110.41450216689512,-130.7594781805489,-125.08501809874667,-73.51557391659928,-1.1440710657330144,49.792372727005024,68.24707350324402,69.45190203055274,68.79393843870625,68.69376928351352,65.1846057535352,58.731894838162596,54.985896435312384,57.341181063959574,62.54115565342879,65.2200865581808,62.21105550622445,52.75341789796815,37.60614251424075,20.8897283885302,8.123079679121384,-0.5069440334399747,-9.215983904796506,-19.326448129009762,-30.82698254254171,-43.50349149298978,-55.04704471018593,-65.3686023814765,-77.09507461571324,-90.02235224886536,-105.31044481833473,-126.02789066735896,-141.81526739427906,-126.78270029960116,-70.90621478330948,-1.5370748279262108,48.58409371557512,71.12557997532467,73.7984494445479,70.22784553421933,71.08730467778348,74.06841871946456,72.53449898100227,67.07769239470746,64.45730704412192,67.25877498630742,71.66176817630452,73.69657683132569,69.45031475604067,58.33817131058677,42.89838423393802,25.5550857768733,10.276017402711073,-0.9333930862982642,-10.692841206942767,-21.908423558967165,-34.82135458704095,-46.9939151018048,-56.453218764741955,-64.82934965023614,-76.86778572230268,-92.88379185875216,-110.80888056651513,-131.87306318259547,-148.70993388682518,-138.22466884652542,-86.86349085261982,-14.519723560611611,42.03259995091537,64.50925595841414,65.29018877168677,65.66671732654089,71.589320038488,73.64807347889828,68.22616779539835,65.10577417910869,68.7076959254817,72.02483081572193,70.05578210725041,57.0,114.0,68.0
8.22481586129826,-2.5224126641635056,-12.462774745344246,-21.241965134692897,-29.043267666772756,-38.035601250968405,-50.03442191253809,-62.98382789642909,-73.3638318484758,-82.41631098664317,-97.00943517726871,-119.83254440504207,-136.937176821185,-121.66193545648004,-65.05773500917338,4.360590276676984,52.35978597520635,69.97338867778734,68.78673122079985,64.22495149036163,64.18468751697247,68.04949881193934,71.1567244714409,71.02465723858919,69.42526227445688,67.84741158148512,67.16978727735554,66.45655148375,61.50863570872309,50.04060129678393,36.6027101893728,26.293040637711357,17.777241616375413,8.63628553639823,-1.3312145751608107,-13.758288223382767,-29.030860629438536,-44.0455868539281,-56.03580154440539,-66.74785712690768,-79.37759430787449,-92.62192313537201,-103.95638481495052,-115.74140051400481,-132.97215851844862,-146.55115117086473,-127.66659961752217,-66.35715264157368,5.748578135900947,52.99752664972177,68.95543321123606,69.07924030824485,68.98416858097718,72.83452160256823,75.95712626778416,75.34286407717788,74.22899911118375,75.01871095370286,74.55734050559364,71.45613978347583,68.67769764202404,64.77348099189318,55.487805124450965,41.610864369643615,28.499502589169317,18.71457838941077,9.160007478225687,-3.080014627923866,-15.764712020906057,-25.638382701800516,-33.265923965791366,-42.624663488619476,-56.69105884624488,-73.1771147524805,-85.18489882701044,-89.39010221936883,-94.54382332922204,-112.5722182955771,-135.5693808744353,-133.54048180856674,-85.02049479133292,-10.927236060895954,46.20460698560485,68.72276108505774,68.66021511287082,63.858076624267916,61.21595517503448,58.259017880662384,53.265191360718966,48.33171592101012,49.071763292569585,57.790082206834896,68.3698233696644,72.41662971797096,66.18122797842601,52.64715186356995,38.87933513385732,28.16635097671969,18.254068095479255,5.282851390993084,-7.600874572247031,-16.54545676084507,-25.490158470391496,-36.817565147012346,-49.134253264982554,-62.128286864301685,-74.00786937497172,-83.54367851454607,-96.12395279586681,-117.02746856307519,-133.25544914758464,-114.73220585874114,-52.62471169198858,17.012708375364312,58.046106691253925,69.49659220291343,69.0928264426483,68.8826686148273,68.14380736739926,63.42668628245863,57.10054006297545,55.074647986464925,58.80257785002722,63.77301855810209,64.99678784406302,60.147048005560514,48.85626500511586,32.664911791598634,16.63845019316667,5.382674601805067,-2.8743026168039423,-12.013997268668932,-22.48004906383317,-34.44530552769577,-47.053354225347015,-58.03285323002075,-68.55391388617899,-80.75846560145956,-94.00310462854922,-110.79339908015686,-132.10492751216026,-141.7470149054995,-114.24725020105328,-50.47193986139197,15.772396622697363,57.75347733529697,73.41200229735607,72.75156745828313,69.87333102689263,72.0860119816115,74.23980511607346,71.10969619976962,65.74175768478855,64.82755780955253,68.55339214644751,72.674470603851,73.24120705347045,66.84501313196736,54.219743514327654,37.94106301932598,20.744761367024456,6.671176865782338,-3.7374863319802176,-13.712498807476742,-25.538406448120853,-38.54261532434358,-50.02692773614524,-58.77990863342286,-67.78130268032284,-81.22558728847838,-97.84586971891267,-116.56861340718794,-137.9902259295876,-149.59311415934368,-127.363534349444,-66.49093067121979,4.853585094640374,51.97457537051002,65.9123543109746,64.77709648200076,67.0707383661836,73.05315051099456,72.55819774709865,66.61742039665594,65.6407138495621,70.0738150048984,71.989960919511,68.77103462797346,63.782842256672204,58.86312332507042,52.57220075803763,43.064758195661845,31.755882870391126,20.97933870284311,9.199152100926845,-5.530677297228323,-20.656964951949305,-32.9819358375632,-42.28582863302219,-51.647555947886445,-65.40220921487797,-80.70142157231558,-90.12191045410526,-96.20536714394342,-111.23827150790595,-136.59493737836794,-146.29843478572764,-109.43146052538911,-36.49369520229653,28.343274709228268,59.74029504040116,65.61023247185958,63.88908714965709,65.3212820776925,68.98409695552131,67.63148472397043,60.30993075998794,56.814345737424965,63.22503029766874,71.65090029088235,74.32289354430094,70.89970386128259,61.60353725654735,47.787507191846835,32.54499412579628,19.65919829384506,11.763961887864713,3.768911158698873,-8.75028285149051,-19.53581546222994,-25.832920315531215,-36.58441650007664,-54.44255611004426,-70.93563411099305,-80.94871724834437,-87.15606945398619,-97.38744111741374,-118.53390681973639,-138.55310710610567,-125.72139602532766,-65.4525331709492,12.694894074967683,64.9100196037147,77.22515878134486,68.9839157981442,63.150655773905264,64.89697564850162,64.2510666911021,57.05326815518432,52.29976283313843,57.0,114.0,68.0
