14.718933990881178,213.01429120121088,287.2090920456825,271.01725229569166,246.6398516665781,232.96371782903717,215.71822329840333,191.93148022607917,166.9435617282914,143.65915853571303,124.85164528132847,112.08805273156321,102.69780581022478,92.1009727262148,77.15242485934353,59.820885933377774,43.09059876041431,24.833010357397857,3.3529081985407143,-19.070993512540223,-40.7638907293693,-61.34262940010042,-78.87909990555613,-92.86470989564297,-107.83581058511484,-125.01602599105813,-132.0061523176888,-113.43635507390184,-72.68003714503106,-29.114074589604247,2.862808660747567,20.505730253492512,26.77057442619347,25.97442352968947,21.92391449370213,16.453143487978195,9.504853384193076,3.3950757802277,1.9536170852245371,4.827491576532813,8.794273143772028,10.18803795274928,6.182720500919843,-2.4792446782141795,-12.631085756135434,-21.99895113406611,-29.89216956046258,-38.92106423136199,-49.65345814102343,-59.52695776263233,-71.23878314243143,-89.44744632924254,-108.02306885506891,-110.34720199046639,-84.47394462114352,-36.73255812418113,12.336015160568065,47.06853484071895,66.71248544057964,76.1275425215121,78.19933357514645,76.91181525263067,75.22008767166861,72.98483699865767,70.43625924808482,68.38526810889608,66.38184789051746,64.18176197669872,62.240393155534086,57.098701557391394,45.16371893216514,29.586833787515467,16.388179871262118,4.775262575839562,-10.735996551087538,-30.089178378541487,-47.77668413064156,-59.83991856054814,-70.75888301370881,-89.49836750725062,-113.80427690659728,-124.9905811278455,-105.59380455221559,-62.48932804002807,-17.82568745934369,14.98671676398843,35.752785375217705,47.90359073665056,52.980188034794395,52.95775801969818,51.50104119238124,49.84764990706497,47.42899028405711,46.303132160545864,49.03003486602241,51.9443303931315,50.180386685687154,44.44247638620966,36.58716719677288,27.241617321636664,16.51850017469179,4.612669551170677,-7.253437306309189,-20.464022443505687,-35.416085696286004,-48.89308906742089,-60.36690185186382,-73.2852184699784,-90.35513454199868,-108.40168150595869,-116.4072404094183,-99.77080171058347,-58.66102843233673,-12.374233396983524,22.55726994063885,44.55948483313453,56.82495043659777,60.30875719994293,54.86312775426532,44.07739433653545,35.90432209442688,35.15884352274325,39.93617083328186,45.962993903020696,49.40146418595785,46.75717484237631,38.97662245881151,30.466086284612192,22.00840138605282,11.98816856165796,1.9153524286824566,-6.83019210301801,-17.527101099515097,-31.532242260178844,-44.59559129189452,-55.02527726661985,-65.9571019800664,-79.72185640515816,-95.00061983009664,-101.98278943977726,-85.22746891456636,-44.329442724929756,-0.3852163193389445,29.10149982409979,45.500075774037015,56.01659159743932,61.15001949738613,56.5237363480565,44.976640688727194,37.39187968270725,39.276264440255495,47.21522054237879,55.56149624521724,59.227612264680566,54.48284604239498,43.75873684748087,33.10795657240311,25.02630939423688,18.535219275537646,10.992836993191798,-1.8990400969640777,-19.90546428181662,-37.268954807505885,-50.07150950715403,-60.07569455165744,-73.41770725418395,-93.26843341337337,-110.83662753966307,-107.99028204847113,-75.23017671130243,-25.597461963992547,15.879600183675747,37.323039702156606,46.254200923918255,51.30910595171486,52.16132994151822,47.89893500398055,40.53899664481658,34.35321981419229,34.044809986734656,38.68214688886512,42.15944074773964,40.797381256227766,35.584316361850696,28.918837710226118,21.13189195803176,11.370675125986795,-0.29801372215456445,-12.38279101494749,-23.29362298497409,-33.76221144182789,-46.33311211508928,-60.06867354563805,-73.32265985968645,-89.758162348623,-108.39193923548679,-114.27568816869396,-92.19502375924884,-46.42247992548791,1.4614080815871375,32.622738785675466,46.5167768813468,53.207910831605645,55.73126366490729,53.48533944698437,51.68547176267008,54.38806633771024,56.718813001086886,55.599939826627256,55.87377169207943,58.90316483937777,58.38479729831465,52.238854967517035,44.42375151446451,36.11615349536201,23.900604444448888,8.13157551494247,-6.487151972219808,-20.026969042270167,-34.96744164922882,-48.760423901466154,-59.97159093393755,-71.86373094428046,-86.59652708944846,-104.51055278725251,-117.62216082340173,-106.24052684489307,-64.60298085915679,-15.08421463291977,20.11853175736121,38.71358990865823,47.66124266758399,52.74570074426115,54.55458503184664,52.012677536920386,47.85882579856949,45.12014037606867,44.29637296931994,44.917716608140616,46.64802630623146,47.15610207934591,44.59679880830776,38.58952755138614,29.764962671137244,20.583646372666948,11.531297679275124,0.7827046563624881,-10.574040650999779,-21.288525391778457,-34.61101139262779,66.0,111.0,63.0
74.64842215926217,72.23769146434968,69.78009995110918,67.85036432234735,65.71908084859837,63.65498013594583,61.32318904635229,54.3539184962813,40.73574208932127,25.37798932129488,13.127248549194203,0.8465496193104578,-16.125583656300325,-35.64390024023244,-51.83956179249531,-62.67600366517669,-75.13204108136716,-96.5233198345852,-119.43482735557136,-122.76874421061571,-94.63965698572082,-48.853612302917256,-6.9370399437728745,22.05655599680228,40.040524122885095,50.06047850080159,53.33499870424037,52.55829899567618,51.07319744803907,49.215282289063715,46.7923389442001,46.721650054978035,50.14852669141821,51.98018488464142,48.81572583728699,42.356487305238836,34.01483276320112,24.306917075995703,13.137157013042652,1.176258724223331,-10.82189090530635,-24.726489701801924,-39.58040372423374,-52.311597055232426,-63.76117981185067,-77.7948991910433,-95.79434641238751,-112.44187304272953,-114.57237572082796,-89.78709994417662,-44.81290235314067,-0.8100347231921425,30.085242627479097,49.00759911645966,58.75460602547529,59.607866730339104,51.980464605675536,41.10379869601474,34.90319446923411,36.1644912556713,41.72027315843202,47.40083955960099,49.346213716206734,44.83877964176361,36.45455962259156,28.101690177492433,19.28766231369152,8.94074578873507,-0.6688735606133893,-9.540577098964734,-21.357561106200066,-35.60788056525599,-47.780774543636255,-57.980905634889346,-69.60684137937069,-84.20222156617022,-98.57792120020055,-100.0803778039386,-75.23383847276229,-30.830494525229014,9.864682610503323,34.819698660089585,48.947017456220166,58.247783615223014,60.920838330544385,53.46849453296805,41.929567592957646,36.995582271987814,41.2119463987644,49.80664548442729,57.33270248866797,58.755948384117,51.725022091746965,40.46253989448573,30.52118500495153,23.059728105360293,16.653872729369237,7.954566764309794,-6.782432183847404,-25.254001303119786,-41.47432397457113,-53.02214661306138,-63.3021196220854,-78.59604467599962,-99.31711802402852,-112.88195597840966,-101.46788844555626,-61.52614934388656,-11.82068508171531,24.063557452314335,40.63882327531701,48.00159040705014,52.09369364626912,51.40756475559735,45.94752216784888,38.3879010732695,33.54586766657291,35.11654102517865,40.06134608486261,42.29901021417416,39.5571777539302,33.753918511179215,26.812572243998762,18.55038660327199,8.141480746347975,-3.8249412188697947,-15.695728981224129,-26.238857544571804,-37.12484266257453,-50.32579066156701,-63.87376111142473,-77.54781644537246,-95.33801635392928,-112.2804575139492,-111.04275186317231,-80.63256988993078,-31.72805393141243,12.598312042097046,37.97502791911165,48.853059530431985,54.44809854495008,55.464803039224044,52.58426423430022,52.08789035245569,55.39869012155679,56.63630499306764,55.28010800891811,56.68446650153409,59.37980889548838,57.06025649301373,49.9752611917729,42.19282457402905,33.11792392401844,19.50484933834268,3.648581740342665,-10.345725715578437,-24.217387375678808,-39.24956215756865,-52.160566618739736,-63.190056994822186,-75.78306953287742,-91.52070135133977,-109.55525679857539,-117.6715762744374,-96.73336657047984,-49.79793246058746,-2.9922426527542285,26.932177083345547,41.96372951058949,49.39217935679588,53.69652695362963,54.21646559919726,50.80203043061986,46.85402038808252,44.713542315667446,44.32747754862324,45.36631590196708,47.045333211992045,46.76024424045793,43.21957488108357,36.24427526051197,27.04298748293258,18.044577535499375,8.627004495610231,-2.5587321760433492,-13.662499595936108,-24.701346410755946,-39.18505643207936,-54.720733949548524,-65.25922654756566,-72.86671426718625,-85.69092402345792,-102.40298394604974,-106.70449207143106,-83.058836850971,-36.38204917387389,10.074815501731159,38.12520209229774,48.921375756490114,52.940192337408874,54.140508110805825,49.664412194337174,40.97421040544567,35.647023477436136,37.24966279783315,40.76360787397586,41.12669194955406,40.01730310150908,38.10631401364272,32.333291609212885,24.285981645036788,18.22768437909803,10.713420589482121,-2.3113666945628637,-15.11864340456414,-22.841372436065527,-30.663840344182386,-42.952773857103715,-55.67174538433042,-67.327374639489,-80.78016594842657,-92.12612272046486,-87.57759496835223,-57.29943481691259,-12.618034901158023,25.091213988184034,47.114963337182814,57.19617182485901,59.78718805919602,56.19723564107284,47.34112094194508,38.1649030624369,35.60347095671901,39.76000455340688,43.494811568336274,42.97747108583623,38.90807799288548,32.135226908076525,23.274177964755925,14.182202301625672,6.617247915366621,-1.5654974365469319,-13.646184569787676,-26.951405245087912,-38.32932094853258,-49.88589682501606,-60.80208451838134,-70.97890517658479,-86.25650060554494,-102.90252025386346,66.0,111.0,63.0
48.70638478850445,42.58590210812298,33.97556821534484,25.703131264168118,16.40374781346332,5.975604320941277,-3.1564883919048365,-12.532332362372436,-25.429315528379096,-39.46492006291247,-50.77866355706123,-61.072561027135755,-73.52772504196128,-88.73760187568915,-101.10576372977454,-95.82008506847208,-63.47222649025906,-17.74369688201696,18.67209408287148,39.637699491949924,52.05371095240677,59.94514324071995,59.76671755184372,50.03159001480177,39.50533174586549,37.41356543057582,43.509488028760124,52.308561878036244,58.581650775956426,57.523967004753025,48.60544101049271,37.31473168137051,28.154818602211435,21.192210650301483,14.59397292858551,4.361257860488407,-12.006102431994583,-30.3845850329729,-45.249640968181744,-55.842366416652254,-66.98379274824283,-84.32613594562488,-104.81485067305711,-112.74009356393486,-92.39526822579985,-46.96822007620751,0.6583820458595768,30.515886542390295,43.234542007313514,49.53706584300045,52.454799992874236,50.241365450806136,43.80414878652898,36.465050541441805,33.3292761005726,36.49254963190361,41.1823393252425,41.9915565706772,38.064783253503414,31.84426631239336,24.60224264042811,15.775883649097219,4.777355550600356,-7.346085991270933,-18.87220656080969,-29.20704827784156,-40.71908515298385,-54.3355934461133,-67.63937967959451,-82.1857066093707,-100.9512511712978,-114.60750759735966,-105.20774778232719,-67.43875388777565,-17.479928261188018,22.005278334545977,42.08734102224335,50.83181664625887,55.29934171788361,54.81721996455993,51.922716270522976,52.875043135333065,56.18693317641294,56.28146798630583,55.25436937852774,57.64628547471175,59.37606856155651,55.307685549511355,47.696015542358786,39.87967174202151,29.689397050671907,14.904328803202828,-0.6216977349114327,-14.200448028010861,-28.551782266194827,-43.317423489670716,-55.37845670537573,-66.56279576756617,-79.96349747738766,-96.7209904867313,-113.85244380009605,-115.11998746462882,-84.86740591953424,-35.09686819301804,7.547348792154893,32.48221189973043,44.59724899410563,50.90609941140418,54.32539776570425,53.5159799333386,49.560238289068764,46.01829411491699,44.45346890806405,44.47515020931688,45.890587906992295,47.26168409936139,46.08821110452092,41.548461574459516,33.6966513741338,24.367300631356123,15.477279504207376,5.543187403871674,-5.879413592159676,-16.704933918121462,-28.456609501650686,-43.8809608071956,-58.40459861126443,-67.39857173324302,-75.77987335672755,-90.62487532836158,-105.82409386490338,-103.01947685797336,-71.09052571176782,-21.822670203802907,20.3850008865188,42.55835656944334,50.402925274493896,53.65891249932532,53.53606137145267,47.29609527966717,38.76449732932682,35.48803103817822,38.4033821188254,41.22307010662939,40.81458327736748,39.675750535786115,36.91311841008046,29.99557045630271,22.30159916925797,16.533486334021557,7.428000228099742,-6.416435997358669,-17.809111464404374,-24.73099649763337,-33.82994128439256,-46.80438248939548,-59.01434722113659,-70.99002114176264,-84.742402544449,-93.1571872095525,-81.41629599995977,-44.87356952153225,-0.27298109819396726,33.01852924687447,51.00255501943307,58.60122404650208,59.38398589230817,54.056612242198845,44.39046350450844,36.536854649511625,36.378732296078304,41.18572093743124,43.78496618025064,42.11571890578515,37.20942261649158,29.737849657481554,20.558591798467525,11.837719024487912,4.5182530590412835,-4.640743818374414,-17.608708243384942,-30.396399793793407,-41.56978099150642,-53.24791568568453,-63.59743652186892,-74.68786338995798,-91.56852086820119,-105.45449970079636,-97.06719151971903,-60.09756375553869,-12.840036101248028,22.84490032964743,41.80172653336452,49.786301247153546,53.8762408037129,56.2051075437972,53.21672079539686,45.771682011240316,42.39253478522859,46.61957084156661,51.8009603714319,51.281674919841464,47.0185934501659,42.72176194158652,35.66668500309706,23.916611982958035,11.269787041798244,-0.5816709406271763,-12.793939152710447,-23.88605110569734,-34.76484663015242,-50.493535732818685,-68.3093871333247,-82.22556269661742,-96.7617282225668,-111.60954161540671,-106.46974557213404,-69.80637237393181,-21.487637652319254,15.097717395983148,38.049725232554444,53.02983411812372,60.972323336817624,61.62710224096442,55.51504068790195,46.369971131011944,40.82717771121261,41.81166198168537,46.031094020707116,48.76329450298983,47.84815828638101,41.61314641511033,30.81529709372165,20.09714147247757,11.866649378467912,3.2062398800373373,-8.376522822268669,-23.087118847401236,-40.10259015361617,-55.337904136783635,-66.18305962234646,-78.66252478787422,-96.81800513472936,-109.65961794690237,-99.21992619249139,-60.58654183387749,-10.247531108120956,27.271157785715673,44.25183366036399,52.01880600360153,66.0,111.0,63.0
1.3179982707540028,-10.81441792050163,-21.920791691507482,-32.28489542684241,-44.52395112484262,-58.28264804457147,-71.48310151563719,-87.27526569927781,-106.21276054369599,-114.91586270228083,-96.84099277222052,-53.18261767161518,-4.208336497308362,29.656122587534963,45.27598133205632,52.52458282924238,55.70300012560304,53.9268503947646,51.654070385217025,53.893442492937524,56.63775272837074,55.807691170145425,55.595474316679535,58.55783850694088,58.82455436947924,53.25167039298513,45.449138194318174,37.37132226606514,25.81988819846284,10.252889736128598,-4.676072218497477,-18.15275046420324,-32.94968635825936,-47.108551296774365,-58.519178547505284,-70.138694647317,-84.43207332778478,-102.06520226399127,-116.84475815047384,-109.70843205711527,-71.25981775937584,-21.1354877141833,16.502891648055193,36.95843461052522,46.7741802952198,52.21689477747809,54.57561342728391,52.53304154201756,48.3711018176535,45.36281277566369,44.3195491055042,44.74871967277711,46.42263584130335,47.248159212397105,45.13361198541594,39.58710105904263,31.01996089989903,21.763131492027856,12.810677589855569,2.308858746121553,-9.11749549047071,-19.80467107046943,-32.58898798478219,-48.50243441425926,-61.547760155875224,-69.46326743569455,-79.33457172634274,-95.68492899108972,-107.69465628901732,-96.72833648758653,-57.58015128191074,-7.9436357169561695,28.879290853187225,45.77425638843681,51.573329945270764,54.12861177510893,52.361700612552674,44.70598050738907,37.04571069968482,35.905383014892266,39.520952848858464,41.359664531773575,40.47955213316133,39.21645762207892,35.31701186470687,27.593803941380088,20.556493153967736,14.525732044456758,3.668963398317738,-10.271484517749792,-20.048503692720203,-26.850214263472918,-37.37819208405584,-50.53632984021288,-62.32272678660897,-74.87109990417069,-88.32565728145678,-92.43826923922002,-73.00986640605724,-31.761947665974226,10.999633072872738,39.61264036487633,54.040948367109664,59.459644183145706,58.46410673055214,51.517906552139074,41.585475565016615,35.621861074960954,37.60445135559074,42.37709441723046,43.701975193537486,40.98839737287872,35.297704736389086,27.184963744088563,17.886383831701863,9.648483061501015,2.258778115835445,-8.09170730555752,-21.529327139200465,-33.66824338899464,-44.90508973885692,-56.46147538510928,-66.41202771820403,-78.99564351885313,-96.71691531480859,-106.05599523955478,-88.91623676279467,-46.31788913041781,-0.7732164548264656,29.88197419277937,44.89413570530011,51.13014073579426,54.83463374569266,56.04065015619274,51.213968031056154,44.00889081803281,42.97849074686814,48.438224164421754,52.31103847471461,50.1907742832155,45.778110458206555,41.18153280156091,32.64453769864684,20.17379586482678,7.822855388833323,-4.077565494461728,-16.211157677605343,-26.814238060116416,-38.70697584293936,-55.80105494080633,-72.74145782872316,-86.0120471421248,-101.62421415659756,-113.23912660393526,-98.75591607822767,-55.69612515542724,-9.234394222582042,22.822288411173734,43.07552415980015,56.07234376851438,61.908038601094034,60.48273390348762,52.89936974468389,44.14278494729779,40.48858951736671,42.94340697999161,47.107393952772426,48.94425043214561,46.648762478734994,38.80017756325219,27.492265011380315,17.52344719616301,9.581501660413462,0.1860437191546344,-12.306889056297118,-27.87510604064747,-44.93104917693229,-58.80853028747998,-69.23660069837813,-83.50067371036998,-101.90890410341673,-109.65120678572856,-90.60041370059528,-46.09666134735406,2.741694125135591,33.983997172656174,46.827615353923086,54.10127961388947,60.35600367282763,60.45283630658579,53.435310720536215,45.63404582223693,42.38275012927243,44.66282103517797,48.391492582656696,46.209592946028515,38.007109224813775,29.285821943457965,21.23656452331813,12.474653617223806,3.406537677816398,-7.207510181853766,-20.430264809425328,-35.20456077905935,-49.69112974162498,-61.01737420817063,-69.66892710179457,-82.36826916559183,-100.97092772268394,-109.21016193785111,-87.32758826149251,-39.21510312446977,10.043572892101492,41.7317233523108,54.02321693450096,56.4260988474286,58.018318986545715,56.87127960404188,49.821581257155465,42.366704169292696,40.16984418407286,41.99376076073316,42.87836440454313,41.04537832687723,38.567140251872175,34.19797607201855,24.724070197035225,12.626158346325926,1.3200206580355855,-10.497681558090989,-24.49702844637528,-38.955650968834824,-51.56306350066672,-62.43551151766134,-76.14346500848204,-93.63745034071827,-100.51665629430792,-79.3412685446832,-35.45972914895998,7.348903251588864,34.21366797576126,47.7264498029417,53.0738077350122,50.742164624349584,43.947895429901145,39.2392509915889,38.238056648959265,38.86998633851931,40.04021446668518,40.44096094389546,66.0,111.0,63.0
-37.05026741774473,-52.85277334948383,-64.18366466563296,-71.70575956315601,-83.5510578574269,-100.44506473472539,-107.55212624245227,-87.90789046004052,-43.155198677011875,4.739360046425392,35.589868221218246,48.08217991999933,52.54657632306573,54.24091469672581,50.62927253732286,42.110665648381634,35.937209646466336,36.759197282804784,40.43904361648633,41.240420838856245,40.16127311513068,38.529128297398785,33.34521886220881,25.284743152177853,18.95883730547521,12.043080469369215,-0.39538497141234297,-13.705146947180761,-21.989676211722916,-29.355848613094782,-41.16921435245389,-54.09078849437379,-65.71073638254846,-78.90646398980027,-91.17319731738652,-89.63428715137566,-62.631022383983755,-18.570696237423473,20.96613636856529,44.998146312820566,56.35017385417416,59.80102669779594,57.028071193734256,48.696227575083505,39.12816261825081,35.447837965247196,39.066855503705895,43.23003375160938,43.27810767375186,39.61739600861863,33.17900453571257,24.522692409002396,15.318066301887882,7.5655527578865716,-0.27790100609721413,-11.846441453565525,-25.289891919550122,-36.85810445478732,-48.31168659254495,-59.47557089682211,-69.44748776318568,-83.86725577321016,-101.20507574198339,-104.30716101992755,-78.46491023252214,-32.343994560168156,9.917963682143537,35.57338903133615,47.25601400605276,52.3100811448964,55.619529309342106,55.31099690418707,48.96705435266162,42.83105573035097,44.17269972492714,50.092688078019314,52.252062097791324,48.923721342217185,44.581119560524506,39.2723472916593,29.258958211006572,16.479869233864914,4.421184654908044,-7.625795496342968,-19.456888510328373,-29.83031817399302,-43.1730714931992,-61.0828964072144,-76.76395987991201,-90.09390529480521,-106.30529360094164,-112.53014140361724,-88.42770118588544,-41.380409087158505,1.649575182680994,29.57164649117779,47.5329332109546,58.50995512176092,62.23641402150238,58.79270509277047,50.1718202885236,42.3835414286853,40.70001662233509,44.21135802541902,47.96919377022873,48.787101102440566,44.95752477522818,35.67353900868705,24.315411202890868,15.153785752970855,7.152676071760892,-3.1015353876279366,-16.49946999231377,-32.81926758854323,-49.46416394162077,-61.918935174730116,-72.66307203218139,-88.80531539305596,-106.12206790006576,-107.27746736564265,-79.71108759440897,-31.230101533323687,14.09015889295433,39.060667448281876,49.01468992201821,56.1776519085803,61.23317253157285,58.95945737415367,50.93517074405955,44.11561277016954,42.527805953327736,45.93891378734395,48.5779797520689,44.2193247908636,35.35884403201897,26.981795823742665,18.771622900327074,9.892205815830064,0.5917898070120584,-10.78222147991279,-24.603910712476292,-39.537465677296964,-53.39194972471371,-63.58311284974069,-72.57855975612641,-87.50069072466994,-105.49549420328202,-106.40699314805013,-75.19050664259204,-23.94608862321509,21.372715473041627,47.001529270462974,55.18456202220059,56.8414003155603,58.25023354819841,55.33411163334543,47.359534107877344,41.10708419249018,40.498104992953394,42.53082696766446,42.55958674388695,40.33142736814398,37.695212309030616,31.994266969033802,21.28030572766517,9.248419470047395,-1.9073515369986134,-14.34367061115704,-28.747380634120923,-42.85563857642202,-54.75860962321339,-65.85408611922539,-81.12996980770139,-97.68294740939355,-97.61308523658268,-68.05836984417463,-21.954126074551162,16.880070093146713,39.16178030152093,50.039053809088614,53.17166828969504,48.9341633366747,42.16721327160617,38.650783731345065,38.332839353780585,39.16916453140975,40.36263859875535,39.97656476789216,35.777981883528874,28.99504376643146,21.45449202371947,13.30407719202398,2.537295424382876,-10.6394193935896,-22.225976521819387,-33.12054541950372,-46.75151037062446,-61.55240973991442,-75.884391994108,-91.34491352574936,-101.66296351272777,-88.89734364154606,-47.87684898431671,-1.7409364570016344,26.95815502152727,40.42241368169645,50.979601457139964,60.61539649995259,63.272999880288545,56.88714774388015,46.96179823991526,41.097003360241345,41.163808859969485,43.01628924458451,43.258959464442995,41.06326380248843,35.95444198123054,26.936689365819404,14.481371682573247,1.1395597588130424,-12.73628775504723,-30.015138094083806,-47.26619879360358,-56.50507449889018,-60.84833652999948,-72.38706470064417,-94.52254364251189,-114.16115140794612,-110.14768678523838,-73.7681636841543,-20.941467764043843,22.833921794649605,47.816162589892095,59.53776228025881,63.27753436368493,61.072650933775755,55.14733408647196,48.545108644279736,44.29698460869357,44.110094207683915,47.33646280101319,49.21733730426029,45.25221799272466,39.09158767627151,33.906423972465305,26.094621326181763,14.921970214695603,4.49800776501485,-5.611678671051101,-20.31544990958368,66.0,111.0,63.0
-104.49166324392814,-99.9638161359975,-66.19640819083682,-18.797865537793637,19.112835465925944,40.07671107811205,49.078183165424875,53.399282996031644,56.112687806353144,54.00006192176554,46.72796709023368,42.360183299208245,45.79252733935763,51.376177425955966,51.68393592331551,47.61221973214149,43.34246793559378,36.9126547477547,25.63250074964918,12.888403498921582,1.0082376078449415,-11.176654290315659,-22.520660887743542,-33.11465163271515,-48.10408684935106,-66.11725326030134,-80.52114147835097,-94.57516002702941,-110.23470738407762,-109.05704332886116,-76.02669330205504,-27.550141309758338,11.151753625339163,35.529957636363314,51.42776826582753,60.33608451100912,61.95805486069247,56.63555432920814,47.51793802364144,41.18170601197152,41.375902944383085,45.47884141445597,48.57702894495018,48.24346858938983,42.77490509862285,32.36360514221067,21.368173860564013,12.89819104741248,4.509230048328334,-6.6520856265422195,-20.951611805714535,-37.816910664624736,-53.58931894718597,-64.83930317573125,-76.62934467469094,-94.31268609504372,-108.95237948509495,-102.35684139244675,-66.95315069154246,-16.674141641520475,23.556775593321927,42.83989055072553,51.07122445417278,58.12051606437904,61.43950708931949,56.943033010397244,48.567442203777055,43.05550325627202,43.13237755986816,47.16320684682214,48.10223665987629,41.83709890039374,32.80247964411672,24.687865959807926,16.2368852391719,7.298260782770633,-2.410614905413262,-14.573348480484933,-28.872119487316873,-43.79202724685392,-56.74876465530638,-66.00314358974961,-76.04957710894642,-93.03678138115325,-108.56131056397078,-100.70859773056416,-61.27827964889187,-9.2824269369962,30.9544626628751,50.75118415215487,55.83412999062777,57.33008689526761,58.08466265375584,53.310110248361525,45.069150808370296,40.37218027515611,41.05713522644008,42.86545650108492,42.03054800052013,39.62867845952663,36.563243631367534,29.318779562230024,17.742949803777528,5.9830585914458645,-5.258849613447977,-18.376895175025368,-32.968862130915994,-46.552363690289944,-57.84734990805389,-69.67333845203021,-86.35105761433255,-100.31286316223712,-92.03918029108897,-55.316806671282826,-9.176019518355783,24.918938183406926,43.18758287500826,51.73676066074899,52.60998125758604,46.90477031615273,40.710818558373866,38.33773449954753,38.51098082571002,39.508124266104936,40.56088519727333,39.16108200015531,33.97901980888884,26.84862781203415,19.217894618591714,10.561237001881098,-1.1911117683209835,-14.2603511404103,-25.241364711398358,-36.74639620274455,-51.06301913623074,-65.67950248423315,-80.23787422805822,-95.52976176874182,-101.11719550951804,-79.35500036051084,-33.70078627293654,8.709139712035972,31.822157156745195,43.40626842800481,54.09853235723335,62.335972412981974,62.24061243740327,54.00781448063787,44.61362487373728,40.628180568861204,41.73031447574134,43.31659154452804,42.88677096766231,39.92671237327547,33.78193849532728,23.59742112438747,10.608582139286428,-2.6922370422295687,-17.32679600498107,-35.40554815135575,-50.928053467379534,-57.74992283936186,-62.99555562083128,-77.97052394737223,-101.38589215764051,-116.23930591427751,-102.71320089970035,-58.98903640986241,-6.504885361718217,31.877602239100494,52.2354377448038,61.3280615676123,63.16749299589841,59.62437572024162,53.15981314133903,46.969836618617904,43.795250924842456,44.81510849454746,48.31859293824658,48.668524241220766,43.40846120691954,37.58319592344013,32.091975729637994,23.0554414359836,11.688429709053407,1.772019025979255,-9.25581466177969,-25.560218380762457,-44.93749028356985,-61.28004239590817,-72.42036529362056,-83.62327488521902,-97.96308296057069,-108.01146867020191,-97.6826538204828,-59.7890523773897,-9.836534971397365,28.670935798086138,47.54668494498174,54.997699047617914,58.57546450195237,56.97173398324807,49.779981355787314,43.89103702438428,43.94230892707528,46.04514716828044,44.547056058732046,39.475545118992926,35.75049554910264,33.44742005883289,26.497355403850715,14.588775819169108,3.0092338239950824,-7.156970495183796,-18.473421684867745,-31.85700720602876,-46.385242291515326,-59.475727522263696,-69.26503671984966,-80.13251677751002,-95.25343198989637,-102.04615464037006,-81.3280644940724,-34.783826908239995,13.090100790733588,41.02707305932106,49.48892462582487,51.14188252380069,52.38139089671681,49.664017586336556,42.18380852497072,37.238446339757786,38.63735823595843,41.94566795748424,42.684167827674784,39.88021086452855,35.62943502983206,31.511278018665863,25.014060306639422,14.535590974405135,4.0017489290496915,-5.490532667412031,-18.239917505216834,-33.9792779852614,-46.89788554171193,-57.64660376722088,-73.41430615108457,-91.97403966167116,-95.0450283138937,-67.59250756171005,66.0,111.0,63.0
53.13714718338242,59.75552498559347,60.92670376414416,54.5832598973394,46.47601469963389,42.48083718463192,44.11686479733641,48.10814713876905,46.95079692967698,39.23548351962109,30.370232481070094,22.344127023097073,13.664725312743828,4.656063089178768,-5.638644342088168,-18.547129141928277,-33.20035531446471,-47.883878822287656,-59.74680694565671,-68.46223711699888,-80.21059544319955,-98.56853168229682,-109.57376730151805,-92.15870043372152,-46.287530739447945,4.272166051188382,38.73848317637264,53.22842322430503,56.25176105163686,57.82592684430651,57.388664326176325,50.95993155172123,43.11756316016696,40.13360599008557,41.70406483159637,42.9382530650975,41.3708240225568,38.91713543238197,35.0495122192294,26.2446395090401,14.22198070725669,2.7885966516590583,-8.795728710464424,-22.546503121870593,-37.09831280634565,-50.030561988805495,-60.954113840010095,-73.98603404802677,-91.45354188227897,-100.98817492283216,-83.88664669638015,-41.78086677786024,2.452540859615625,31.568208492387654,46.449468946709764,52.8029263085307,51.448630114079975,44.85178452220837,39.62044291754844,38.233198114112845,38.746193131071074,39.87306746267464,40.54391775506394,38.00194822345212,32.025838943410285,24.670921112074883,16.914663018255332,7.526724514554578,-5.050962885553282,-17.646365847083043,-28.307147051874637,-40.65318697647746,-55.376475489233925,-69.77859093211903,-84.73874852891376,-98.9853967039198,-98.12460331362361,-67.6198660549488,-19.89731053381896,17.360240042940095,35.7151737194136,46.421163558195396,57.0361146755785,63.31457950299517,60.47739544761588,51.034947864027174,42.76990059519584,40.61707208068511,42.31378262409084,43.43620913709511,42.30480330704043,38.52988846501259,31.254918725785764,20.011070445202936,6.738201097987292,-6.614708205730246,-22.27974097008271,-40.59212963668239,-53.749638815742536,-58.830434624960695,-66.05094038573338,-84.37153043899868,-107.56360615868326,-115.81857290701755,-92.5794105858335,-43.47016634147327,6.597954465113551,39.34708453690064,55.75027661914409,62.52428774879802,62.60314275558359,57.92534455850047,51.199031813610254,45.655829432429016,43.660039943549144,45.762488203221174,49.01877416901005,47.577468498792946,41.56237272686145,36.14480866362805,29.933105416304986,19.79699916701829,8.634877981947641,-1.0338621339714296,-13.394000174874106,-31.08936746551304,-50.225641578469094,-64.89166389884271,-75.37151277986672,-87.53782634670213,-101.94275411070147,-107.8147122849112,-89.29571197353016,-45.46723633082307,3.241307535560654,35.96615868186643,50.37406458435972,56.35476684485177,58.80173044986939,55.2643631245878,47.58191107848073,43.33348292634026,44.63664456028947,46.12844349209671,43.25602966396926,38.0815079450645,35.17468603834919,32.13268362530974,23.333211465566716,11.039162644036033,0.02679964834701322,-10.214902249433738,-22.14722261063935,-36.011352131522905,-50.47213139967508,-62.57789435371629,-71.98286952238038,-84.25565754454429,-99.04394133249262,-99.38060445965013,-69.71493210054497,-19.823955093655464,23.615396277110545,44.96599955299822,50.143761511279315,51.5902644798996,52.21253080355124,47.76819773533457,40.13454084399026,37.091698454954695,39.657887860996254,42.53124626970377,42.19268383186266,38.66891886525514,34.46356656208091,30.048557279802598,22.298419478251112,11.29666502834485,1.3121323008149672,-8.681659433167688,-22.72080559087922,-38.18776435637257,-49.92233550611984,-61.45802566389655,-79.06243374576528,-95.4420529324773,-90.34028921135759,-54.775546289512036,-5.684517644083322,31.56821125971133,46.832419188541635,48.54385770313871,47.8985541432251,45.78041367086293,38.3749819135395,29.082583477612275,25.676899179201786,28.40186215033435,31.406627655493224,31.556671867116496,28.224027758831465,20.998129987414615,12.239798854575822,3.419056714689445,-7.560299610894879,-20.97383876512903,-35.38670545740399,-48.92575564885606,-59.98048111009131,-71.80961751833014,-87.6151105792911,-98.21435757141634,-86.70934421963595,-47.86257547129493,1.3482343828479344,37.938488550136725,55.26123236874294,61.55044020611652,64.512834981009,63.740984437410596,57.15016100228517,48.89676482470906,43.240697530107,39.559484102929645,37.53124130140311,36.38857519070633,33.248265483402804,25.748784187903425,15.479489420565024,5.446548194602283,-5.463987335363482,-20.362707468342997,-37.78945519876725,-53.165761539949514,-65.76668813879505,-79.75363836571569,-98.01109194447757,-111.94093149098939,-103.59777481955689,-66.54052623920063,-16.96090400849993,23.893176785710313,48.19884170438959,59.93066469122742,65.13514731123612,65.87022790238666,60.780383696143936,52.87294400658638,49.58580444547678,49.71931720736461,66.0,111.0,63.0
40.233329970690185,36.53885029725651,29.96820071025852,22.47399570824077,14.486043311013072,4.1790799946228905,-8.903035981215885,-20.816255971967244,-31.544767756381177,-44.79017334608248,-59.624197372682296,-73.93042432393115,-89.28768597637374,-101.2056172958277,-92.43678769606572,-54.32257083439821,-7.1346970566627474,24.2853225464738,39.011135442358565,49.52772087629735,59.60507184242817,63.47806416268898,58.12244779867631,48.18264615083035,41.49293789081403,40.940260415887174,42.82375348467703,43.36126239663349,41.50678828816377,36.84080120520398,28.37608736230219,16.251266147467234,2.9003781544075764,-10.737940809104039,-27.53227331756505,-45.31176026660264,-55.78516934273835,-60.10190620404035,-70.14408010179075,-91.27983585164478,-112.47797313421124,-112.60669569178727,-80.13450732804614,-27.92956868700182,18.10061592068038,45.42480373056526,58.50018655456722,63.16179951827614,61.63747122585576,56.04951421935593,49.344453866580736,44.64833879561104,43.888419898854565,46.83820164215373,49.27790959006724,46.05427517372306,39.834380020599816,34.65161549708571,27.39097514218182,16.453913034283698,5.770602194539487,-4.083284507435071,-18.026436371914553,-36.75682475477205,-55.09248163505449,-68.10492608199901,-78.50505687057935,-91.71983435105368,-105.26166428449784,-105.47207920148249,-78.6289591064264,-30.73779028376517,14.838051969823153,41.6433624422001,52.54726436020479,57.48010028069713,58.488336535085544,53.15859116440849,45.717782892642816,43.29758441568701,45.33845473444664,45.79592120606729,41.74808651148227,36.93642608578498,34.62099853784141,30.26147824506299,19.862767683734038,7.642326063218865,-2.8781798190689134,-13.435414759117291,-25.988098245429732,-40.23109028783115,-54.34882121478781,-65.39841039427267,-74.97471718866515,-88.72928033622554,-101.6275835809642,-94.01117918901467,-56.28606450396478,-5.4924953259975515,32.13185916513495,47.51402814472733,50.56752592084067,52.028152278382684,51.566585929853545,45.55058391664495,38.53238185545455,37.45977114605236,40.68252909496154,42.827078375922056,41.41375123008246,37.41642520518974,33.31425436632316,28.2816314289254,19.2673724458038,8.194672314260346,-1.3517047910735818,-12.26812105114355,-27.348113166118328,-42.007827889339474,-52.90146338397405,-65.87936751289003,-84.71802775775495,-97.03652737742424,-82.8889243245909,-40.77248944077522,7.161725147189835,38.12401100444005,48.10512132938186,48.33779562500996,47.64543384024016,44.22476663373796,35.50832121324094,27.277230492553652,26.070566277457374,29.471816706768255,31.77504530468465,30.99034278128524,26.495077917613532,18.473112855603816,9.763380367979451,0.548907927295762,-11.247101455596072,-25.09940017518042,-39.4981208114477,-52.35328412776858,-63.04768963854194,-76.08573877359301,-91.9590911680669,-97.78821534709704,-77.93278854399657,-33.55811966072147,13.915409440390594,44.710956582825716,57.739903495861725,62.619473866911406,64.83835490127065,62.3757608150874,54.645688367270814,46.96978943099596,42.02306670533501,38.79323230687002,37.209179821948766,35.83675029925548,31.545227177124445,22.90271427138373,12.502710609318564,2.5496146841944167,-9.302158013293434,-25.34902337010609,-42.58581061491173,-56.97725013821499,-69.42330937884398,-84.68268339214796,-103.23053698949134,-112.52703310454875,-95.49595541429451,-52.426218059672955,-3.6053189281436704,32.57957904406301,52.57427761106097,61.9168686000676,65.84487180962917,65.02984944860893,58.43096137413998,51.261085797904954,49.59924659737969,49.35302321833784,45.573884626443395,40.85449169718816,37.58131622478531,33.11543801412019,24.780754465216535,14.62723537643757,4.677637805474887,-8.149003595627407,-26.237918088147616,-44.395562259319355,-56.36230091537667,-65.5233304027114,-81.55188284903764,-104.46826503575076,-117.79273173536566,-101.37907369226801,-55.288359596660065,-4.442513163025207,28.56233707912591,43.46672200852707,51.682818270196755,58.124506323626576,58.645261110495426,52.78029270634613,46.85124108711454,44.38147095114405,45.51513922465799,46.38323513774057,41.94041728672882,35.07482380722865,31.029187067258107,26.54148073593846,16.907559560167435,4.28729214137604,-8.470690775026151,-22.55394784522526,-37.84057658750355,-50.6393733185081,-60.62464374522821,-74.05785527176877,-93.17360156670695,-105.05969036676444,-91.13877970555879,-51.04878763600632,-5.075075186540504,28.725891061984264,46.9361397499374,52.98603648617941,50.68008568094236,46.5160373397113,43.42145828636867,37.036633695236205,29.320126371157322,28.711700880675373,34.05402623204219,37.8769738919207,37.8843913513751,33.86112688033627,26.393410266985562,17.485317830046554,5.486787077576091,-10.887581426959164,66.0,111.0,63.0
-23.099047315906667,-42.395634711512784,-59.449620004460506,-71.07915519247754,-81.93033399886521,-96.01243734882867,-107.48355773542482,-100.71883099315995,-66.07091723820187,-16.259349039949083,24.718240858769843,45.94537792866564,54.29322999749418,58.31538464573004,57.58458584405398,50.850204664221174,44.339194851187415,43.67244995316662,45.884865125169455,45.032980308783735,40.17747536407299,36.06844045979355,33.89491090180208,27.8087955294744,16.255322273807526,4.430575071213416,-5.789882543587522,-16.840405266314495,-29.975774133278293,-44.45650323470008,-57.93425554952228,-68.0526712089408,-78.3914582972168,-93.26158006174833,-102.42356998127593,-85.9219437937436,-41.69816775873877,7.60164171738125,38.651779828602585,49.03375406165074,50.951152541961775,52.33019059040501,50.38550890571684,43.22508165800178,37.505070303667225,38.20783637904715,41.591505405182055,42.804381831371174,40.40355069164419,36.182629890492315,32.11093385408952,26.137697654718718,16.044861266217364,5.283016478899915,-4.130918665376659,-16.268998934544978,-31.93192218673247,-45.43196117913775,-56.06438894265741,-70.91668554128312,-89.89916525258324,-96.2805045228333,-72.92153181203963,-26.28509714199246,18.447933101653057,42.81656068602955,48.589383059807304,48.142719791269045,47.16789977361867,42.15473516136495,32.67419800512703,26.135966511980293,26.86913642177394,30.41405104912946,31.880672734690492,30.11531710962916,24.441093340236367,15.917361794113596,7.265521090583748,-2.5652494369172163,-15.106195712367974,-29.27629205194207,-43.47742632025998,-55.55037730994673,-66.33478979342699,-80.70691807619298,-95.49042218522958,-95.09726581332411,-66.94993478655297,-19.01167909123013,24.94262877888128,49.92807911348669,59.575975456085324,63.5277549082814,64.76017296349599,60.513645673845424,52.17562186850704,45.30123143901227,40.93073722870254,38.17848769456715,36.91753381871039,35.032033259310715,29.444112935959712,19.91182055221409,9.603597722345473,-0.5057638977068323,-13.535676435745174,-30.442669927121123,-47.105609219623545,-60.59538988582544,-73.3387790880102,-89.9866784282225,-107.72396937241528,-110.78423582939894,-85.0630499640237,-37.85800899643858,8.581309015355988,39.855366140700646,56.068435068929986,63.48412478822055,66.17923355981527,63.65105301102723,56.01717246289846,50.20355457226106,49.73299157291374,48.62222537474809,44.10918319560086,39.79706861496924,36.600091988070766,31.100722560306604,21.86870532144082,11.775340154195836,1.4809767134111966,-12.9194123751622,-31.848692478723304,-48.57046813692447,-58.868451991838775,-69.12854471473715,-87.92173053004882,-110.31591255385105,-116.67853043925922,-90.32228325914177,-39.75490589536924,7.371877069643221,34.25387942448714,46.085408986729725,53.8156323317852,59.09635521373397,57.365159504793546,50.8214449719507,45.73068054825605,44.41041339554583,46.08202987374949,45.70725139539393,39.876911427101476,33.58890933589752,30.083405588139108,24.314895140933796,13.365068869694,0.6143169340296307,-12.32338639029846,-26.97781007154677,-41.94847105457664,-53.6227317108963,-63.83288173751172,-79.26127429221411,-98.26690710638599,-104.22020264899403,-81.57692891345617,-37.32662411639511,6.356418803025859,35.45426427426247,49.790599412989465,52.94116682558598,49.36731122366152,45.6429165561198,42.074218980587695,34.545867204259864,28.197566918573223,30.000372489582862,35.533125586325944,38.26525890880021,37.159553811339784,31.954352458279807,23.950175056281577,14.48234598684061,1.1213693658797177,-15.985447163540924,-32.44674960757031,-45.07447364884615,-54.85035294166228,-65.76474779387101,-80.53241276880284,-93.61267765205395,-88.52629433378544,-54.047951638502376,-4.086009881124666,35.884368627984266,54.61814723685706,58.202433044825696,57.50558477106404,55.28789251487272,47.22861913183608,36.542630968727316,32.80609014037406,37.13020383868973,40.98576234000537,37.91042712697251,31.362550320039542,26.624673425370545,21.230897913513267,11.434284634079457,-1.8974659227752895,-16.643972787152038,-32.068729219421925,-47.63403621012291,-60.423962924446656,-69.72531684311316,-80.5078037002641,-96.99984216011987,-107.59762607299129,-89.98888181824691,-44.27060234379784,3.6786764387896005,34.277191610171535,48.335896082295605,54.99978101338386,59.625370416612114,60.07951436315331,53.845842692055996,46.43438198201801,43.74788160360722,43.77093061256816,41.596612335791384,36.27051045965636,31.499919576270248,29.366485921450845,25.72460182498518,16.683355003329783,5.328926654060648,-5.372599036215745,-20.132579165185934,-39.746297265411776,-55.971400641145955,-65.47268951591123,-76.84927538306538,-96.57300349249839,-112.22884101207003,-101.89971264702132,-62.131269469177454,66.0,111.0,63.0
-60.87290822769499,-12.012801552127646,27.882217784439263,45.88134497001126,48.61291584617932,47.97902621829774,46.32440810098312,39.64261641038298,30.112240402930997,25.67575451599068,27.897558561040086,31.149545283440265,31.72141991055044,28.902473682950575,22.127355665509103,13.390081871017632,4.670182530360734,-5.929930799689553,-19.098209507749612,-33.46508087681876,-47.260896527512294,-58.59402342132411,-69.98285864400765,-85.46293455908805,-97.73777850591114,-89.93671173549669,-54.19002660945548,-4.872790710408436,34.24397608957652,53.829467924766284,60.99218563605963,64.25625717673579,64.18724463105785,58.26950310836885,49.87573154464991,43.85023223657055,39.96160638946064,37.707521024852625,36.58135859869282,33.8980809331021,26.984389855259582,16.87352976240604,6.75780915231281,-3.8226137594532044,-18.137240168278375,-35.50318014189322,-51.32156807059372,-64.12918147047552,-77.6292617879141,-95.48717644696455,-110.98916350906264,-106.47273109541482,-72.72282608696003,-23.425310558527173,19.396337254456853,45.83566390978944,58.84862484676179,64.69203017278682,66.07991158114287,61.778596493628456,53.7820721333163,49.67893428894596,49.777472176574044,47.55284456775118,42.689511161250614,38.86809890763495,35.410111598684125,28.734970195428488,18.90382133276497,8.948867125631917,-2.0853362097734287,-18.129431530689196,-37.257894700192736,-52.12344175532413,-61.34853385931819,-73.54880632227609,-94.7017978221832,-114.81729704403102,-112.63979560557281,-77.0959961142298,-24.59970435074898,17.325745275710624,38.657574571436456,48.437987740752995,55.79785279048746,59.417322889274054,55.65226196340791,49.0247367705814,44.935111390766934,44.72605182124858,46.472802596286314,44.49841708245682,37.79138775919559,32.41025870340316,28.92580307726876,21.599627940652844,9.694451364932851,-3.045857960156885,-16.346507086673206,-31.45112229898901,-45.73721186983206,-56.438257402571104,-67.53628450441293,-84.88159619854181,-102.27439323967931,-100.81522392322061,-70.09756969930382,-23.72572821715848,16.464751525190408,40.938615721887366,51.71184962220114,52.30502999660677,48.09289337304157,44.831589522438456,40.30728123901301,32.1338703024517,27.860612746350554,31.60817685564787,36.725406690245705,38.341081086852185,36.07844287265112,29.80597227995679,21.427799588814832,11.127737239936513,-3.5906719062962584,-21.01725756469018,-36.526974596494725,-48.04750734962637,-57.69241903564625,-69.65668856404814,-85.05108638312758,-94.84964133933633,-81.48101296131034,-40.026428061783605,9.392448496849202,43.44290713742896,56.701552676388054,58.07917793535718,57.20290368536942,53.65627364618555,43.97488080977655,34.44785347686374,33.50212185588582,38.733251682680844,40.839045442346645,36.0424040784462,29.768998351837165,25.37680163979242,18.886833374272435,7.841117308311452,-6.082126727638858,-21.02110040269717,-36.64450630865104,-51.74937440837769,-63.349604758033095,-72.36796167620837,-84.78620968366013,-101.69902643752548,-106.08948783051437,-78.76416163910272,-29.4023170912266,14.606933317607645,39.64406391388655,50.65639324302714,56.503535504110204,60.40998018624873,58.86774742058596,51.45342173669634,45.11093672493051,43.71774560040056,43.519171504800056,40.275073087398425,34.637874843132835,30.69095017909498,28.740407422538574,23.665938463483872,13.376683468328373,2.2732703434127988,-8.973653823993976,-25.571028178237494,-45.16695099298809,-59.20473928771557,-68.0459557998735,-81.82510948601455,-102.5425485002026,-112.61829939340274,-92.8384877106837,-47.816108218228905,-1.0917757174536853,30.197004162632595,46.53478032973639,56.748854579876394,64.35292762249341,65.78077049578621,59.77998412472576,52.929687078234664,51.04125040509266,51.42610585270308,50.71855401730633,49.70048097009136,46.97437688902272,40.0162373603614,29.38558680541347,17.919177666842707,6.3193237041279335,-7.405706269476356,-21.746618229402696,-33.18202825742184,-43.3542110624082,-55.3385445210094,-66.97896469345805,-77.54835206997683,-92.44448558387029,-109.8730373809544,-112.89215835828885,-86.25910123755037,-37.358705088142536,9.412904627689727,38.252746950540484,51.505316934556134,58.1317247406594,60.67449282516987,57.64074361924204,50.81261607339495,43.81590229235137,39.43400784217108,39.9907766783612,44.98658216418753,48.32955584153397,43.817556365166006,33.291118835525694,23.095224150046466,14.88067627911549,5.989825476192953,-4.884324766603858,-16.08103627260218,-26.760178000835754,-38.12218206703829,-49.6973379744229,-60.54969672968997,-74.26592104732234,-93.01792925897314,-104.65400697552903,-89.37165938893328,-44.598813819641336,6.8669851101026795,41.31883745014826,55.18511075116271,59.03697048341945,59.56170707147105,66.0,111.0,63.0
49.5658448359327,46.23329533772926,41.39635296313417,37.99360765684077,33.92025879931434,26.078562791893773,15.962858841806854,6.06173641835884,-6.11836497886653,-23.643857614796666,-42.26568423831528,-55.12355096101491,-64.0922353668578,-78.83820055731208,-101.48066584806652,-117.39640485530721,-105.59890749053751,-62.3716307491051,-10.470321778895181,25.418789839231597,42.107454638807916,50.67346800809675,57.48888145419034,59.04246392852338,53.70392892014759,47.47167805998312,44.47779065471585,45.243284859969066,46.517493438230915,42.82747529198545,35.86896317375853,31.444590071023534,27.399673147640605,18.46438809539611,5.990295367340975,-6.739516631358656,-20.555922450935103,-35.861645048153555,-49.17081294860473,-59.26273417639564,-71.85274538705113,-90.6102710421464,-104.65082843380499,-94.77655891940064,-57.257298055402906,-10.74270949031969,25.17652157870663,45.28694072342584,52.767969401856305,51.252154792389874,46.970588655272984,43.92190626238173,38.13898285230286,30.078221146625896,28.28917342177948,33.30144061057757,37.589869414014366,38.10337880558364,34.639224435525364,27.494748291350852,18.77544519511559,7.364302151870225,-8.55077974692903,-25.867600691497167,-40.24484949852061,-50.84771288775986,-60.744400084554,-73.90583201328703,-89.18066277792764,-94.06718922112282,-71.88770120107462,-25.325010327499534,21.44521343517825,49.17105539332198,57.78526288524451,57.8540715976773,56.70472280875647,51.42438298897048,40.71469552646735,33.15977284343649,34.764074635081684,40.03297781292522,40.03894401253576,34.071301684984405,28.398258341752303,23.93268667501618,16.130280698273012,4.009877452423229,-10.337750191346592,-25.46083403835336,-41.19941600497553,-55.539082108499684,-66.01951208448484,-75.31494432737122,-89.58746034010912,-105.3928505847776,-101.69323420162479,-65.5686336280129,-15.100717375376894,23.812628076609286,43.82720402932549,52.584007301384084,57.903608459683404,60.71394930245688,57.10019574937275,49.17752977747556,44.264244531266755,43.78515072378483,42.97698899490604,38.72438268990317,33.17562371120234,30.096575309422605,27.82811451671024,21.113767438832166,10.033806436831007,-0.7339540403463097,-13.089278311555503,-31.31622662888046,-50.04908277963881,-61.922409566619876,-71.08793161002576,-87.53798586771879,-107.64409217789935,-110.32830204785039,-81.5286096421887,-33.41742650839507,9.822628024938256,36.084155675938206,49.78008117223941,59.29558800760996,65.59661937951498,64.64428306490555,57.49697313981998,51.84545049314621,51.164527160625056,51.3315200591115,50.43657190292324,49.23436998433314,45.44078051447122,37.21505405614353,26.040070912843163,14.667379607414823,2.614696918440061,-11.680001954660774,-25.401487030402862,-36.04759046491567,-46.63167345804298,-58.9000819011747,-69.96700179972795,-81.18896541253528,-97.74138610393385,-113.1585882339868,-108.44257826924185,-73.44378964771659,-22.576393955901292,19.78279082547649,43.25944276140275,53.82073795327113,59.36281371819246,60.375448284183015,55.89187066796992,48.66877062196126,42.171101184107684,39.01255676192293,41.15002279827089,46.483684677893265,47.93600825168259,41.099108159711115,30.109699721355717,20.602782470369743,12.506956149834917,3.0125264282275976,-8.1768020522389,-19.179493865597152,-29.935677349444735,-41.52759238347713,-52.85504534825257,-63.959319499532135,-79.37969817199243,-98.02781449558879,-103.66092145481358,-78.81137382629166,-29.113838855265698,19.164160110833738,47.07122437357082,56.84016798837352,59.50281704995705,58.91995703644531,52.70514142190797,42.364365491305776,33.489651531490054,30.291700516874712,32.781133845745366,36.203631788265646,34.49551242012434,28.7277297421311,24.51488944592434,20.67460641899992,11.55715174193945,-0.29470048836183743,-10.49674561672349,-21.46344804540501,-34.669145116346975,-47.353212154077696,-57.86441435738274,-70.10490348197003,-88.63594620896208,-104.61446831981968,-95.58129367338155,-53.04745195504745,0.555070847955471,39.515104047258,58.42617206236249,62.95488384048108,58.364093526123035,50.458837247092006,43.84571287268751,38.64847611492557,34.18239402996072,32.440528393166275,33.240323599358604,34.3911059415855,35.161347222495195,33.519422188085095,25.984162262444457,13.657736647951332,2.4792952746974293,-7.305204715888268,-21.66437909900042,-40.263891038145765,-55.680645357075534,-65.75640525755381,-77.5633574963345,-96.01738794863081,-108.37486828920701,-93.28197809636781,-49.584663483961315,-0.26725331932866725,36.074261072069326,57.20813267342331,67.04498904277183,68.016306683032,62.660294761746115,55.5178058914759,48.361195471271294,40.898203106124505,35.56626610698911,35.2565711807599,37.44709862198059,36.87358492682569,66.0,111.0,63.0
-13.635655281941494,-30.445725967000925,-43.62059394867751,-53.58102045368926,-64.09828578394313,-78.41491580241055,-92.49391723545668,-90.87692952329432,-60.088495665779185,-10.654678357412095,31.760045560215193,53.23822102304333,58.17540621469173,57.61822797037082,55.846945786380246,48.64964666747473,37.74126993470658,32.728103528407104,36.35681529241047,40.82780812457372,38.68098958613789,32.175457428208,27.174083200734387,22.17194198143279,12.993884498015085,-0.0017578660467362367,-14.643470413805993,-29.969623856702356,-45.64703056933422,-58.96570524345253,-68.55664986912932,-78.73699862035139,-94.670680557688,-107.40909509417757,-94.33156428119449,-51.13057338404394,-1.9141599999425734,31.335490741196786,47.08127309469321,54.27196663709924,59.14031997107025,60.42684149075712,54.92842745272608,47.20431886404728,43.83496315600098,43.80923244893217,42.10737353386405,37.05008646104368,31.963831335074236,29.60209537548546,26.500546391108035,18.151001348543712,6.780817103896485,-3.8488964793791856,-17.78156825977568,-37.122868244888025,-54.26336759771058,-64.36114769807145,-74.83987742153332,-93.70031219949706,-111.24146444530687,-105.20383959918026,-68.52233123929975,-19.52498134215042,19.1990676643154,40.897344250056065,52.73963484890247,61.61368822091284,66.19354843723963,62.93267409532344,55.37417549717884,51.243388772919616,51.32945454530096,51.12332534902805,50.163554417527706,48.5449284646296,43.512603434684884,34.15436280391164,22.70800875630913,11.370471119109906,-1.3190720805071643,-15.905014864359622,-28.74828696660247,-38.92040080960868,-50.095922669478064,-62.32406547547909,-72.92225107879445,-85.366782266562,-103.04775028612333,-114.70237686316726,-101.27320847969152,-59.23197115452498,-8.619062618744708,28.45704412932793,47.18030900235599,55.783381013855006,60.222263840342265,59.58271809339761,53.913962635663516,46.593734678558285,40.80345692879653,39.061540838429295,42.61758832042491,47.639029982676696,46.779864047617934,38.025849587570164,27.099877235434473,18.24712370610616,9.99447254951367,-0.12450687940982197,-11.43663221227925,-22.245117687298805,-33.20490164947293,-44.90525888996098,-55.948374302506664,-67.76367286303011,-84.88538363399711,-101.97258431747434,-99.94679497335771,-66.0159487336128,-13.811880466698618,29.597851078257257,51.251663462700044,57.96561768965392,59.74902892370058,57.76752279072445,49.91913218084653,39.39940172051395,31.895173196235998,30.54386125267488,33.99381679361903,36.37146223631912,32.98296833512024,27.20125763195151,23.664978060917928,18.667156930275453,8.110755387832363,-3.4087050058129584,-13.414582730872882,-25.13033998611265,-38.530807745795045,-50.56435164939181,-60.917336358111946,-74.84352286111857,-94.39048227655253,-105.53162602236576,-86.22543725991764,-37.281014267087244,13.957275478043154,46.83309472613118,60.95928603497871,62.33435277742904,56.148547209489685,48.32612811956127,42.27592984987359,37.22508637119943,33.31871541517904,32.522378484059125,33.58997832074779,34.68441969103452,35.100678016733546,32.04206719599654,22.671762855882932,10.103020133988164,-0.2462377159084742,-10.787121736501582,-26.891144451507564,-45.33816114878858,-58.96177680480284,-68.56555696439126,-82.38006345608866,-101.23299074253545,-107.48664538775665,-82.83645431468368,-34.76248106083876,11.912694497723447,43.58493733221501,61.05490190977118,68.17410060901065,66.92419034273831,60.61593330728013,53.47383633734001,46.20209179801436,38.95480998393058,34.94923371689687,35.88001875304126,37.74583704007598,35.75847460029911,28.753175996224794,18.89540955513153,7.884104604846871,-5.19382341758407,-20.46821894834336,-37.41419661167913,-55.344588961147764,-71.52801739790881,-85.9898398145065,-103.13668726414458,-117.92943188191146,-110.81314209867872,-71.57831507356764,-17.895115105756673,24.177819058092915,45.780418461548905,55.14918501725488,62.68811920783655,67.8921184366965,65.27160171596762,56.277634458013914,47.13675582378596,42.317900071438764,43.2617494346355,47.123409298976995,48.69017817927424,45.7252431495817,38.081272204841476,25.39504127846997,11.016849298489406,0.5156377403150034,-7.107286931107546,-20.402733472036367,-41.09616251129196,-60.917829107857784,-75.82277913241005,-90.12452039537534,-107.10138332523894,-120.91522489819688,-115.62347046441853,-80.8044314808883,-28.482562481940185,17.90886263806297,46.9486356280352,62.65595718974261,69.8396631491695,68.86012808267094,60.39490908357769,50.751877103749095,48.47017823042121,52.882426240648435,56.0084397333839,54.039974468899985,49.33127650889436,44.87717624545552,40.04919391900718,32.087094010216155,21.42127564776292,9.566368254808854,-4.641253576093681,-21.513862142443536,-38.6702255752818,66.0,111.0,63.0
-54.46517872066643,-6.614864307540454,27.055172956848853,44.895653720566244,55.51815145713176,63.59193725055991,66.0772843457098,60.82471205325018,53.59710482607425,51.03867836795347,51.42408314239845,50.85107687905707,49.86496821906341,47.55170719907402,41.201666852523225,30.914990776058193,19.42097813013106,7.954050045418693,-5.4527230453784075,-19.960852992842618,-31.82796783444773,-41.912825861789095,-53.67667094992364,-65.55461788218723,-76.01927117580274,-90.10112506042275,-107.917632577565,-114.04022599646768,-91.52801106105545,-44.29781782339596,4.072879140010435,35.505529453718204,50.28310566788109,57.45666472052791,60.64300564266579,58.342544293881105,51.80439663548127,44.65091798234551,39.775847454728655,39.59168175638618,44.23903142290042,48.26294532854636,44.89945912174371,34.78971261986559,24.308274956573786,15.946791349144135,7.298984250866977,-3.3691001936666893,-14.632095448878516,-25.323540261762716,-36.55758340955605,-48.20809964100468,-59.06686878594009,-72.08481755979666,-90.50105893982266,-104.2860299793527,-93.36078453492534,-51.596529707463326,0.6424140877236282,38.064797065687685,54.172489742607354,58.754035709279314,59.705950805940574,56.07464050516417,46.89569267208935,36.70538892599986,30.84378387419712,31.23088274638562,35.11446556370991,35.98919769306879,31.258150340944464,25.93676575531797,22.70014021857071,16.109933671768438,4.610508612330698,-6.34348338758379,-16.512227104078594,-28.95871828526815,-42.260544956385246,-53.58634214186945,-64.28319787929215,-80.17277571108445,-99.52588807440723,-103.73175802763058,-74.17935316840043,-21.39501593800952,25.66669731497555,52.559404648799344,62.4420331111933,61.069387081056185,53.8146850807157,46.37673551876396,40.77937084135422,35.875211414994126,32.7490853033433,32.75978363123743,33.92805730755557,34.94148096877526,34.75565796684634,29.989944393308594,19.066710612875113,6.802579052558391,-2.9600840171416074,-14.808717991558511,-32.34693032718528,-49.94335328643203,-61.84763259151722,-71.77185096955778,-87.76906296267039,-105.41308266372941,-103.81386529317743,-70.30052462210692,-20.164486764476553,22.738468941909787,49.89776998427772,64.059183462176,68.59150933986004,65.39679485595643,58.535370573222544,51.42370378570413,44.014617831151895,37.2919188330898,34.793155824676276,36.58320958376691,37.69603258634958,34.19947168752063,26.068053824782027,15.84359008531068,4.365608560559389,-9.419707084521702,-25.193506947625384,-42.58479414395394,-60.32082998945591,-75.70267123852466,-90.55722941970178,-108.35289655990607,-119.0377834156283,-102.49635343003186,-56.25958324093476,-3.7292232488546535,32.37534088228788,49.17377082091925,57.28841860323485,64.72532079420299,68.04214216619737,63.07050070986042,53.39294735929612,45.178638240642,42.028267340458214,44.317418917223456,47.99322098752408,48.30041987954414,44.03041496793974,34.88847403605015,21.145285114222045,7.4264664516998975,-1.6591068011905767,-10.026935321396822,-25.89997907756602,-47.290499848660595,-65.63429640886568,-79.76386120814469,-94.79063622365935,-111.98621379095097,-122.13046383776225,-108.51858429842241,-66.4406895848475,-13.59088206657675,28.08549043974369,52.54280802357615,65.53925327601601,70.42039209310545,67.04366416147991,57.289050070692774,49.12679060004696,49.37842166124981,54.23681729412018,55.93201754782513,52.79514388503268,47.954283198502445,43.65832530735955,38.13257225639132,29.179422491198913,18.126132017717914,5.778754216623322,-9.315891427904152,-26.57363117242575,-43.26408121902543,-56.853632394470395,-67.32306782595052,-79.24085313902422,-97.16420049789475,-117.02594121404888,-123.06670345874028,-99.33749912377115,-50.58658092414861,-0.7636664999994828,32.47818285472588,48.914776557087954,56.78119459380081,60.5346761578472,58.783611580318755,52.91491257031024,46.408081649529905,42.922148422904854,46.283369463822766,51.70130634877127,50.8378043418151,44.5170922824187,38.6824774690787,33.104770815329964,22.536780502803563,7.657471339802173,-4.705382251442181,-14.52948576391109,-27.447213479447854,-43.19656876953533,-57.95306786664654,-70.7517168713973,-85.7503248035713,-102.86585791417869,-107.03917029445543,-81.7697539596935,-32.87192581541125,15.19345548827033,46.10157523037249,60.999413048082815,66.65049377738342,65.28272010686872,57.44976493718551,47.16318706811539,38.40340954874154,33.72789283873394,35.136560072270804,38.049125301333675,35.73202196888181,28.59655918954436,21.13236713736962,13.772247537758897,5.129950029716756,-5.372547312199306,-18.750151544312292,-34.95922470338148,-51.63134723849617,-65.76652393486079,-79.70490702448714,-98.06590395253625,-114.53447974919027,-109.88054739886097,-72.51967769956273,66.0,111.0,63.0
59.27543416612088,53.87125072882473,43.78528774942347,34.397959405223595,30.342722647415766,32.24396760988141,35.955240225500255,35.074040222821075,29.50193104151495,24.92280953840067,21.41873237704423,13.076343071270985,1.2110825681969895,-9.185479222943254,-19.845164918977783,-32.86603798824015,-45.79743785647898,-56.51064502939152,-68.13246030337652,-85.92437389700471,-103.41927860188098,-98.87773007518825,-60.05229840648365,-6.11744817997349,35.561585309027976,56.8693283502971,62.988150242637474,59.30379890190147,51.49484553764748,44.608478199353605,39.31617617234825,34.66880545715588,32.47600252579011,33.08050142084793,34.24892131549679,35.1218121816183,34.01887749957562,27.368140962073845,15.35436701309095,3.7866555705630454,-5.856185273175304,-19.385385180507697,-37.80760753283346,-53.9984586608855,-64.52662305489858,-75.5758184375257,-93.43364595919377,-107.9329792791048,-97.2496317930892,-56.320576691402685,-6.30398462875375,32.1783244123489,55.12917052883381,66.27707950094201,68.33949693735991,63.568409505179424,56.46490535362716,49.3393289759038,41.85799193743459,36.00913721539336,35.03770974153369,37.21644699127222,37.23504850194388,32.23224816613536,23.22408612617846,12.7046151607152,0.6366393491781327,-13.80672279562902,-30.05852151472472,-47.8036178038711,-65.06293978791781,-79.80462427303453,-95.47656004157332,-113.06966237192859,-117.74049556189735,-91.49345472694026,-40.43308254161902,8.911713257120486,38.87005547511045,51.86114760715378,59.471317968221214,66.41604672761422,67.43536862541909,60.461905390107304,50.65377191065125,43.6589452751167,42.228649950462206,45.493732574314265,48.550463421714305,47.52555023872719,41.932803292573716,31.272528863706025,16.89298616644006,4.289373948728916,-3.7294632176165163,-13.663318033377218,-31.911092813435026,-53.16307660142416,-69.95176595995112,-83.80969713058327,-99.70946189927305,-116.35176624155146,-121.27770732764269,-98.86124086678065,-51.149812777481536,0.23943647984556674,36.73870652966861,57.214483501126864,67.76900563437569,70.30129144380925,64.64205720120839,54.31869027126261,48.292761117819175,50.69860139904437,55.27422302208684,55.41935236091466,51.414720080079015,46.6569530082024,42.34035384933685,35.89639299370804,26.103230155617062,14.746027318717525,1.7412486641376337,-14.185402543618448,-31.58459205688257,-47.58446568835463,-60.082133575084434,-70.33659095936655,-83.75595899574192,-103.20540069161792,-121.07899996325291,-119.58618039114715,-86.93614067797675,-35.18924322739993,10.844035761123969,38.63512630631669,51.71618244332629,58.304380133724386,60.64365805142729,57.332594733046236,50.98336198569539,44.85652757818886,43.188088149545585,48.082435989116554,52.27865611257574,49.289184854870854,42.617900362429715,37.267693688187066,30.73199017540294,18.39172921344433,3.607383245722962,-7.539805750530073,-17.802180511699333,-31.880078953020092,-47.6987229199452,-61.74803121347116,-74.63398725806306,-90.86212784112506,-106.34295996837247,-103.05490855838093,-69.12106852945067,-17.822944460889016,26.105523948108814,51.72419677878512,63.37397127562257,66.99240974967832,63.57254842355761,54.50080658373835,44.37197575631815,36.48848644968518,33.55836109049548,36.185971464369445,38.069095786310896,33.950504658612665,26.35343803987603,19.077833298212308,11.430610688525832,2.3279215084677496,-8.908314122693884,-23.19719001426385,-39.89578299388291,-56.01377049709885,-69.54681831422987,-84.52346548904394,-103.72342233169842,-116.26392184920046,-102.31778787313306,-57.14020866242684,-1.915607323752336,38.1536140667366,57.30258405144234,65.22175951103833,68.74842424340738,68.29257172542314,63.6723884172642,57.277950489017556,53.33850472501628,52.26502463700269,50.840182040406226,47.794610000997835,43.81204336703573,39.132816356408455,31.748393815305697,18.302465800596202,2.056638399720256,-10.1303430176856,-20.107917134016354,-36.561614355313516,-59.26239148186347,-77.55488017604051,-89.06479210631741,-105.36481263717108,-129.52108487334803,-139.25983417734224,-110.81077501170893,-53.078867959192664,3.5408381134080327,40.76639528075229,60.118493131017075,69.08423015991075,70.11270161583792,64.10110564853657,56.533441828939104,52.69756014721169,52.44260487198432,53.62430213024009,55.47035152688072,56.44402571839598,53.745017644679386,46.132084145012556,35.609133856983235,26.639829140315964,19.97113160334289,10.168893292359938,-5.15290572456453,-22.07380740095996,-35.721067338316736,-46.81937717343631,-60.7828951632816,-77.82664802699198,-95.75289048669475,-115.47593818797682,-131.47784243310807,-124.71396743830638,-84.22845550528504,-28.17268844164999,17.613806718599527,47.5270098921572,66.499153948906,74.15742742492549,66.0,111.0,63.0
36.32885851104585,29.917009220000928,20.278574428090547,9.44196362690388,-3.3071059971893773,-18.335217994870685,-35.06348443237721,-52.98982146693864,-69.54370421982351,-83.98924815508624,-100.68791634829189,-116.74670795057733,-113.67250375867657,-78.25993589650227,-24.831267777165593,19.785985401627045,43.886438544694016,54.15322505194326,61.68528718214654,67.57677955506314,66.1043439253517,57.61948174755999,48.17064006727127,42.623899876808224,42.85602430760914,46.64192452371286,48.736786462770944,46.37853099744799,39.40101201089078,27.30846668685557,12.804204937339444,1.6133036923330282,-5.954599298428729,-18.096710722269968,-38.187130623081664,-58.584412416180285,-74.00228432217969,-88.06952684454089,-104.7712375668457,-119.77936859378568,-118.00701415003643,-86.94060126734435,-35.58110915473594,12.686702108513124,44.01001545529336,61.10201976201668,69.34083869217181,69.47546038810256,61.79944019894613,51.743315719547134,48.24869056561506,52.196364819078546,55.88513009227762,54.54230466702159,49.985717172130805,45.4307042269027,40.83131487713617,33.352299933674594,22.916850152089683,11.240111855540004,-2.566219701553486,-19.184870859466322,-36.47511366193141,-51.59146249500177,-63.086553649126145,-73.6311698009647,-88.84662635651209,-109.19597715965132,-123.48520412602515,-113.3178044167105,-72.842966434831,-20.3767048184385,20.817340305161817,43.53295762482063,54.027632590326455,59.50549829356463,60.234607138877614,55.6362486819481,49.05887260394883,43.67960631801713,44.087656510413005,49.81580554340942,52.170596183610876,47.42447239421743,40.89320747259336,35.77369876165869,27.80542599566103,14.015306152600942,-0.05735150835802876,-10.286136012554053,-21.457532174809938,-36.461272311928155,-52.02634618330826,-65.40385316008488,-78.85600746021213,-96.02999716502396,-108.2145299699799,-96.31505246741506,-54.936843805559214,-3.506421941212983,35.377963696085715,56.179337857405436,65.12351355040391,66.74006571142198,61.35924882521239,51.482052227524676,41.77005981793382,34.990371382092555,33.91680758260388,37.163713740906736,37.522428000634854,31.871612342790606,24.180241294457183,16.986211138796357,8.964801820839398,-0.6470464801739444,-12.71046360539947,-27.862931712358755,-44.78378865228478,-60.126278530061505,-73.44919991254507,-89.79827223138261,-108.90546821097905,-115.67392365274303,-91.94371348593603,-40.897413579410966,11.925798241885655,45.530680045712884,60.2748796088317,66.60688479128939,69.06007699152308,67.34703051208888,61.81251955837335,55.75499784133724,52.86052772468625,52.00995019562127,50.10886097385123,46.70586198580737,42.56049937499755,37.450827061532976,28.52939262276528,13.537980645911045,-2.031013458176936,-12.868393840463671,-23.909228162459144,-42.88335539698887,-65.42859289933706,-81.22146280349708,-92.72289375237052,-112.07006416721002,-135.22919157354815,-135.30895310708775,-95.87277898136794,-35.370814941702896,16.516424993489142,47.82598723377662,63.5517136385673,70.20975477712494,68.94651127283971,61.75698908935574,54.950304148059146,52.36173693921036,52.69756797905748,54.11130226800049,55.96734402141536,56.1445425918769,52.032201392289295,43.209543780182386,32.68236869790016,24.652044400645334,17.712841364159658,6.214655571010532,-10.125694316737851,-26.482105320622995,-38.94802216277883,-50.4047556268451,-65.53365133551513,-82.91415431129633,-101.24628493092824,-121.13285952039564,-132.8026776217553,-116.21613006194598,-68.28854864847952,-13.185714004843977,27.633110384023748,54.0596568483497,69.91696674491612,74.42329259448405,71.95353668446509,68.73064902186132,66.08171192253447,62.853581535523865,59.194150804175244,56.09469984720403,55.940470446363754,57.31932306820905,52.28950766440229,38.41342361651386,24.93698989797179,16.316031586075333,5.101495687028686,-11.580643487311878,-27.530403653104543,-40.724508198911586,-54.71781664902882,-70.49722443782281,-86.37445217135446,-103.1061901778282,-121.90217029520802,-132.67390800110812,-115.91561582118398,-68.47051823673576,-12.139484883760698,31.72663572266683,57.778266489439396,69.48955718386705,71.68553636907379,67.02693819388529,58.316684854047125,50.43734673829623,45.964901029161965,44.941213520866405,46.942640745197075,48.96585252622218,46.1285669849515,37.905120447973175,28.67718915262761,20.190661306839154,10.848435316501318,0.38432878969876716,-11.100587149578576,-24.70771116062404,-41.34975366171107,-58.267897665698484,-72.56131211875906,-88.04226003140064,-107.10619706367737,-115.16596981234105,-92.71362061139403,-42.117011566315156,13.32319054162068,52.24018964251087,69.17879829425168,71.88060314667959,68.41049731967105,61.297174587840466,52.42277086987479,43.30241921876472,36.7909218174261,37.944622125071746,66.0,111.0,63.0
-41.177040534436344,-55.267721866962766,-65.9832754568839,-77.35142294532412,-94.44867512424939,-114.7437124370845,-123.76543790851608,-104.32799727344977,-57.716249961516716,-6.637554641089543,29.158049077514985,47.40690553146175,55.98125934062653,60.31489456558836,59.3391042930228,53.79302954217627,47.20937382289892,43.020326223739254,45.507082909951585,51.22297051135807,51.39459026350197,45.43192064473415,39.34921185041134,34.03428765979961,24.31610991341056,9.62642791832072,-3.3190204079453105,-13.134841645108562,-25.48381793160383,-41.081450243098594,-56.13531023169082,-69.04021458073511,-83.48545353520849,-100.87362286321763,-107.97499808249474,-86.91692340768824,-39.898816113102654,9.625736450486437,43.059755341344,59.66751765377188,66.29881777710841,65.88072718856662,58.750086993123176,48.50167383965219,39.40138155137691,33.99773164442358,34.68845826245703,37.86580233165277,36.41399352799018,29.640768310463887,22.082460398505685,14.811362382956856,6.371203424904627,-3.827819529205107,-16.783314628292814,-32.69503033970291,-49.521570448542704,-64.01811176116132,-77.6389661250968,-95.41932677280242,-113.09352840315309,-112.3772017015476,-79.11432811734016,-24.548961220922354,23.997379613205723,51.26349773851899,62.60575594282307,67.69912940654315,69.0168734501373,66.05993455957345,59.90130339443304,54.537418225775696,52.56834839482241,51.64136495297694,49.24544915318034,45.561674645170555,41.247089796366446,35.45924264174376,24.730386676872126,8.726562285380957,-5.640276658879802,-15.593717282131992,-28.47570499249157,-49.555587495854496,-70.92679513283609,-84.44000708283063,-97.15821995281325,-119.28665686101284,-138.93538811843186,-127.77921917757125,-79.10400284783401,-18.528503300129792,27.65317042246594,53.58583376184944,66.27578544746875,70.66588852955915,67.24410159867294,59.46712094728216,53.760633732969296,52.269954175554844,53.027265718850636,54.652142998576174,56.3271727781331,55.47229410698503,49.90188059216923,40.12946174942694,30.008538079768996,22.79499918537072,15.023783154553351,1.8228303494421427,-15.09816183410341,-30.50965358873406,-42.072123783842855,-54.35747462257452,-70.46479604546808,-88.05076947541549,-106.94656284848764,-126.20399434746776,-131.64438441575626,-104.87715577612096,-51.78246360496681,0.4270582862304664,36.44252215030473,59.76412290534114,72.33095312713998,74.09561757117142,70.93494681652165,67.96612051168263,65.22345445815701,61.820368466975395,58.14879104713334,55.66625460360054,56.45704059294727,56.88486136406859,48.92177085822115,34.01075902657736,22.145871300995367,13.713542335872441,0.6374130960532529,-16.529145855640408,-31.49213700002522,-44.55434104255398,-59.1558655755686,-75.12843677871957,-90.9855640102332,-108.46331107361206,-126.68445610273278,-131.35886487470387,-104.71665221052152,-51.90336304052181,2.3406583986321423,41.001193187172724,62.413036859330326,70.92765062151905,70.97532081080556,64.71818857293898,55.76596503935678,48.775010321545196,45.320893742785906,45.26701347665931,47.75069131324464,48.80305358090179,44.14970548210373,35.15671057530544,26.208628582020744,17.629788670891315,7.918546773131325,-2.8052175160461865,-14.738192068726336,-29.242301412170228,-46.41387368219937,-62.6445717997937,-76.60521564194906,-93.46000586822541,-111.60077383944066,-112.26756129985532,-80.17340548533163,-25.424103139778065,26.842149087932256,59.20529053726662,70.95683657756484,71.3266512371802,66.66952598933605,58.816844944627775,49.771275653439645,40.893074110406666,36.268745581041614,39.369788706449214,42.48635958713918,37.981788726881184,30.18460388218968,24.603421660159547,17.816566194400608,5.3949269686562324,-10.924584534585069,-27.512748124574944,-42.729012005925334,-56.83894201522705,-71.62087199526485,-89.26284396395629,-108.81268722237294,-121.24169817916459,-110.68839082149758,-70.76264882838169,-16.232075472516026,32.156526654766424,62.90788688383037,74.99613552471563,74.47970267556411,68.49108865228692,62.26512586482909,56.31518219023561,49.25799975240659,44.07133924778057,44.09665429503864,45.675162402560765,42.94038404920189,34.897324809132186,23.91418525121086,13.309871644758049,2.987161698843287,-11.100510687452473,-27.998116620261666,-43.936430532921364,-57.15735927521213,-69.1628011467619,-87.36342111786068,-114.40407768774482,-133.90051198363182,-121.88218347852015,-74.30990348716288,-13.500095079456214,34.17181268777512,59.37170804027658,69.81238333117217,73.7310883200195,72.43345198148756,65.53771901206818,55.64392131783192,49.3487301400834,50.24570469023073,54.69775848977401,56.2449187461108,52.938660064895416,47.78092177827045,40.75310918668108,30.138089106732135,17.337646021422593,2.366927372459589,-14.602414505085534,66.0,111.0,63.0
-64.3837878325651,-8.802736855465676,34.134150751647375,55.647796310826564,64.47918943172728,68.49074030666263,68.60638973481738,64.47937744337501,58.06565232473255,53.645865241658626,52.36028355375355,51.12806068970029,48.272912731287335,44.37357711383576,39.83429074911419,33.038769245249654,20.42138912548831,4.086565548538281,-8.797038215765221,-18.57470240809644,-33.84119604923112,-56.25560799001153,-75.64206269721659,-87.55549004504994,-102.55131394002785,-126.44280401858985,-139.899505223552,-116.86160182952071,-61.35742930713481,-3.0456559888770696,37.01046713574371,58.26854582156616,68.34590086537374,70.44121304302223,65.15009901007603,57.38797247103053,52.952911257066205,52.357578531575264,53.42116379361224,55.216375409830995,56.470985546051494,54.3890549684523,47.39583121283515,37.01789864082654,27.635301481789107,20.904166977508876,11.822978691478285,-2.8992712873120783,-19.929628945803366,-34.15366875481229,-45.27233871647836,-58.67971404828148,-75.49222900683648,-93.2870398252236,-112.78525285463124,-130.17603476424924,-127.60551274315294,-91.16798465168227,-35.45861832138935,12.53289310443586,44.23537815785931,64.59031448196346,73.78304845780428,73.36901781364162,69.97414318561746,67.22297148069629,64.29838092232656,60.76158002701199,57.18821973853043,55.555149602849845,56.989797913906415,55.671699752871824,44.895735860839594,29.948512189034634,19.716774450159875,10.639709568874133,-4.2143727169615985,-21.229936827259838,-35.274168361698905,-48.54608008262135,-63.72074916653452,-79.71664153956746,-95.74096045865804,-113.98922465708611,-130.38322859514446,-127.24564945367182,-91.18160232287784,-35.293004985396,15.405214716114463,48.807550917354604,65.9677687452646,71.6849357877353,69.72207665037828,62.17321804907808,53.406544328258825,47.41792543369716,44.95927608231139,45.83160933045735,48.44594014754305,48.11774626386152,41.782330787744534,32.451647743464854,23.782577079595647,14.956128735115124,4.909341784308196,-6.086187824679897,-18.59508923744888,-34.0354424158607,-51.384480702030864,-66.76933422946692,-80.93248068984997,-99.13348070043824,-114.61647328033337,-106.43322331722979,-65.636390024759,-9.004964607685112,38.580261577600666,64.37831965018951,71.81715227143559,70.38959778567542,64.64886002227749,56.25096117844761,47.11066027570474,38.82520369628092,36.49587670604672,40.7947360933709,41.984440129273274,35.68841448440345,28.33852483166205,23.058542255092227,14.835834116609597,0.9005475787478547,-15.80686576036523,-32.06777564446781,-46.869948527101776,-60.92872371595251,-76.3667950704373,-94.92266166934569,-113.78771925532565,-121.20893632416923,-101.87890339575195,-55.499837300911466,-0.8967478505891453,43.0802212247844,68.13337561796175,75.80477631151768,73.02840223707341,66.58295287197492,60.61797652443369,54.35673843844148,47.337331704779736,43.557654866490104,44.7057394937253,45.47497755449213,41.09131353970473,31.88011911906124,20.694146268027744,10.473995691232957,-0.5932237374035794,-15.888448760558225,-32.81183601864557,-48.06990463031746,-60.51840446233227,-73.40473394526538,-94.60080754689555,-121.96886130086332,-134.4208553468556,-111.17648606868289,-56.770122114160515,2.4589566761311925,43.61840531142773,63.4128289344677,71.4501315318943,73.93190710046485,70.9880561985857,62.74019398920726,53.16111469098916,48.908709056675875,51.460438933384374,55.67154147100333,55.68385708875159,51.53222495009067,46.061574464164806,38.03560286710423,26.597361352288928,13.29273016352471,-2.430902857427536,-19.53903651078829,-36.617029025604594,-55.41566782096281,-74.37469603580882,-88.84119024584237,-102.28984156451338,-121.59752962652848,-140.42034345947513,-138.1861245858581,-101.20270649806412,-41.6776530724563,13.237645212672453,48.547101542586795,67.09536231435698,75.73619672479363,76.6301707999935,70.1254144297145,61.36788356026928,58.797772878457515,64.13588315964682,70.47410345745604,71.48654471913945,67.26494742447731,61.176563952517654,54.68329606218934,46.26842097664348,33.70293691950342,17.996335578289468,3.580045086255058,-8.844497694183307,-23.03583137449005,-39.12557741892745,-54.28224013118032,-67.40432783664629,-77.83692586667281,-87.43859199965027,-101.44953637556948,-121.77399522154191,-136.32599103199175,-120.73758851147748,-68.20467117539984,-5.05106979087684,39.30089341438718,59.22104660914438,67.43096636639521,72.01537390488124,69.26078972165553,58.69638520738618,48.75112271150534,46.34347866756408,50.45764677533664,55.25727128917094,56.438540631502484,53.55631939850204,47.10110572502718,36.85647107073131,24.728523185983654,13.527888458729496,1.888632577524013,-14.397515868190988,-32.18817463503835,-44.39956995259161,-54.41303439633977,66.0,111.0,63.0
74.38617872470877,72.42237163946348,69.10321400486355,66.45442279494964,63.31910064697296,59.68807620082072,56.38766283124072,55.75782485319951,57.31163261448546,53.56508060905909,40.48728682547396,26.391645892113583,17.411841959838192,6.984891262936368,-9.252862712878652,-25.614864638493824,-38.99647888511013,-52.727164892951585,-68.35451472291132,-84.27209414101085,-100.72127129653556,-119.4754216821261,-132.43610870622322,-120.16587507867295,-75.90825493192112,-19.229169010066624,26.935521170359536,55.24279420766089,68.57302511890158,71.82143047614707,67.9762800402047,59.53049361146465,51.30679995341213,46.35706447516705,44.88182607144051,46.56977323976241,48.886206633513666,46.879748893044685,39.160564584592706,29.84376825592678,21.338776072432754,12.168650637085111,1.8286495123432047,-9.484561561372416,-22.713318210826177,-39.017327191640305,-56.15566336039893,-70.73998247422367,-85.68840448485955,-104.70575693884567,-115.56483769433827,-97.67658018204627,-49.72689008672699,6.564967499567181,48.38351039603177,67.97739270123253,71.98633288472125,69.10981942747453,62.396783428991306,53.63779004164761,44.481619728517344,37.28130993974287,37.37499401316027,41.910242094103715,40.76554975612277,33.34132589978878,26.73501264238534,21.24279179155578,11.332694442525764,-3.821986251293656,-20.63532999274387,-36.49071462291846,-50.9380792941656,-65.13495677450133,-81.39934897463363,-100.6735869097056,-117.8484062392818,-118.83253451433758,-90.65837595509673,-39.56828434672315,13.475600727301956,52.36042477105574,71.87005884351586,75.74938861051554,71.28149426245393,64.75902538821914,58.94204166148724,52.293714438096735,45.7032137915624,43.51654107849109,45.273592257614965,44.803584502015624,38.82750279459514,28.69091875809457,17.593729034018658,7.587890021838323,-4.587599253858772,-20.806105910209105,-37.47508762507972,-51.94263101395514,-63.86678049640426,-78.40778296610456,-102.50750328039464,-128.29290369976047,-131.76836733777932,-97.70801987112205,-38.86200367936728,16.762863462965797,51.1884461191054,66.51110049317982,72.67131851409874,73.67392084247507,69.07504319555402,59.80282229408638,51.16599519722382,49.08425122961266,52.82093890882486,56.2463008196196,54.7505465584442,50.05906231794645,44.12266406001673,35.00519160339109,22.93143124049714,9.024350861720755,-7.349464565292931,-24.438670322568324,-41.79897481443241,-61.12944813018614,-79.07080321909399,-92.44443467606803,-107.18427186173865,-127.84391042444103,-142.91266598401256,-131.06590640750406,-85.1528618829123,-24.26976040313668,25.570905774341025,55.2720925713098,70.41617033777267,76.80228517148811,75.4152046165755,67.43734565654049,59.70773799343017,59.7300626615831,66.24271334983159,71.43404162006877,70.66057656580396,65.57061078489723,59.36388532304711,52.56215071141953,43.11914441088178,29.308444642085256,13.532726537229353,-0.06460879638595776,-12.639617404954105,-27.62096583828489,-43.68408634230112,-58.311142720609595,-70.69843904091405,-80.49675091919825,-90.80026637580326,-106.85477017203795,-127.57748788069316,-135.87771321411412,-108.68853225907816,-49.45105849712164,10.464025199301886,47.169003503079146,62.16689710761564,69.15803815040428,72.2010988279397,66.73912691530063,55.32735766432541,47.17348931812589,47.086715653806735,52.03732493202496,56.05332585257528,55.981280907081526,52.07238697358855,44.507301773696106,33.393599781356144,21.343638759409053,10.416247045882798,-2.2626233247643506,-19.774841845898763,-36.387444315367354,-47.11876559487806,-58.04878103595918,-73.77065588159205,-91.51386487431908,-109.13948711860996,-119.84904444609549,-104.5314833668666,-54.22904749952942,7.204321069386943,49.35021046236226,67.2476335778694,71.24801118286602,68.52134184899398,61.807750149003176,53.53441575304894,45.63834386166061,40.07704645810364,38.72717632592793,41.179107916602,44.15213082114605,42.692389776031966,34.76962078953358,23.232862957750974,12.732722060111739,1.7835764333621396,-12.752308707087554,-27.926074439837144,-40.87564932130123,-52.48862162525651,-65.25260378701192,-82.62221470404745,-106.32003570956913,-127.02732237284928,-121.69527286237422,-79.01927557354472,-18.524200645459782,30.69186844456963,58.21834249391253,70.05220257442555,71.34567160892877,66.60982597666352,62.08677158193916,58.18844812923593,53.147809879271826,49.852319809287636,50.99391471656512,54.02063790616586,53.028247515735465,45.59956930031123,34.84864052812989,21.885943386517027,5.166591921012241,-11.565433377141945,-25.016240408656788,-39.52722236043183,-57.77371075319643,-74.66059033750885,-88.23927837299459,-106.19074141306508,-128.63055083333393,-133.943481846067,-101.63243849623866,-42.68203842728105,11.641573337855306,66.0,111.0,63.0
38.69327802192228,42.46528399765855,38.958697988551,31.12685616732456,25.272320771519958,19.011989541555895,7.360680537643524,-8.671126478675006,-25.36937422574359,-40.78703576884127,-54.97430873978319,-69.52179241713618,-86.72083396578809,-106.31875336606677,-120.56488358707679,-113.87219767983363,-77.41284427114867,-23.525807932055464,26.592963477471372,59.96202463608101,74.28053649377063,75.00720415848808,69.38251332902028,63.03437546704752,57.17338723678975,50.20160714876494,44.476554624348296,43.85385833473093,45.625666229636,43.63968893590465,36.20719085286308,25.421946448081144,14.6345267429374,4.508915550988751,-8.970736886087145,-25.741581824883824,-41.948130312970335,-55.5616423475566,-67.40350701645318,-84.31963373320798,-110.68745221684875,-132.69369183537444,-125.76727506421528,-82.06340561057797,-21.301499369612788,29.14381478834896,57.114798761346876,68.9003141149729,73.49177753547308,72.93699985512986,66.73747940590357,56.909156814830006,49.772116764781316,49.782983779861254,54.14655790791888,56.35500126860069,53.551294543987915,48.521994022414596,41.8923851773319,31.719711049211927,19.138128360136637,4.5186642318422185,-12.314743927413252,-29.33381040956537,-47.1952523258155,-66.73214237871754,-83.30349099453578,-96.16520275777529,-112.69851166344874,-133.70460576593928,-143.05732389229317,-120.8995496018855,-67.80373589800189,-7.923437814502278,36.1192973230718,60.79292773972354,73.04489737468778,77.22000886035256,73.60185780369056,64.76001955725998,58.76466904364627,61.253638657880806,68.21072624234993,71.84766150304137,69.46676690276392,63.803776922813114,57.52028835142532,50.22080802294114,39.5717965335429,24.732253591254572,9.296870521616562,-3.603257601616974,-16.681514883506495,-32.301713939438386,-48.10361737778229,-62.16021952583461,-73.74771908807772,-83.17892131656427,-94.67816970649727,-112.76849362951481,-132.41608420020262,-132.26081016715213,-93.74216177575632,-30.716449828958915,23.852709383657636,53.1347374138944,64.5337140837679,70.62791893886077,71.60850800909179,63.66946271747099,52.26766524003071,46.32678747501133,48.27027086786621,53.51546226630762,56.481162231751064,55.2089665093746,50.28818626449417,41.59290366903074,29.854858295241527,18.09259447212824,7.170645542025299,-6.899930806609991,-25.07560020138481,-39.991243539184005,-49.87665527041079,-62.150632656704595,-78.83506043262467,-96.69529169385694,-113.60918897106848,-119.01686136758101,-93.13454584746331,-35.98571178180655,22.127464959265232,56.618223327158354,69.38742012519899,70.99082304539911,66.89423194003413,59.47061579003112,51.14763224520083,43.680850149996765,39.2246287321103,39.126026498261226,42.21274148832388,44.359631110958695,41.0376468305994,31.565447875029864,20.00239716555674,9.840784823825633,-2.076429861757582,-17.27565226105972,-31.90895519187904,-44.27741930136355,-55.920831602848445,-69.63685987328712,-88.91452927940462,-113.47852667064322,-129.19471927691242,-112.87768981023237,-61.9510318540555,-2.2080921592579474,40.74284870704982,62.92190749693354,71.37879676900107,70.29008760944897,65.1152227309921,61.032577690875044,56.80602313701986,51.822041581212524,49.7326622398839,51.91579278818166,54.388225999788126,51.46182257267892,42.677874652275406,31.42626934815732,17.4016158225438,0.06012249528396468,-15.718566420311845,-28.82430469831019,-44.53884846387908,-63.071303927101496,-78.70972226635571,-92.59652084506101,-112.80020924404133,-133.20359871039116,-128.68932372262037,-86.02139485293095,-25.256282081600425,23.332982509457697,49.55106930008699,62.57569140619314,71.27585119742723,74.5364829763977,70.16274601495542,61.90066521756404,54.74676274436869,51.585630784272205,52.4411428496814,53.648907187513906,51.14182377290513,43.935197625533206,34.465559327003824,24.903023038411618,15.319415705483614,2.452531882225055,-15.149296311214878,-33.175523926450595,-49.340675079491845,-64.79111766415164,-80.76926725274059,-100.1278614334089,-122.10966428729223,-132.23820869404148,-110.7986478876391,-57.92594828712699,1.4258256146830355,42.529869393206745,60.93307040599338,66.954535613356,70.41425199250756,70.48086442962018,62.78714629842729,52.35027119296842,48.479371590203925,51.66251247254086,53.948690075870246,51.36472412692181,45.934807390531226,38.44687659634435,27.46450029152944,13.186066245133835,-1.3116761624793076,-15.040258906689674,-31.023479185238937,-50.74164265605029,-70.13750307881415,-84.11047097003905,-96.32738906908985,-113.89514405607457,-126.1624356091845,-106.8103559725665,-51.148432776404945,11.098395566186422,50.16027577661658,63.81709497633438,66.84386485361173,69.11854570707136,67.54705089676048,57.56356034371066,44.680488522254905,38.2721496962607,66.0,111.0,63.0
-17.26812212361167,-34.28979258755012,-52.7903558228542,-72.05420497441659,-87.1526936698428,-100.23888618748849,-118.71889001114617,-138.62909295064748,-140.41977251455285,-107.96801516682643,-49.9081104941073,6.949492965374708,44.98217162215123,65.30701601991856,75.03159814234968,76.97092172938754,71.30341823850416,62.3362632540206,58.607619604061526,63.175987301395054,69.85981602731663,71.71746145788332,68.00397585996748,62.00815975907424,55.605192390690114,47.593284468337224,35.63539917813445,20.10763140289389,5.326046701437966,-7.162561435335249,-20.978643607742924,-36.98660849579663,-52.369109541181466,-65.80264358571037,-76.58354297098866,-86.02734358783239,-99.16475015292986,-118.94315561094692,-135.60517992585068,-125.17993456354513,-76.6058320841857,-12.82476042031832,34.951749431617294,57.57397785040601,66.56758544414619,71.7017857848865,70.18638717003371,60.288266638558206,49.71567715621917,46.18848754177689,49.73413682741821,54.77501321539549,56.53524841591835,54.143501340796405,48.183751226079096,38.40200799591519,26.32886970508179,14.954322146451359,3.6453520625038136,-11.961537604920498,-30.05565799393836,-43.0906969948835,-52.891720573819654,-66.66169352645642,-83.9674063141195,-101.85796918441483,-117.21725873650904,-115.42850262869992,-78.87403175659416,-17.722131385088762,34.86390438432658,62.031709577737985,70.64278570957423,70.27762662838423,64.98184557860999,57.06843804670959,48.82509925926298,41.98044556811193,38.75295527955592,39.81223946543952,43.172351769159086,44.08294166282491,38.834414314597765,28.18343509655515,16.95426334874007,6.784014847033113,-6.26024574380564,-21.725862768871178,-35.68092811522656,-47.613261782854664,-59.51854255415883,-74.50129603771306,-95.74660181077795,-119.99210377178522,-128.5298849096132,-100.94973822851745,-44.156841037383,12.530545410830168,48.98794721107002,66.52457228333657,71.88807125273553,68.88735957590328,63.77318787416552,59.9560861224576,55.32047191573642,50.758755246552234,50.009135336815746,52.878521869674046,54.26061410825696,49.37446715921312,39.586879131846665,27.780403219466276,12.582322336372723,-4.881844067547839,-19.588662560404718,-32.897707270429706,-49.839259848638655,-68.07086559837667,-82.54054220924742,-97.58857084734143,-119.59005722511674,-135.6112319496966,-119.98527939056092,-68.83051219511187,-9.01053369059782,33.01624320518323,54.1024526909232,65.42042430837232,72.97070266233966,73.98940799543976,67.92131645616738,59.555125476817075,53.34682217009921,51.52890641413729,52.96175678793632,53.431296429899625,49.47402643842431,41.300271502971626,31.66271784824515,22.215362705557794,12.126573310673805,-2.273317125400559,-20.521991262373074,-38.003125739307904,-53.83083855993321,-69.26386198062836,-85.87440463965838,-106.5506588972476,-127.23210350203658,-129.84620880937288,-97.97720753360068,-40.074211621522856,15.79317687501493,49.87322946415989,63.37131898913463,68.03054662927755,71.05972533742927,69.05011546173459,59.59423923704754,50.29221029251813,48.96501795539218,52.75850972437884,53.659445094798805,49.9871115165355,44.03218977625198,35.689687024878715,23.573683123740892,8.879775050224834,-5.265912885455558,-19.275542140570966,-36.40690192250434,-56.677792122972285,-74.78742437453205,-87.40516531644862,-100.82409319437501,-119.10303470288048,-124.77561825129291,-93.61364555478734,-32.14425936133499,25.42492497733346,56.16729482122147,65.11204344880898,67.4971564943931,69.3995488509085,65.47819549956569,53.68977413850401,41.86107515888257,38.221366309617196,42.03408473361768,45.404207900997534,42.66758123475514,34.17706259764819,23.473779374190723,12.90375024732391,1.6086853874702145,-11.30377512492375,-25.78013248067465,-40.41814039751796,-53.554318578691515,-66.07892947146244,-80.88244951058661,-99.54373530318125,-111.2207597618868,-94.93788134430957,-47.74986996587396,4.90164626757173,40.481725427934585,58.93320273613713,69.30888714443047,74.12883305166322,69.78542266160544,57.706029003600584,45.63747186478513,40.53335803836466,40.945641071869744,40.10589259809096,36.61649660856946,33.03021116561899,27.716978854321233,18.818945703796622,7.9221389572564975,-6.088848015422975,-24.78739628947871,-43.9348907150479,-59.55332856982036,-71.94423645691482,-85.76369789627495,-106.324265998206,-125.10436943350835,-117.44201071749355,-72.71638759507974,-14.190374609679838,30.25530279414526,54.66840336236312,64.76819340349321,68.29263110728988,69.34337913189614,65.87777908263689,58.29331185131596,52.989092579209384,50.73312636020855,47.21149220487757,43.425792798514365,42.03168388933544,40.34847508868291,33.10689503197119,20.578290336825063,7.284456871724,-6.161586207927063,-21.592496517060383,66.0,111.0,63.0
-56.31379690562364,-71.47868492092437,-89.12849215337657,-106.90424154513373,-119.44630410978836,-108.71910696330295,-62.36864597026349,-0.3220912315871771,45.297367567687786,65.90027596946952,71.19379536639964,69.16035512277126,62.847590070410874,54.6471361347802,46.60917592722861,40.59625746599705,38.653536134699415,40.71579450964756,43.917227878273394,43.26256234707909,36.14575768866623,24.7756497394322,14.050124082198074,3.4416685517496273,-10.674114963285353,-26.016307704111625,-39.270626705320105,-50.940259571491524,-63.36777274148798,-79.92223478594408,-102.95150951897153,-125.22959470320156,-124.63300750454303,-86.41343124810727,-26.451889298695736,25.41054284297884,55.63177365605732,69.1492239611615,71.66315639731532,67.33103201121654,62.59095634810414,58.778396215712235,53.81663792077738,50.04665985269262,50.62299288009569,53.72001809169326,53.55549196382005,46.866243325351775,36.37233966967756,23.828398331211638,7.531644894294155,-9.535536265416335,-23.30638345253542,-37.34242991597214,-55.273978939323214,-72.67565398392834,-86.38576519066592,-103.31591700298954,-125.99617254749063,-135.20960498463936,-108.07188608148165,-50.93306129307251,5.567588657457553,40.85048121721136,57.88973922894611,68.02293347087063,74.09436136551028,72.80731503807748,65.4973322611921,57.402594167004274,52.33661744461999,51.767413305771086,53.39547320086786,52.81709967445382,47.43419335183532,38.55619147966013,28.886024072621986,19.506704514752336,8.537517503616709,-7.35846139304092,-25.79114247592078,-42.681363572752794,-58.2921088216777,-73.81462075371952,-91.36056885720305,-113.08910075439839,-130.84739442270188,-124.38445281013831,-82.83224456174148,-22.464872844845644,28.184220881063638,55.43046898798418,65.1063517154779,69.06011838931899,71.27455443787478,66.91112683692258,56.41279884475472,48.98650572389184,49.9189264176606,53.5532194772779,52.961275467156995,48.4432926805999,41.94053782115542,32.59661220679734,19.447910028717974,4.651113040619516,-9.185718009289891,-23.796395247232166,-42.09515889530499,-62.42497141854607,-78.89595211588217,-90.76719663733013,-105.90149152697677,-123.33379280944924,-120.06791541692537,-77.67219500449406,-13.564785976380085,37.296128736963986,60.29436925168126,65.93122549614543,68.20472519334953,69.16125563879916,62.67302879103056,49.81093817686253,39.79419063429388,38.84704365329345,43.41811646530163,45.32671348077904,40.67308064770831,31.14741167017886,20.398266779835584,9.78397684624033,-1.9522744494013806,-15.343027984814173,-30.105412684003486,-44.37094457006548,-57.14796002236792,-69.94927434394575,-86.0274897821992,-104.54501284780774,-110.13651963429078,-83.72921391770707,-31.71150741481234,17.321948209882212,47.16884596448588,62.449349967276405,71.41425387238856,73.9166377962829,66.81944329995683,53.818384782361335,43.314187202750674,40.38731340535848,41.051431388821214,39.244472113049525,35.556365940357466,31.83583192320011,25.471539334208703,15.824102587506877,4.34942018275152,-11.10155729672581,-30.527535307320814,-48.87405226127789,-63.347051326627465,-75.47818683895757,-90.98257982883686,-112.87088817014734,-126.68715297177093,-107.85971184855148,-55.68003916922325,0.7705703769701824,39.19487681935868,58.721113602308364,66.14972812647792,68.86010278355353,68.94039403888816,63.864984479274355,56.29160018830895,52.23483885547281,49.934200921950044,45.96811742762316,42.77795016050464,41.830985784635004,38.96878302712028,29.834069726152975,16.66682696583733,3.530302223966291,-10.423884971733116,-26.242588036633634,-41.855567346090915,-56.05650079882766,-68.99903699803444,-83.51202552550669,-103.86962077264187,-124.97889715552111,-126.1512848522332,-90.94695259889754,-32.21230833135732,21.623779191816908,55.233862273617284,70.80854660158293,74.5043149300996,71.46164124867633,63.950892041423515,53.77180544678949,46.54382405798834,45.12909047767589,45.453230210568485,44.090287919302554,42.439781657302206,42.13588196737445,40.57997641619173,32.93750229209472,17.72354362147347,2.0389590025658797,-8.005053425143812,-18.015488874520436,-35.55827787286639,-55.95863339081254,-69.18641743676467,-77.07238791610136,-88.60663002801381,-106.80734485670921,-120.6339512786937,-106.67126129052244,-56.469928967120346,4.298424573158552,45.43466150595669,62.5177574775937,67.94103228016577,67.31837681230206,59.57340081200347,48.293284444575605,40.33666112875873,38.8267499627405,40.675927773598715,41.6370166858611,40.56881177984621,37.61792434217189,33.795453728230655,29.113102955558286,19.540403028637343,3.797769698874213,-11.255150302644685,-22.233841742922227,-34.94981594561128,-51.67073852884801,-66.52847970144157,-79.64585953450504,-97.03881668812905,-109.59542910111499,66.0,111.0,63.0
18.196522265079338,47.10709088394016,61.17662293645017,70.33507521230415,74.55741597425181,71.09447290359341,63.024761967758806,55.512595422917286,51.73180951079261,52.204098193362576,53.63284500059333,51.770984532212,45.0933775403059,35.76034646419092,26.150191828018766,16.688007173022964,4.48288275687199,-12.667601822404825,-30.889277694055206,-47.25542114781813,-62.7396782184591,-78.52105993508796,-97.26888274747569,-119.40040696753196,-132.37894822603153,-115.78366599093923,-66.02518186473174,-5.78923818953788,38.48178286270688,59.48299201363798,66.4241007270051,70.02182405118614,70.8919921578971,64.18614446700938,53.51886869289803,48.468153154564185,51.105245120312354,53.929815426799856,51.929897353057726,46.758746075083884,39.61300411935036,29.15984073274424,15.176645727886577,0.5419782749645844,-13.161045187366526,-28.659496295825555,-47.99108677071957,-67.81262502305283,-82.54162695380784,-94.45667986201855,-111.35863017062107,-125.81731014815077,-111.8042930016911,-59.788512447405026,3.739831330143478,46.655631836561085,62.9605556523236,66.56169083930065,68.87139890292057,68.23471442907746,59.274089569091906,46.192843644714564,38.55941520521707,39.96750672080722,44.542296545231025,44.662781561075086,38.258602055190416,28.032912606061604,17.356971636909396,6.55877965738844,-5.651784163428969,-19.51397562313859,-34.380140642592885,-48.182808842225,-60.72909122568779,-74.10885044198676,-91.48995774768665,-108.51903708944936,-106.18162153431781,-70.20041654821695,-16.03986302445205,27.984878784953676,52.624194571972396,65.51009813141832,73.00479751361289,72.84280773866593,63.32854827637014,50.15925276238753,41.69668782533168,40.55746933185813,40.890436155526025,38.21613645488361,34.54251282696168,30.39558658609355,22.9299074708268,12.718513702863318,0.42596419523093654,-16.493739541749793,-36.15090015025795,-53.46416785052222,-66.9137527841271,-79.2963977281772,-96.86779098112859,-118.84365596271407,-125.36273693352969,-95.2483587361228,-38.36474814699372,14.058915871422235,46.52696819772442,61.75312989263912,67.17890604596376,69.24998644065401,68.06078851035392,61.607012316166546,54.65870090426341,51.63743346609042,48.93944076640816,44.80166928415032,42.36197331276756,41.47650863205282,37.0073355983065,26.21113725741343,12.80471557383101,-0.2937632810226137,-14.872661407874357,-30.861637861600027,-46.1200962483927,-59.875215759681154,-72.80660765177204,-88.72590723204581,-110.55252409003803,-128.4812241398899,-119.75682877302245,-75.14166879128197,-15.064090789255749,33.53647975422046,61.29563018939142,72.84778254616052,74.14262289448315,69.72826571128088,61.095051697187166,51.10982150642422,45.62516042888674,45.28778042960858,45.24459605427267,43.51584776313016,42.24183389377352,42.02388780830797,39.19351284595772,29.16121430434448,12.7978581615667,-1.415634599711241,-10.43633447314993,-22.238411827080117,-41.681939497496636,-60.73031378889021,-71.60726784807542,-79.70900829506364,-93.34061339272459,-112.18165112612141,-120.44162823054299,-95.31754615372296,-38.3489010300164,18.953364945417476,52.377476722727316,64.77756533008348,68.4376346923924,65.77957309837444,56.37524008359043,45.391091551942765,39.276480432840216,39.24688959100808,41.15119399686109,41.53542800538562,39.88823763788098,36.54048202313216,32.639794647349625,27.06731013846368,15.428806916463811,-0.9739524442616111,-14.697151404201431,-25.426337009910576,-39.5630362897225,-56.387240332555855,-70.18806225757595,-84.17561294200458,-102.17180289291275,-108.70831993572048,-80.95220968410145,-24.772241038020532,26.80370452309166,54.03996525141064,63.383408988615834,65.70503209540924,62.62068250887454,52.607047477680474,40.99352550632783,35.32716634582184,35.338836411031096,34.793395566871666,31.462059131062603,28.43393445821137,25.672407214805013,19.458189025923357,9.828325801230381,-1.25950788702911,-14.180062257467409,-28.465566282522616,-43.46061954061172,-58.105349282180555,-70.80807987056829,-85.85932073745144,-105.68719904972832,-111.31221628355891,-80.09748976944773,-23.417428557683667,26.622740387302148,53.53152953743984,63.81626226648572,68.41984450070822,68.45604832166576,62.484766609960495,54.104648441666384,47.183218325037515,41.99950028497803,38.406577304782324,36.866051920800466,35.78901302620112,31.405539241143785,21.69253705413419,9.387249585943753,-2.5254512053616684,-14.521966813925571,-28.543633488641568,-44.83957654715512,-60.37939441178119,-73.99407026186388,-90.69835262926,-109.92523256282345,-114.73177900035542,-88.30046008355869,-37.741665276599655,12.050570511725514,44.72747287445233,61.54100473955968,70.04525256050626,72.39141405282487,66.2273802158028,55.1838006339904,47.78674864252721,66.0,111.0,63.0
38.15180157959855,41.36260892505562,45.249650725097716,43.42236062641597,35.52041385909792,24.906125847548335,14.317211031997736,3.2029730687323257,-9.488363836810315,-23.788461246902646,-38.54521452049482,-51.87940341047222,-64.36286786172091,-78.64783011195858,-97.04605615817229,-110.85875202335677,-99.17802225546205,-55.053851744980676,-1.3818040491387054,36.91224078079562,57.11650313700314,68.19573561301277,73.9475257184517,70.92862292576275,59.51333220785845,46.932758684522184,40.7611979474437,40.835373153059095,40.4213355770561,37.12048873639736,33.52522300926692,28.64051974466961,20.1563625246306,9.47914038954762,-3.9271183062929067,-22.140626044645728,-41.54604863840993,-57.7072639817522,-70.35874909256162,-83.58480382583191,-103.27562049598228,-123.55684079421698,-120.73350865344143,-80.22964269294258,-21.574191731700637,25.5561999194841,52.403740814856604,63.96647982128734,67.9798840617841,69.39004021452506,66.67606714552484,59.30882489720602,53.43081717189945,51.04270414777642,47.77998317105803,43.80775619936019,42.11597082996024,40.80554239189586,34.46198136076794,22.37864863749081,9.014668097906114,-4.26568368836678,-19.45458144085606,-35.40574593710457,-50.25426316117455,-63.59992043633774,-76.85844866956207,-94.52224244967724,-117.02677674057237,-129.6632709943147,-110.12850248827354,-58.00835180277202,0.9838002802514195,43.61098673414316,66.0141214554245,74.03197051403342,73.33510067442408,67.630767845509,58.092530329863116,48.86841826696693,45.1817503521703,45.44219699553507,44.86259939147345,42.99211680709165,42.16691047419844,41.69951999596412,37.173467285759436,24.78437284870173,8.095899553562958,-4.343121798152632,-13.124891548652029,-27.207038222853463,-47.77371046778041,-64.70229128350297,-73.78715789227618,-82.86177498057226,-98.61882130120433,-116.75033706244257,-117.28126819382896,-81.05848994620472,-20.274778748490707,31.404540873878567,57.502885245674825,66.40691278355068,68.41907753374969,63.62847062980562,53.03600197040563,42.935606504339304,38.765729542950474,39.818440969108586,41.474688667405,41.26525638336946,39.05460452642502,35.431799212149876,31.380400694206394,24.468983295400403,10.861439791963257,-5.4586351099080845,-17.82964426397134,-28.96807888712836,-44.45018912112847,-60.76588220135162,-73.84311412543963,-89.19845833916669,-106.42704657487545,-104.73295122203471,-66.38078403907633,-7.951118107381221,37.242852996466475,57.977299032835056,64.51589731216781,65.4991732975892,60.35695388677475,49.02055912389197,38.559492311133425,34.99956744599724,35.480536175900106,34.02145456894284,30.43082342388201,27.771014497907903,24.342483458838494,16.902049945933296,6.765966466602495,-4.789519501266156,-18.216192157182164,-32.73478357338885,-47.8334846172781,-61.937915656272985,-74.5746652927034,-91.45443864527812,-110.11431453268365,-106.35735330583324,-64.93967444440146,-7.045304092331237,36.81613606461849,57.608250065121254,65.48567757338628,69.03795732117493,67.27425688190479,60.080648781416045,51.883740070356374,45.5427948666791,40.7662231608904,37.7638425660571,36.652130455953525,35.03366909250014,29.103489969120055,18.2183730880694,5.860695134659803,-5.893248687780074,-18.297923644014823,-33.09774862604473,-49.57566700461086,-64.37224990774942,-78.25659244638938,-96.4552728094707,-113.80471278522467,-110.54332539088966,-75.18053835835775,-22.202157566315517,23.474522042788458,50.86477465183317,64.60452381677315,71.45170812128512,71.52187004388465,63.13009196286294,52.43219979737984,46.6865649009487,44.326293325818874,41.00348186405804,36.12456747920956,31.94570348327759,29.43946523903737,26.3788702561992,18.610025709748754,4.7879881823355905,-10.854212255509978,-24.787092944609363,-39.1675923686016,-55.62316101446448,-70.52277668667786,-85.52401737518665,-106.3623002741339,-121.09574796153498,-104.26599346673657,-54.027380394059364,0.4456998450279106,36.238281112254086,54.681858113228735,64.9459939960341,68.72630044458228,63.51920891882635,52.42988536462554,42.92806207367192,39.53682879771109,39.65094574917653,38.8522765798632,36.59133492173711,33.322541065240806,28.586892823625487,21.121508879654737,11.451483727303936,1.0969373683778145,-11.23725757648707,-26.55353894454169,-42.504055974352354,-55.52901415034163,-67.51218363996425,-83.4667916513729,-99.06222434529582,-98.19776839649056,-68.81595428510117,-20.021106494225798,24.77508898551877,51.4257624607744,62.261504570881065,63.84595696873927,58.86245262710239,49.176729774907,40.750485984260486,37.011352935831184,35.320640496605755,33.977263088468995,31.991537624673924,27.857218402276395,20.638456110311026,12.59696259224725,5.18030028515225,-6.2393151837696745,-22.879449329716085,66.0,111.0,63.0
-24.099233186298825,-39.847221299048854,-54.25564282870185,-67.28744275553207,-81.29861815220883,-100.83379190412548,-122.75859880281017,-127.98894592792357,-97.5763610096656,-40.33361935624622,15.5118058955101,51.9401856681256,69.54333202013164,74.49647910089156,72.13786815496547,65.18438392874263,55.09958967738325,47.14904426495551,45.09211954317988,45.48743369084434,44.351258258763174,42.58095168705175,42.15000134887603,41.03564666758663,34.44311133805169,19.999215788901225,3.82540029543752,-6.893864404710661,-16.319726086849084,-32.81468142735087,-53.51016243779165,-67.9178108228409,-75.98601202811676,-86.64044135228264,-104.2148741127131,-119.87027003018278,-110.8045181499866,-64.57792658624616,-3.110154699953437,41.53062060438274,61.19309162499087,67.5575990516719,67.81147479373914,60.95026427236943,49.74414047908594,41.02238217014907,38.72162108912725,40.41802910368899,41.626085211571265,40.82725957536877,38.093653764605484,34.31434140300302,29.90473483973783,21.241999962072583,6.040902454760355,-9.529570563402636,-20.83379585331169,-32.956651390846126,-49.41421877238735,-64.78077848759716,-77.72417239230921,-94.55204115927471,-109.09642879881471,-97.42004870281716,-50.00266582728367,7.573583962562071,45.48350748368878,60.75950474019929,65.26053940252861,64.77557583265099,57.512928084395774,45.51405289017669,36.775012867199294,35.03128908861024,35.41136661282462,33.04216869840137,29.523400214626587,27.057329426726415,22.632334854825583,14.127936082089109,3.6024503747831207,-8.49329622260987,-22.334540267131402,-37.06265379286273,-52.12603807905387,-65.58366315730933,-78.73931047709344,-97.39458396985697,-112.61284643156671,-97.95454683736072,-48.35406499488083,7.98460441529887,44.94333258415883,60.630767116937726,66.87854234564811,69.19404252934943,65.5999816641747,57.609086718567085,49.84527421751569,44.022038304657954,39.68079844530585,37.298757601844706,36.40839310169812,33.89577495722795,26.351691035395874,14.636603815275006,2.4111559066754458,-9.314473245689719,-22.289305266880014,-37.819458382817984,-54.13949173033236,-68.24062164235686,-82.95510600950206,-102.26773077499604,-115.90501171421795,-103.47139445351497,-60.515329478125416,-7.388528141911976,33.25899665915859,55.85471843643979,67.1479132716514,72.31296208769868,69.87436765860797,59.828553359069176,50.17254330762974,45.883807848810186,43.578255707986514,39.67489081513691,34.74470895196123,31.089016282180733,28.783753550913612,24.787595902119428,15.1301760228608,0.21097920379379156,-15.06223884637448,-28.714194890976206,-43.81890892310363,-60.22416034616318,-74.50447154245882,-90.97601032003567,-112.39417234368136,-120.31061559279797,-92.23831994510111,-37.24687417541121,13.032893864417423,42.8968048536523,58.228280726222856,66.83905681331592,68.15720196284977,60.608916013529004,49.204275188621075,41.306409063958036,39.45297581139442,39.61125629653979,38.30913743754151,35.75603757022026,32.15224986637351,26.75094538658205,18.456540728092655,8.533831743203017,-2.166596800630835,-15.394454669640275,-31.280108648145468,-46.63717364452119,-58.833908862343606,-71.63194909954892,-88.5752779638035,-101.30644898411262,-92.70309362799321,-55.744794586906146,-5.6946547656442075,34.47527077506044,55.85003854457085,63.46862336923667,63.04835449664937,56.3572438658412,46.31386988689886,39.24981419722987,36.44238345673201,34.92108842581585,33.53706929159117,31.084207121438165,26.067866709889696,18.22709357804398,10.512252424205881,2.5246020326512184,-10.716150814099986,-27.749662630019664,-41.661500686723244,-52.30652558129569,-65.30279988656893,-82.98090621909516,-101.51108095696078,-107.5556939993626,-84.41284895546548,-33.706149666232804,19.326028866925885,51.81474526795906,62.812987098384525,64.76322546044976,64.48994073859863,59.99459761652758,51.78173718845583,45.755004290146424,44.09891305015301,43.134348488359024,39.71480063584567,33.99821507324458,27.897371299349935,22.156112881506903,14.528333326946289,2.890312682937507,-11.655913938322344,-26.992902949280616,-43.38788340305842,-58.31395265383487,-68.50600666927276,-79.99068355544392,-99.41427916546922,-112.26958560958617,-94.0992366522316,-46.25267860036283,4.2292323154805604,37.461454605761595,53.34860896497304,59.51913735264707,60.0840675752421,55.939216835191374,49.89603980343687,45.878490073907365,45.15172512011815,46.485623578928966,47.85478106018404,46.29097772048002,40.24367203870775,32.52395823285516,25.37850640847644,15.76530546540869,2.7334723169801802,-9.006100601616682,-19.003414718915124,-32.810157890906,-50.189974955078554,-64.14037857642265,-72.80512589291678,-84.94338743322558,-105.07459707999031,-117.25268631163857,-97.98878997055267,-48.60528022507092,66.0,111.0,63.0
-109.47546891428551,-86.8360009605926,-32.7519375342084,21.231550851614507,51.73898862684816,62.700608431364785,65.6518599406979,63.449127523037625,54.22275142110875,42.31265830087622,35.64556223398184,35.23653947983299,35.05762962317402,31.962241816112204,28.753111180186995,26.17098295122092,20.539940082481447,11.209300011213532,0.31023592207202605,-12.354826154518086,-26.517286302894792,-41.436896155007496,-56.26498630718555,-69.1470383953164,-83.46875129513133,-103.2184222168485,-112.4464515223923,-86.36569990405724,-31.242928651138,21.210276994822927,51.19793496625368,62.9275625940607,68.00518538102322,68.81757368487955,63.534097632927306,55.18344606012815,47.98606005611944,42.61136895245489,38.76617447305545,36.97907738036898,36.03464502953938,32.30346559954246,23.228783039907597,11.035717944374198,-0.9753809018621995,-12.844065586050815,-26.515889978393417,-42.62483147830297,-58.467505044943444,-72.13768834053809,-88.14947851389589,-107.69810707142248,-115.70830045970156,-93.65665610765184,-44.992987491619594,6.248090343318551,41.450672396788235,59.92074858242068,69.23454783686888,72.5324330941918,67.51492699742978,56.58965169550737,48.42905697332189,45.24116474880407,42.664404339425346,38.24751259033267,33.490178290485325,30.36611772507962,27.997321353695867,22.69094474332224,11.172848918130189,-4.3719762729802,-19.088458749945378,-32.79211260434362,-48.61804073376318,-64.57333415861285,-78.66045479363044,-97.02095073705179,-117.34951962996382,-116.266904546161,-77.78403641206118,-21.0074436809909,23.756977961864667,48.341329261523754,61.28586914284843,68.13003910134717,66.78997115143228,57.36236440975587,46.30475264042677,40.24399393579428,39.527687749801736,39.41637750996726,37.66968262050991,34.8356726823558,30.84148144347455,24.648719315414173,15.658845754142515,5.577498786573315,-5.656820198501375,-19.79725960480014,-35.96648589493907,-50.448808270579256,-62.18519553567644,-76.18892469338037,-93.4045297743386,-101.70093082820405,-84.66844307415306,-41.524841720408354,7.692429010127794,42.50413863568319,59.134068847973445,64.03840364118743,61.71977243975541,53.531719850906505,43.74715262696578,38.13800189710238,35.95556066566862,34.54081764001504,33.00632494120312,29.96144587022031,24.007652249197395,15.853581026803647,8.452356231072615,-0.6269173417920098,-15.559488795847383,-32.29713161614724,-44.83927857874275,-55.60927520482427,-69.96854151196067,-88.62393315486716,-105.37670514767925,-104.32833947853332,-71.78445678611696,-17.286237439505122,31.301265865091406,56.727489444189295,63.77459303463189,64.91694467901453,63.7459579956284,57.78239518144244,49.57112781554119,44.92967564165001,43.947549965794835,42.449641491265595,38.225867503932534,32.1895134967966,26.254395374367213,20.280189556739284,11.602169519568243,-1.1459195920129095,-16.017130870448472,-31.63175396649285,-48.07641110551382,-61.70473661808782,-71.18700121406977,-84.93201615072917,-105.01442074719662,-110.86558173825884,-82.34912127719308,-30.669124766404956,15.920384624021702,43.50678816247329,55.83760800173607,60.20998745736287,59.30712632168066,54.19571304362888,48.4036670032211,45.35943904044533,45.401422658858266,46.99219202061431,47.84125710389547,44.95744363863524,37.99671978999075,30.453842464959447,23.03322058137081,12.192905208937578,-0.988965857243144,-11.851023757671797,-22.41709120560327,-37.72483130886435,-54.87060571671765,-66.94704019409157,-75.47642986185419,-90.21365010725359,-110.59723880468684,-115.53603180522795,-85.87739919673604,-32.46065156360226,15.403526202219345,42.48065910752378,55.78018091410338,64.25692683071307,65.89039549406462,57.67915716757178,46.62038032478465,42.28633284855989,43.83614993773209,44.724481119450004,42.269237493710555,38.60206154880193,35.42348324128953,31.711556284093998,25.059703224694726,14.66436316821684,1.8024248480383096,-11.697906427080534,-25.167799016363922,-39.04560976132059,-52.29661229332439,-63.85255765854054,-77.03855642589934,-92.8652554813718,-101.70308010732707,-87.00925024667045,-46.36399533123287,1.3298941070612254,37.1114562855151,55.266378594461024,59.98092108970166,59.383779456095404,57.044938722811736,50.147539792742805,40.27071181367654,34.596209346654156,35.19305481795975,36.82180805064257,33.97052372379103,27.56342800932004,21.413418286677803,15.808051426761603,8.191783073010118,-3.1307041143503236,-16.803152466120743,-31.0571189296273,-44.04362855329641,-54.862685678786775,-65.88313118752347,-82.01298215646311,-99.21336509539503,-98.9935884838871,-69.63525549939074,-22.740423520715325,18.67536400072138,42.950533756701425,54.15657048046155,59.48213985930756,59.864842452976305,54.67872471236132,48.1323243206126,44.408040876289604,66.0,111.0,63.0
