-24.483175042254583,485.86494677612336,613.8608413513404,497.18856402985745,420.67824040066364,432.62051567779565,450.9302057187261,441.43346601837186,417.01628444010674,383.1248936241733,336.63830500980123,282.0502851635479,229.0792432578278,185.47621236837136,153.46403911254703,129.60057069435078,107.98391238446538,84.82098607927891,60.0960642648573,33.964975758138316,5.165189789467433,-26.545274905788183,-60.74641138428737,-94.18108116529662,-121.84743226888337,-144.99474255398252,-170.30703134929536,-195.77988407117348,-201.47569338255602,-169.77294884988063,-113.41247366774499,-63.19746916504326,-37.82679395970707,-33.65362670838511,-38.93065409571889,-48.21519612366043,-59.3500067175872,-67.90239189059537,-68.52845629857833,-57.266550068204424,-37.53421893492868,-20.63855203670232,-14.784074100923835,-18.61275257884375,-25.45265914034928,-31.25958879598097,-37.933229037279126,-47.3886060747138,-57.12221364242075,-68.3934344600704,-84.62711472334382,-95.45603818309067,-82.25635577947146,-41.34299633552491,12.369586445406073,59.62802516664915,89.18892257853229,98.8999100416457,92.09020375575543,77.19318909630925,62.26439560849297,51.88836949857351,49.28066154976138,55.43048218930725,65.85005870373305,71.36736332089252,66.00332947690963,52.24080114761647,35.10584367368749,18.07222021925472,1.7264515773489495,-15.701571680377953,-33.92273993853538,-55.89832408505343,-81.55768350046037,-91.44074912040763,-65.2792126255405,-11.125570176999505,42.180150116922974,74.1178605972411,82.06071471162304,72.95265945939313,54.744982620219865,33.24209946576889,14.597540549932688,7.407929786764129,13.64125711145904,22.988597074746256,25.201655826799016,20.054954732540097,8.572956883194989,-9.649753782197664,-29.265369412780515,-44.8461457382685,-58.9869361827,-77.85017798209606,-103.0142634776221,-122.16868896763246,-111.75342762048027,-64.9209540653014,-2.6737103268915288,48.46341393797205,75.3074124822836,78.18862342637549,65.52286785989894,48.8750974170588,34.307749270248415,21.73746788891792,14.664299932043553,19.293767792984262,30.203741356278453,35.526508295667085,31.824709261782253,20.991686300713297,5.793706285002551,-12.445761086354297,-32.28009696227991,-49.85501759129366,-67.63253367651302,-91.29171551476813,-115.24809571752307,-120.9399060487412,-90.96668432815915,-31.86723251128742,26.861109889052056,61.761220952246646,72.69320410220885,71.77434401808735,64.47766907536271,49.420628095439525,31.997894259349998,22.523342880060326,24.41673950788145,33.37356204688212,42.67071928548047,45.25458066815873,37.89913221956872,22.20085250959507,2.8141185726442957,-16.29304267164778,-34.61850309134527,-52.28755112095405,-70.56330782879435,-92.21781159291125,-111.37861868123372,-107.32178366890122,-66.21195185915283,-4.712541248154536,46.754693108394854,72.2237948851186,75.67221289974526,70.16480690631649,61.942507792630416,49.45408879676433,35.392717060591174,29.629831190075006,34.718247234421455,41.51386231930299,44.507762233840666,43.56760867889978,35.01374219231121,18.311815054794888,0.43988423066335713,-16.44351454668361,-34.4074842193254,-51.758369099164156,-68.47937955807133,-90.35899799072435,-115.6908114568925,-127.70629586811472,-108.46208483238132,-58.9087523400945,0.23369290112100427,46.52133933903266,69.21287563537298,73.23584945866664,66.17238385370085,51.17917283283691,36.5577755855216,30.36417909024014,32.19536702065286,36.93446458604081,40.25363722436122,41.340241068525,38.85767274344407,28.20498515356412,10.001739878644742,-7.554921245826675,-21.902228131151784,-37.43927605897851,-54.29879193335924,-69.25223577194018,-82.44705415902297,-97.71944341570283,-115.49126962486883,-121.64149931231668,-96.2731726815667,-40.39204532312211,19.160630041798978,58.842591851175754,75.9806767923153,77.88891293019412,71.23160168829246,60.06306482298102,47.946747378029926,40.39152484642848,41.95728877978546,53.44762549624822,68.93262182269994,76.4766052199955,71.67012485290746,59.93400814161609,45.939292822845744,30.958975607627043,14.528128731180994,-2.407801520972825,-18.221479457589197,-33.97857266548874,-49.286674065034596,-63.480730537133546,-79.54471783958472,-99.40433430672779,-122.05870941311055,-140.2443313431699,-134.88925226196315,-91.94466490872885,-25.648433938554515,30.857019606325743,59.484486218406026,66.77226571584913,65.17698889846405,58.340782573296224,44.75735864347639,29.75865691168474,23.986884811347682,32.27401533808346,49.762376594070695,65.1898280204042,69.8673182441789,64.49644261883294,54.88550583436812,43.538831818778775,27.846417405184145,7.770640425719286,-10.815955709451584,-25.383201326633444,-38.85810218180391,-55.37038958640025,-73.84380026558505,-92.24571436481037,69.0,123.0,87.0
50.22667803132821,58.365236613758256,68.3605063033308,70.96589211357664,62.64735620516288,47.45182143019786,30.069069286585513,13.362614621677048,-3.1745264686104258,-20.882329927223413,-39.62932408418024,-63.41741717058772,-87.24229518271888,-87.88134583887694,-51.3622884385334,5.623303255956325,54.01084434749252,78.66242312297229,80.79669268991911,68.33064464653137,48.650712032446066,27.198122722463488,11.013679067819856,8.10051358443649,16.633620997804833,24.53952097336892,24.340800578579255,17.45613520870445,3.890928506428234,-15.526863436297628,-34.220609439637705,-48.80266260507504,-63.72324995105037,-84.67317796633183,-110.16823157526457,-123.08235302344225,-101.44532645698187,-47.20653761150003,14.134082660651126,58.90133338745931,78.35020410488742,75.60929856571319,60.68176714087167,44.41093219527335,30.46503314667509,18.785058716299176,14.732498543938705,22.39053349272174,32.65377312730852,35.33796777878019,29.305402633948344,16.942624175557707,0.8309525515646594,-18.185199024915907,-37.673289054809445,-54.64134312947634,-73.81464359069099,-98.81837130822397,-119.75906938511544,-116.26277971737453,-75.80752680907496,-13.446032586651901,39.838846367175044,66.8863178231011,73.17105202708285,70.37586688177177,60.89116148374918,44.153127442357395,28.094191822645858,22.004366767403322,26.553322282549498,36.35251787243792,44.36190864278843,44.14906421136668,34.060859588294846,16.73700003650835,-2.80475263976718,-21.655503244525686,-39.784247261963195,-57.37278323363623,-76.43658281895496,-98.71165307859295,-113.64051124089522,-99.12274494820085,-49.13747800635639,12.298705569131304,56.94250529276005,74.92225501386127,74.50334820747587,68.07732695203046,58.8407027532016,45.16705423979105,32.48181226654958,30.26774641778902,36.94620634505266,42.76861795095714,44.72272382783456,42.08275699448396,30.776582571029508,12.988809759444232,-4.42314236934872,-21.517171686410194,-39.6164912664058,-56.44540210500995,-74.05714181478973,-97.82328769632721,-121.49736393853436,-125.79659259721312,-96.58139456337122,-41.694954382286625,15.705072318035125,55.536483195494036,71.84065972128155,72.19067984991784,62.42826065082619,46.42915306671803,33.76555128316157,30.25882828242925,33.5135093110326,38.13596511697588,40.78403984321149,41.16586004140035,36.79050182022529,23.414401699085815,4.531835894194341,-11.862754635023125,-26.12224516696872,-42.330410970373514,-58.89878904237638,-73.12378931397816,-86.44860525166672,-102.90067968015147,-119.45017842631738,-118.1081102734892,-82.39421164494375,-22.161679087923094,33.145033871553636,65.83987242635092,77.75232001008848,76.61936745843786,68.34140580748002,56.4406632488383,45.045456597152665,39.78154327246674,44.357892219701945,57.99994036528227,72.39682277468692,76.19588718096952,68.71679826845813,56.00768021952797,41.72534727740739,26.371333472589264,9.57916960859323,-7.082938812812341,-22.729610745889442,-38.53469394505668,-53.42439974399745,-67.77260375877518,-84.89923028339186,-105.77474429269508,-128.4281269249792,-142.08643542143807,-126.34583392896656,-73.79500557123649,-6.983284030247414,42.054870039347826,63.15279663479149,66.85494203149824,63.8215142200659,55.0741349709084,40.09324362234393,26.752129096860898,24.971287622196556,36.81906123359572,54.953973914707156,67.80451270806076,69.09889984435604,61.93615033942747,51.8298004620591,39.60270058658463,22.279634351356915,2.0068065677111306,-15.384543305174413,-29.17516147089668,-43.22837734560116,-60.692433419338336,-79.08710879421061,-97.99964315664307,-120.59032371957888,-140.8802469920568,-139.21583275537287,-100.43885816893113,-35.30607561019151,26.762093912423644,65.56287323846703,79.79445309266544,77.15114430095893,65.20983777640275,48.987926966983814,34.0793214621469,28.654231389272123,38.03021314199559,55.427207020113684,69.4237216284978,76.50023303727927,74.85624929751293,62.12128569447305,43.339576023499646,26.176992187312095,11.440940529207037,-3.4466093786349954,-17.84849142030899,-31.68338375474703,-48.18057117887795,-67.95432106472838,-88.26263009315208,-109.56040088699605,-130.51592710263859,-136.66275373957336,-109.6597313442778,-52.60731717997892,10.123207451105927,56.07589075168216,78.02544969010931,81.51811300180889,72.7028705785217,54.3601006528977,33.41880321063206,20.01366353081834,20.83984894103633,34.403639747127755,49.89421354826751,56.78926499217768,55.61182521396911,50.465481402310864,40.61947090406329,26.664085098349208,9.8252774826979,-9.246653898196113,-28.266289544873825,-44.94817249024552,-61.99426888482979,-83.36100007120844,-105.24751789002421,-123.95050578338584,-136.61435189414786,-126.76408433076031,-80.77991840168576,-12.572080492049169,47.08146110330835,69.0,123.0,87.0
50.45647836368781,70.24010320020074,72.97423168296378,68.44532267560676,56.61957843561574,38.932411241161,25.094311357941592,22.410844839962543,29.13474129127886,39.18475670727254,45.326011809242814,42.195654795373734,29.597109707280207,11.106656006926801,-8.342690288439966,-26.9632411639527,-44.89119399046355,-62.5677436358101,-82.6675467429583,-104.6997320810707,-113.32939741886153,-87.72013907044807,-31.093237572844064,27.76954581325499,64.77789708823119,76.0562410993167,72.91263443665434,65.79313698852005,55.30859444936072,40.91975606950406,30.53675445263019,31.71919647301141,39.02905114829796,43.68714220084374,44.597365701516686,39.81986334007105,25.95182255678162,7.769814984619882,-9.257161118353485,-26.71410976692615,-44.68229317575071,-61.15688011015944,-80.23943732877159,-105.3833766261174,-125.65312802728992,-120.92316942917407,-82.44900291031492,-24.302418583996797,29.61558911658155,62.47755654985909,73.16975751186956,70.32541033827236,58.0986683048468,41.99357035410893,31.798764361928487,30.735409919444923,34.9309118897013,39.14416103947624,41.144916478033224,40.61958972328503,33.90717320396157,18.120502840388966,-0.6524852022130666,-15.96387020462399,-30.560530379552414,-47.256178289328446,-63.27051348202976,-76.89657903700184,-90.75262746320452,-108.21390743354192,-121.91728224685892,-111.50340059293453,-66.31272247081404,-4.450330486294461,45.09749005116039,71.07488807789063,78.45245914178646,74.77132664611348,65.14377307015582,52.84572064073926,42.670350767649865,40.02019965700076,47.566770116237585,62.65433528349181,74.87882449701203,74.93132275573694,65.35109071098749,51.97179058847248,37.42871166008268,21.645017689778303,4.644791631645917,-11.648324712504253,-27.27992805594165,-43.00181443612346,-57.48710790780639,-72.32330055224449,-90.57567267385289,-112.35024382156014,-134.13810381505516,-141.38815112626375,-114.49553710235138,-54.38101729656256,10.01827135820369,50.77172250524256,65.38082670216613,66.45518470993075,62.00248648454527,51.21176089168302,35.552350538822644,24.76984558245485,27.158356788787465,41.921383453821264,59.665583829306726,69.38145639740686,67.61156865333527,59.16504617983056,48.63472534324476,35.19401112691653,16.433850057788533,-3.46939688004524,-19.62360133947793,-32.98739127766162,-47.94045317115294,-66.06882252991143,-84.33459440254778,-104.12619071618225,-127.36541569666817,-143.6534791500109,-131.92436164939286,-83.14650975751968,-15.784625604269259,40.72033180367384,71.92635543799187,80.37566699113492,74.40512558646357,60.756758719342436,44.231026956330716,31.14733048374365,29.886155083654305,42.81020575956869,60.14137489796947,72.18841584713836,77.09356611900341,72.26639025030893,56.908435840842905,38.02669924070514,21.803832387162156,7.196343738464772,-7.737612098804622,-21.791879644801583,-36.0405902329608,-53.67583740554322,-73.8347203177288,-94.21989813375748,-115.99593923777138,-134.77637293118838,-132.69750607249247,-95.39981424338002,-33.85322277069855,25.76371425410238,64.79183289547477,80.56382903980611,80.105238742665,68.20447933962078,48.124052612435996,28.36466265406102,18.667539088902775,23.78142445691075,39.28961814443031,52.97183293527209,57.020719626179286,54.50567884705826,48.146287039225705,36.92301697500381,22.082324793206467,4.479190033020713,-14.88705990527443,-33.3357966992837,-49.57313957458014,-67.73861219764068,-89.92275253252113,-110.96899581181759,-128.67059231914223,-137.04614664687423,-117.15688844717594,-62.059533261569456,6.810818935441184,59.40348736077627,83.19597081063618,85.72912344466984,77.98976476270927,62.766150153763284,43.16095254434696,29.515298278996916,28.817411155630285,39.25633084809336,53.97642746127039,64.47760634076221,64.59017611410995,55.346787834498876,41.04931522244929,23.311375411353996,4.7147803806418915,-12.59443629862542,-29.672621045582687,-46.992183169772176,-64.121393520177,-80.93654768480295,-99.30252130701498,-120.27061256598972,-133.09440536210863,-116.76950737681891,-64.00266113686098,3.691863438914327,56.60428829845588,82.25813303579116,85.94079613666555,77.33400469966132,60.47205178425582,39.487095943533234,24.662533160180573,23.0283457434934,34.00703302311502,50.115716382779496,61.35406092309169,62.307813903250654,52.91969225434529,36.94658637086748,17.395676121148043,-4.097262207511191,-23.91185286152793,-41.40403567049939,-58.86608521362452,-74.9240552264185,-88.62017133591998,-107.70860227338316,-132.53248634912,-137.70527655690555,-98.91177111482017,-29.193783297026577,34.82002942162303,71.42680151163484,84.58098109100328,84.61894770055115,74.35350970438508,54.77212310603433,34.27467496628105,24.42586764232625,28.28387812378809,39.941083573895,69.0,123.0,87.0
-5.4632979967546165,-20.012259413672805,-35.22493956318229,-52.11036521510516,-67.4124131837565,-80.67208533822284,-95.43326148873847,-113.32592776955782,-122.30777233852064,-101.76958066120426,-48.75672568103771,12.079208365950109,54.97232462739206,74.75220219921817,78.2472388428791,72.44370628617452,61.70575671532255,49.4243041704722,40.94200983146312,41.14155010289334,51.46609420281961,67.07195949297954,76.23731894556765,72.85300579785539,61.692685026198305,47.858388538239346,33.028536399253454,16.79515975599159,-0.2093704449637107,-16.150942926358507,-31.863986663398084,-47.33675303971429,-61.56560783512335,-77.18873404707756,-96.55335297145722,-119.01284151359425,-138.69032542650172,-137.69185622436592,-99.65029318357723,-34.6216724886757,24.842462128890197,57.20505949268714,66.52406674948836,65.66618319115912,59.63567746515772,46.86871506130117,31.435180898980892,23.950959197288665,30.439375638087004,47.28631373876368,63.65067170359427,69.93490158618786,65.57535727953038,56.259499642970916,45.21832948320527,30.276700446196187,10.491518738632132,-8.585525000262328,-23.606667458061732,-36.949058870273745,-52.96839270196906,-71.40714669738973,-89.69848948529759,-110.63145166562967,-133.65403359779123,-144.00394521552892,-121.32978700140907,-64.221478010228,2.70383050908714,52.44875237306479,76.35945858641682,79.76893365385959,71.03392064398254,56.05213863314266,39.73856472272923,29.238630823278204,32.40478951319336,47.95241441371119,64.33896889261702,74.38250621564636,76.86617460641428,68.72722293179669,51.41202383726786,32.99578493552381,17.569186091350883,2.8904519547888015,-11.931771418131131,-25.730031862201702,-40.71775645264058,-59.39623782130621,-79.69325325013165,-100.3265952792433,-122.29695782796013,-137.2827959242754,-125.58923590439242,-79.01016784227974,-15.324894516070387,39.572331171820615,71.49546751189261,81.77759258148353,77.75525517857976,62.97240475874038,41.90971281481493,24.182997076358266,18.618849592774087,27.65518202241948,43.98999154697184,55.15252700518524,56.71856218874281,53.116016263382065,45.38823351804446,32.936977503311105,17.267838251970957,-1.0283452712288992,-20.446944085079576,-38.17011765841805,-54.37213254377033,-73.89053134201674,-96.345839319537,-116.42459872712233,-132.745530501473,-135.02687762599265,-104.38998867775922,-42.12973892256403,24.69725713321491,69.17552341456278,85.520425370455,84.27259149422753,74.3646024839731,57.183111958995944,38.12294665312561,27.922129700659234,30.930116981415658,43.44200231996794,57.804753052386275,65.69242788627668,62.65733984263943,51.62673945236792,36.21478842605793,17.865617302121947,-0.4063327918015627,-17.496778116466032,-34.668041794947584,-51.979761922217996,-68.98757764831983,-85.93513660627146,-105.26307538621248,-125.68369814888892,-132.21324802698817,-104.80944656481287,-44.52479167869671,21.47947242189683,66.81933590207258,85.10663030773185,84.41050331513695,73.2484821703058,54.44604214834264,34.111988507968746,22.725889090541973,25.111986201985623,38.604071157731184,54.21991079034116,62.77635904432745,60.54406120235021,48.78167207635437,31.61791327842828,11.248539046650336,-10.135132374777035,-29.09457672143793,-46.410954063752655,-63.815149970094545,-78.9307721215713,-93.16076569338082,-114.94959846050116,-137.57923053564787,-131.24940497046634,-80.41614793874297,-8.612317834413851,48.41513290677887,77.09681485195168,85.66054685969593,82.74252560396388,69.45223749459942,48.380971893791234,29.97324137457509,24.287157414218715,31.205781362672155,43.64021333806748,54.07763557300898,56.80997541178445,50.062472791299484,37.0140158266103,21.24993844377908,2.022432335984826,-20.369049939062833,-41.72192935894284,-60.134029875210025,-77.57619207648874,-97.55206723655003,-120.26863112927613,-134.43221219317041,-117.78360053674756,-61.38441294476349,10.483118751255018,64.9939259834842,90.51992300223897,93.34718449401048,80.90838280839382,60.18678148457255,38.52923153563149,23.986850364570422,23.991286850859655,35.06576818485767,45.70604773363584,50.55232466149522,48.98258957387381,40.343234879873826,24.83404195200625,3.4604578174022733,-20.198102523505543,-41.26577918932959,-58.213268313032174,-72.48818511218772,-89.20642027549275,-113.63218165190503,-137.01035153481794,-131.7373955870088,-79.27767836225384,-1.9691751577746333,57.79022694170788,83.3030463630209,86.92868542399685,78.86057464411947,60.65151494479946,38.28559691473837,22.208968855340288,20.05643639357579,31.542167979191767,49.08239658389854,61.37108442137703,61.09923676163776,49.32308735160655,31.446666632532086,9.888179726485056,-14.389755523863883,-38.57212729573561,-58.88566258672022,-75.36538781344792,-95.94079963740386,-123.30231204806769,69.0,123.0,87.0
-95.30400463001848,-117.42021963301535,-138.9402703376514,-141.45913268565485,-107.65941318137077,-44.46685614434171,19.6111837030623,61.92934539376344,79.06697526673759,78.17244632810697,67.14696171587165,51.22016791767473,35.71478212345073,28.537123012396286,36.04492378328499,53.11868116981545,67.95496952247746,75.98135502146503,75.71622546496845,64.36122075185096,45.86263243969623,28.265581608867294,13.379070514561835,-1.448975007921147,-16.00672923071444,-29.762749351909473,-45.746863070921464,-65.24226773295963,-85.54908661020451,-106.61149313179313,-128.11837395757888,-137.48182818177375,-115.36190631064632,-61.145822936438975,2.3796202370404034,51.35261818997074,76.3515064531304,81.84076033714547,74.4992661882237,57.16940701204882,35.98318787627517,21.058126132232722,19.85659439505438,32.18460886165325,48.19298858987287,56.45628285561778,56.030830529542975,51.39110067716356,42.21177677388713,28.698148632404035,12.22410340828964,-6.641748223218809,-25.847742626551728,-42.82882875613542,-59.494500491071506,-80.3364341750011,-102.50891943090136,-121.63897277417566,-135.74330473607662,-130.09949896611795,-88.78603267549454,-21.827353386502054,40.55618038567571,76.48337332891083,86.39785037052086,82.16366396446483,70.09344307480497,51.39131671717506,33.88251698750139,27.48603212716672,33.85940353377514,47.786997904996575,61.07167303456529,65.93173773281431,60.060260429602124,47.563876202769016,31.11214355649314,12.444626462667461,-5.407932816103804,-22.421092384777943,-39.67692372793061,-56.939956148604715,-73.82698005738663,-91.14845315423554,-111.42127368539153,-129.9928186035043,-128.34120472828107,-89.90109474713059,-24.58703754661354,37.387768829554915,74.67962291902656,86.37238505863992,82.0634414759012,68.49383433513978,48.24802313834513,29.53587585366515,21.983777975464434,28.169990110785136,43.37962113424719,57.69193215635364,63.268480788843334,57.958490783807775,44.216791362406646,26.020663603292203,4.996321378254374,-15.92889378975438,-34.132210682881755,-51.46744930460587,-68.54825416625926,-82.7839592865553,-98.44038409135544,-122.46697898713025,-140.10084251459733,-120.76975591965983,-60.08841824110158,10.555850664940499,59.48363245248806,81.10290582801413,85.84663861628226,79.98743349430691,63.83501746612954,42.21200774436393,26.815228802005336,25.247370576022455,34.58329857532235,47.16396334152495,55.829601357980465,55.778205228020504,46.71901561518765,32.69661484101302,16.133789107225397,-4.277919097319507,-26.819277891699794,-47.31130510229792,-65.12483239381426,-82.94867064353836,-104.04940907253986,-126.12271244253218,-133.74379713364232,-105.08287047735111,-40.55671961906176,29.03306903240467,75.23692064227194,93.28185165518036,91.04095077843576,75.4364984906697,53.71044949912827,33.18371336735633,22.36357639618107,26.553634180280802,38.601730200219734,47.73828131026742,50.794444492634604,47.21869863650063,36.54458029663063,19.172356427462482,-3.381739161039558,-26.697568688313115,-46.56449665017046,-62.477230425589426,-76.73767100231575,-95.4604899500466,-121.45271224088796,-139.81089832892414,-121.28661154345723,-57.552419406671234,18.594199704730336,68.43146639345265,85.87729650391577,85.70224595340791,74.51816369880407,54.18555951541807,32.53485661681246,20.010545401954786,22.187609472998176,36.47197899851074,53.63863429882102,62.69688702233019,58.64104132465687,44.596102981960854,25.572995293289715,3.0674125667923042,-21.553822213459412,-44.979717932134065,-63.81157843046537,-80.46854922485744,-103.5435313302226,-130.2780857442314,-136.54214015685054,-99.5847702959652,-29.098935789556357,37.9115547419846,74.30227020772394,82.14976719219462,75.70153362135753,62.157961146375996,43.54562774180159,26.60975708955425,21.431018034502674,30.680219017584754,45.95717568721255,56.28109582001045,55.61765207315969,46.23101467450566,31.784357888953195,11.344453005774275,-14.702531956390258,-41.412000215809265,-64.24701434646718,-85.51122771776876,-111.0280133335508,-134.39998566643573,-131.25582204963146,-83.88477778353383,-10.854993810649773,48.26588122256816,74.71243346631414,79.57980392034575,75.82146195640387,62.136189684909425,39.65844516354697,21.87115045626067,18.58251269895753,27.683455303420747,42.57035338495536,54.76011053118536,54.02126144454864,38.950828567343166,19.08507779847827,0.029758141666433896,-20.695724699334967,-44.90922320666181,-70.23991908408962,-95.03985084304715,-120.33841451663194,-136.09934577119012,-119.93232001041922,-64.05107605737876,7.639002096482496,61.36581605225933,83.65944337087048,83.63455776382897,73.0725342992727,55.278779831009835,33.11406265080867,17.90276254633537,20.004302297978114,34.02515831061491,45.729031736812736,49.06464286649598,69.0,123.0,87.0
54.03883748634482,81.54100682843699,86.1490888516369,79.44778869731752,65.20360538026158,45.68039647868986,30.63892382404635,28.158632364414384,37.43858903598791,52.076480511057916,63.60063442381213,65.21772428498389,56.93504907944432,43.1774827744438,25.80404870975755,7.122967156817894,-10.334486313535846,-27.377364624255538,-44.686156905132094,-61.86455660340609,-78.67809043626389,-96.65484872169073,-117.54909567271939,-132.61659234084462,-121.19282469840715,-72.59410738769716,-5.008310804434798,51.084956308281754,80.33413370243608,86.33112730071738,78.98699364636688,63.12410637853268,42.16726885482122,25.94747568817894,22.432548009382838,32.023635424841835,48.06016882710357,60.39441150138542,62.823400014032245,54.652865108575675,39.309655840558584,20.169733720721926,-1.2509761143828722,-21.451736998546643,-39.10925843919236,-56.54135759202604,-72.98516316409653,-86.70887050064412,-104.58944060083549,-129.60008890608813,-139.32876787973052,-106.56071759203499,-38.941166744491234,27.70516388029771,68.16210800307726,83.74865554733013,85.19759552427713,76.33500454736668,57.70169923084396,36.595083496887575,24.89274178228375,27.145218829419203,38.22442791588521,50.3466922042178,56.82500868016611,53.95820517992537,42.97496013131543,28.204645422158585,10.665959821258564,-10.778533627205963,-33.06586625602262,-52.65633674001446,-70.1092573937482,-88.62715981600208,-110.72238602979407,-130.84016103245906,-129.8656735242244,-89.14220862881987,-19.3417715717239,45.44660987753818,83.04613875370327,94.38036940957664,87.60607560836206,69.4591715749062,47.3219393900539,28.65695535765792,22.098267427240028,29.797927048691257,41.821551801872864,49.25572665318716,50.48371564107812,44.85577045725309,32.183372071125234,13.052341346487532,-10.286687909827451,-32.87776942495177,-51.52237320176852,-66.56865909615635,-81.37208868913096,-102.44721846975847,-128.76708043542843,-139.38798210850882,-106.73215697774506,-34.75205241819998,36.6945393695102,76.21715922494897,87.07873566779054,83.58711495325448,69.35732395891125,47.590367510194326,27.58188110236826,19.096325540038862,25.3728523587147,41.660007844777994,57.47195262285358,62.8685366219084,55.33673937613153,39.48833625367683,19.405332825143542,-3.945552935282408,-28.62292048787269,-50.96450189901552,-68.49391712290348,-86.18522570373706,-111.62458778110275,-135.54811473016505,-130.6429563434692,-81.27014400453928,-7.667335262220351,51.99187490022637,78.86162291680748,81.24294110911295,72.4280379617914,57.14315158453381,38.017686401277416,23.552446207303827,22.834454195092565,34.99293176421787,49.86009939660843,57.26331718056155,53.563348148658434,42.55057025666264,26.5740818574734,4.236491773667604,-22.618960263390385,-48.474715620617516,-70.24898268647289,-92.35348310706749,-118.8217098803899,-137.4708897469268,-122.07128369976098,-63.68861627736028,9.15991749371604,59.169161900059194,77.51522768469789,79.21969450886253,73.09546635493965,56.101360057747925,33.367842963294294,19.344503280392786,20.21216539044047,31.702474153009184,46.84197540072123,56.21502014036128,50.82188334870281,33.25619053078862,13.520961246624083,-5.627886776634184,-27.369393954646448,-52.27538344371982,-77.39140235134502,-102.39180816952559,-126.78590206056349,-135.61156874042325,-107.3660968133444,-43.32787916160475,26.138233076374366,70.92456344807343,85.28893309463795,81.3755618078881,68.65809339591671,48.99303371135966,27.350628065863166,16.63331871752684,23.45667315427323,38.165022586787465,47.50742051694213,48.75790830388325,43.68014776782325,30.250867777781217,8.538364739212756,-15.869427084358637,-38.076805326574465,-57.6968791528267,-78.3469366613324,-104.13823169255049,-129.59004498439256,-132.4306224383658,-93.27240164518565,-25.520812985431668,37.305676664037065,74.56747715719166,87.06375444893938,84.39275201304899,72.43596994063927,53.270502609256226,33.97633178997783,26.08058173252093,32.75385449613075,45.96138934408031,55.257525624312805,54.63758006511502,42.98898972628244,24.010445557293096,3.2973638576297364,-16.73890628708784,-37.596441545527824,-59.21053316138511,-81.1516899143028,-107.86929103115685,-137.44637210808744,-146.2331870275882,-108.3306618730409,-35.47730560788679,30.986295074830096,66.98787277992385,78.23246709660063,77.58708806515375,68.10780563447653,50.24752304391458,32.72339792341658,25.047798021258426,29.28115045865032,42.14987392684399,54.75379622159901,55.99268701405495,43.91584484124839,25.28741330593309,5.83870760120267,-13.373804731952717,-34.364181021222244,-56.69020058071694,-76.87786682563723,-95.54661230846042,-117.15115082184151,-135.6883990752566,-125.33808465049222,-71.10803961455025,1.8184087199736885,54.88452784693797,69.0,123.0,87.0
41.946168074321854,53.038305780087896,57.007121779298004,51.433106385700405,38.94474332647289,23.503920555618315,4.829905470794657,-17.351013801512153,-39.054099902615036,-57.806914371074,-75.18134020689486,-94.65557867111168,-117.33418458288276,-133.81945325779932,-122.44006964943891,-70.59072672126044,1.3464546421077093,59.41496033307362,88.6290116601555,93.98867553692904,83.20932290734336,63.15565186615885,41.203216197214516,25.180828305622544,23.127540244120215,33.38560587581554,44.59536165218039,50.262003241125385,49.593430269583244,41.901525941322426,27.275204141061106,6.553961931595182,-17.112606406324467,-38.70269182201602,-56.16706108233095,-70.60397312145952,-86.57568458006168,-110.02175287190039,-134.84763041691912,-135.11543859596364,-88.60807351152354,-12.072312570018827,51.85068304310923,81.54518199068572,87.19420198942532,80.56311415965487,63.51910026135609,41.136555059401594,23.639904042170656,19.46670631019527,29.434456348034082,46.806651622470575,60.38170328016854,61.90501658931132,51.34930178315837,34.05450184013873,12.953021071113943,-11.081114177309145,-35.496975779781906,-56.48876448696369,-73.15277345744724,-92.6761399910246,-119.72713479399043,-138.33489102511334,-120.75562921678213,-60.79710104013167,12.44263481137876,63.128846040278034,81.35951534778431,79.47588874837207,68.62995142345056,51.75385641361876,32.8695855334422,21.71930504570363,25.381272373272946,39.525575234996474,53.09744938436123,57.256055331017144,50.91775114795948,38.4910053234557,20.801889607257777,-3.276202051609138,-30.439046691453633,-55.1334586909888,-76.27120383670865,-99.68009680071366,-126.08618636991008,-137.58101001055502,-109.00261005705198,-42.221179155836765,27.04017933019511,67.24943215716037,78.99761159165439,78.31365342124778,69.38354125407916,49.505326765152276,27.879792919400572,18.136673775846265,22.73500696163356,36.04305184791435,50.64507208674014,56.34359222133864,46.54479251728547,27.448994079677732,8.04941907624071,-11.527389009706047,-34.33813886868766,-59.63399236166381,-84.51519820773383,-109.81170114661346,-132.00153090796857,-131.85928622532276,-91.5850826040027,-22.16400827008548,42.391378127756624,77.8143387419018,85.42967102074928,78.44519193075226,63.638822600953254,42.46777615864505,22.54438650590309,16.957683143498354,27.593174247361524,41.76315816515865,48.58100485073127,47.96563782251911,40.7779988539337,24.645810225190335,1.4792243094657167,-22.62258134952579,-43.91153365727024,-63.32799319767142,-85.2173868592603,-112.21693720539822,-133.98011684416505,-125.5616276434236,-75.20327185996074,-5.51437164194672,51.00448708547448,80.3202960956211,87.46002051485164,81.79940685369394,67.48536812595185,47.191002562263385,30.124251194000863,26.71485540269483,36.40286277678456,49.41418643324446,56.238968204055325,52.323951617268115,38.00293473754684,17.99928263332062,-2.5314773539094735,-22.611011701274435,-43.84894654408118,-65.39933919639498,-88.15884052001338,-116.72526131789236,-143.6181336834566,-140.4815132733286,-89.21034023494795,-13.892090229242761,44.682994013464544,72.11776619821507,78.91785536994816,75.83708056397782,63.584790575521154,44.61959174442833,29.263630003533148,25.111203861144404,32.38158217100157,46.35937831461046,56.61764481347358,53.642440372283474,38.87503106411346,19.614089115670115,0.33119364642581417,-19.177647497439914,-40.82737294571266,-62.847542249148795,-82.23057405803593,-101.3769813531211,-123.6735809559486,-136.96184480217514,-113.8127200927957,-50.06290845607653,20.400057700039564,64.00254645945701,78.88017775613505,80.31810277041346,74.85761254496754,61.12343284645219,44.975008643069344,37.92874494322869,43.015702663649,52.968595545396084,59.62542270663239,59.25116487737252,51.66551777808853,38.90005754603686,23.91671085825199,8.152859283049944,-9.921323108770869,-31.67865749762098,-54.59922682692006,-76.0630256556763,-98.50188524255707,-123.69979870902574,-142.03992498987105,-131.238552467323,-80.01816175279967,-9.06024214748251,47.661838369349205,74.41342614099966,78.7181395678902,74.0348377671315,63.56377411873262,47.01084262394734,34.02125606020346,32.429439683140735,38.1405032617429,46.335380492686014,54.70850254574666,57.15860453308972,48.50946294618446,31.43841316992494,11.493719054650269,-8.239214425809244,-27.300930725052094,-45.69090587118208,-63.26786561650981,-80.60417221758534,-100.80328159266566,-125.08252301008696,-141.97180798645752,-130.2101512860795,-81.58367629406101,-15.014576797507129,39.22126106610303,67.29979224213037,76.5139152512767,76.56106054579642,67.92318971109529,50.25115229827429,33.95926545877177,33.33040254107768,48.954968458076436,66.3948220449277,74.06655542278097,72.69973816905359,69.0,123.0,87.0
-127.22612583700581,-137.94441700512056,-107.05896556400116,-39.16789414597106,30.463648943925755,71.39399826666282,82.20813414183526,77.02825998365086,64.31570594637674,46.14672286043218,28.38179294923689,21.213376644542183,28.847046653774722,43.993449233014026,55.49375265695949,56.32556174288507,47.80252425644167,34.00971160449588,14.4556921306577,-11.061797705067125,-38.02496216266406,-61.43339471701108,-82.5118689568478,-107.39984369466434,-132.18272425816545,-134.14456940158894,-92.47628901487101,-20.587944676569464,42.24148283886722,72.84489065287768,79.55539483837896,76.78059330164639,64.64604035180378,42.72801411405528,23.480261361981498,18.17692909916701,25.985285865790104,40.51960383707134,53.68959894098465,55.07106037445143,41.47263103048213,21.695521707550704,2.580298139846202,-17.72771886609559,-41.537362791694534,-66.91587893772208,-91.69303564217658,-117.10712030849646,-135.3566049259715,-124.53685030012673,-73.1930427639606,-1.491061402472722,56.019444503879555,82.30247487907138,84.41599184407225,74.90527517926448,58.03768175250206,35.98906158817671,19.024657646098937,18.749871149040143,32.006241886851114,44.653999185412296,49.03800773582923,46.66020753266878,37.09009174772426,18.42004450336413,-5.63748794576627,-29.107067225189198,-49.56824162246588,-69.16690833229941,-92.6025575508461,-119.98726190902295,-135.76430798623198,-114.91448063189178,-55.46092901648014,13.246410242488267,62.29535035292293,84.2019322079282,86.83409909465317,78.49861695842223,61.97947450046258,41.36125106774281,27.503523595650528,28.505547422585845,40.32313121893476,52.31302818365048,56.294351425680944,49.10969002313133,32.53849490935067,11.976380322734464,-8.299537463072584,-28.608450831550137,-50.11638469859239,-71.64273207362692,-95.72973463955606,-125.62244870822941,-147.2236676444785,-130.37578590414637,-67.95450139829732,6.06742960851155,55.605819363171584,75.53755123853415,78.86892156885676,73.30191973650982,58.429447223656425,39.32187900338334,26.794644185780857,26.150604736160503,36.08779405632433,50.260709024014446,57.2846264056373,50.27086474688276,33.484512125635185,13.971708725360173,-5.179245567273176,-25.194002811778176,-47.335120892459116,-68.737577305056,-87.54475834251217,-107.57730424988827,-129.59635418057584,-135.01664507147075,-98.59262328149939,-28.472517555086505,36.486426358104566,70.60398085893253,80.11530222629541,79.49208230425897,71.71541472447737,56.16848899263392,41.62402361635622,38.34512940008442,45.81715667072605,55.48394990141696,60.296576830515306,57.74805867536247,48.37634759025272,34.68401594232064,19.458575482860315,3.2796995987699846,-15.860593449889478,-38.37017890326497,-60.93249032354952,-82.2644728130742,-105.6176158372231,-130.55520454911507,-142.9106167630361,-120.29241895297702,-59.95863734417166,9.993118829196709,58.48473501138004,77.27917430564735,77.90726819577546,71.72385499686882,59.1747698981657,42.318272887096796,32.40291346307795,33.635504354199526,40.34034388559286,48.91154477318838,56.37357026124755,55.82415405891648,44.18112333862447,25.770164510748874,5.718723306504797,-13.809078702539177,-32.69144778459915,-50.85563579494575,-68.22005224729702,-85.96235850944345,-107.59417425489852,-131.6228530361249,-142.3534040295338,-119.60466411087407,-62.806933521308764,3.020799654174036,49.97745902394441,71.33255526303417,77.28400525419511,75.09071477824071,63.52672835146739,44.67891205666862,31.77184260766821,36.64219073664411,54.54631014951617,69.78208012586636,74.36849116296041,71.33487696930565,63.83515275958025,49.80990077424904,29.52937004402075,8.807257166445021,-7.1142868878500725,-19.43622339734989,-34.2055403098511,-52.87273892891531,-72.66230611018021,-92.606382240367,-114.59404776755909,-138.3533373366006,-150.99667183056866,-131.69333349885068,-76.1903840615756,-8.866402095471052,40.78680146101552,64.44248503704664,69.9948976575642,66.01155032663891,58.78449252884566,52.1852774135399,47.32164196050802,48.74653294045591,59.198701404930965,70.86045835705448,75.72092558095507,74.09917251960245,68.1178952851695,56.76622652186246,39.022265253801834,19.00138477391464,3.281161545525768,-8.194341178036186,-22.85272260291564,-43.766884730165714,-66.08633625675385,-84.65109987907998,-101.57358119103004,-124.31460850524714,-148.54397594160017,-149.60859902437048,-107.80605824452657,-38.01806141416994,24.175384660364585,58.68700966067783,69.49755403907152,68.90418962460616,65.47377643077701,61.136071212374816,55.32108725811909,50.46596310933711,50.55801248336759,57.49249876396481,68.62344050065427,74.99240550535075,67.92397654583664,50.66846173602612,33.32301026438214,19.94406620400227,6.042316986388321,-12.539054395513219,69.0,123.0,87.0
48.95985428649871,44.771986832312024,32.59108040668833,11.7309221508842,-12.678599677452743,-35.30839516029106,-55.13308672425192,-75.34883067438251,-100.42988818478489,-126.88694525684267,-134.315593400217,-100.79642787042097,-34.97007512022413,30.20492809337096,71.21478577147067,86.48044824043104,85.34262839062305,74.5047747925884,56.07115769132347,36.112216198374306,26.21957904392095,31.24294429251634,44.2333369618373,54.5117591449064,55.38435378264473,45.08511355833507,26.748773217580702,6.014987045712664,-14.064244042309742,-34.7355289462216,-56.351251160608214,-78.0761035825767,-103.91104115125997,-133.97976909219238,-147.4494562994248,-116.13635197763412,-45.72686776908063,23.73164707464911,63.93661289040042,77.62690506410786,78.14855663042228,69.93691587169386,52.86931688894006,34.62542746047647,25.36017695918028,28.100298903728522,40.19283472973404,53.535932240273986,56.686968491736614,46.07287683587488,27.896298099211652,8.390923136540195,-10.758539217416525,-31.427262115150686,-53.774512418706315,-74.36098581723195,-92.96855914488417,-114.09419010273982,-134.21740046388447,-129.31270710061253,-80.3174830186433,-7.427914074982987,49.745880398667985,75.11013542555078,80.60602195465032,78.09956498348342,67.83493371124477,51.287239704937356,39.2985677241463,39.717571664040356,48.7828497543504,57.561466614165184,60.335486723274904,55.66118088427302,44.724512699734134,30.35479486351485,14.944077828835395,-1.8530564372426992,-22.11520732162215,-45.0495659186586,-67.12152877992987,-88.65682658793067,-112.96472048565373,-136.44257421408105,-140.72003084254683,-105.95411693379818,-39.08541982172866,27.080676391762637,66.68565359022655,78.63894269839061,76.62361044108695,68.86875904082613,54.33192925827039,38.27140176447183,31.796673235840057,35.26495833313437,42.68808014236844,51.438768606749015,57.338550790318614,53.50341486938747,39.28936154696605,19.98736700828015,0.0016205337824146927,-19.32777825291761,-38.02137414063126,-55.94885731454375,-73.17851603864038,-91.67221815893947,-114.6961966710238,-137.10018109211862,-139.79386725704848,-105.96514683622352,-43.25496398001344,19.31348250122999,58.47321503378041,74.11524644777178,77.44531253107925,72.81524688138016,58.42573524036414,39.60972693249385,31.195814444482675,41.1289824822879,59.84495290331947,72.19682386620808,74.03862583119319,69.64898858841771,60.568327766053294,44.40353025244807,23.28241039911049,3.6127129293510327,-10.793024824830656,-23.238904320115545,-39.30910574413302,-58.580058049171676,-78.36918055270365,-98.62999272202869,-121.54138997505378,-144.08895480207744,-149.43427511088478,-118.76589165333637,-56.423914211780904,8.144226102409263,50.0826432042239,67.46457254487758,69.52340618345143,64.01196664870585,56.75462818016906,50.50356699257821,46.80107446734243,51.0007527924696,62.94335286677311,73.08276998395786,75.77964394224773,72.80743979234612,65.48794982189425,52.23382051255201,33.15206054403988,13.824617681232153,-0.20314046675274994,-11.783248301192563,-28.365665259458716,-50.37286844631436,-71.92401924094898,-89.38029677707613,-107.33167309819369,-131.95054776443124,-152.54924595718282,-142.01733770674616,-88.99514194846378,-17.85803634027626,37.16716151961978,63.70561290375444,70.0024940666585,67.99642762266268,64.3624302886549,59.56827282494255,53.638343855614046,49.83579044124205,51.86983480767659,60.55381208398545,71.46638398021082,74.45604663329993,63.53494427893096,45.30007341802397,29.127220846765816,16.28499053228962,1.1178720073281059,-18.280908283862185,-35.94461770502269,-49.768882595419804,-64.6502028000955,-82.32781823333477,-101.21927134524786,-123.92661131741633,-145.08731488828857,-141.70248084589608,-96.8837648603587,-27.279251266932576,32.025131031246126,61.8263562267182,67.00972934953595,61.72259531007339,54.836077315228714,47.39875930781545,41.46908878048748,40.980043850600566,49.17982268890758,64.580659069915,76.02110093148872,74.63248424458251,63.1851887131609,49.436540859604214,35.95608990733344,20.499767089303568,3.5333819058229197,-12.777587678937921,-31.911772348568153,-56.25525382556895,-78.67685583508933,-94.96504977394919,-112.29916050348969,-132.85082972979052,-138.39524392836032,-105.83796937636691,-40.8828792649293,22.905960677683815,60.64761078734082,73.72789413940126,73.1914058617622,65.56376017792373,52.504916166925796,37.376290337664734,31.330036501881565,41.179813957344095,58.23048069450964,69.87998874561235,73.9265052037845,70.61749645776011,56.521751747461785,35.058339514918536,15.653261976587862,0.6602504339852191,-16.260484055265145,-37.34343507638646,-57.02510781347274,-72.5392965803296,-87.62415534105801,-108.61899263858298,-132.41555893288051,-136.52461057100962,69.0,123.0,87.0
60.133093352226005,77.98396895190005,80.5260709296192,76.04872802325782,63.34149765841345,46.81418580706764,38.099162010490744,41.8453422690688,51.69565567021721,59.10855596884264,59.73823434308563,53.03830911422879,40.7889268336541,25.958527690651763,10.330272032269466,-7.2975737813887545,-28.620862061613096,-51.62200009730662,-73.23886557162335,-95.32336585033829,-120.35787396463158,-140.75789508203206,-135.06788580502572,-88.73192601960017,-18.339564192003706,41.769086131941506,72.47195606851093,78.88503103078851,74.94458924411785,65.38712834416009,49.30131583932131,35.12537692814161,32.0633729207014,37.18374427237748,45.1619676256296,53.760528133552754,57.43678348397457,50.27234356055298,33.9847538111455,14.17078279743616,-5.652666867873629,-24.79685993502432,-43.28629765171311,-60.97226500814108,-78.22211213293494,-97.81577162229975,-121.8594291248563,-140.92684106135638,-134.001305554261,-89.75264907750227,-23.76210827092018,33.47188416107133,64.92839817039253,75.93640284143312,76.99247995125044,69.67012948616882,52.87133825999821,35.46016808149195,32.28702733472289,46.39112100096505,64.51765856928296,73.67451171043682,73.21458105427975,67.61163160463447,56.66741424707195,38.55093837820426,17.174959060396127,-1.088294303066829,-14.28508555051961,-27.40230271431411,-44.69084103980953,-64.30883199358067,-84.09620222805668,-104.90143104645796,-128.57037637825266,-148.4170254157869,-144.69475209529793,-102.99612692905313,-36.51673963759989,23.085148397681408,57.26152435534786,69.23226533766592,68.42646564850473,61.88804233721724,54.82760055963822,48.9862839306126,46.982572250147726,53.98565126887043,66.49545369484674,74.62582875912742,75.3759608585996,71.1767505700297,62.35315835825611,47.16901955264917,27.25805455816777,9.15590307390676,-3.4414597336951216,-15.853148024862358,-34.37636232696559,-56.924453403373086,-77.3570586413718,-94.12415516366684,-113.77212761037761,-139.39222566906852,-153.8454487474035,-130.5970129776121,-68.60554187893268,0.7782995551525,47.637203000845915,67.02326676662989,69.85116082513571,67.00158603398417,63.15350581071176,57.87805500601709,52.130721480362915,49.71346238575106,53.76812357888024,63.85093692293094,73.6226814711199,72.65354275766269,58.52080295620006,40.16638157931594,25.26314273241157,12.404548884167493,-4.233741112065026,-23.839162037556164,-40.17817064273117,-53.73850799917776,-69.57587341532246,-87.61428317367698,-107.28691069823438,-130.9505888430125,-147.8333680275649,-132.97022142812776,-77.7880654102222,-7.721118872181278,43.81101633740062,65.25316440516313,65.9759268583621,59.767635594911354,52.737393055423205,45.34474423069335,40.619065248678396,42.342149139140226,53.2432254163855,68.87438533456972,77.03072541407688,71.99920934899323,59.19082625998199,45.58137467454729,31.78076751039211,15.603714142401326,-1.212327798586205,-17.76191072609319,-38.566849660223646,-63.34852828801857,-83.84450594039194,-99.47069670702325,-118.30291332790625,-137.23739381784938,-133.40276030810915,-89.1778347174567,-20.746427469163,36.85769896620031,66.45424314581915,74.57123729084309,71.56983653007683,62.335810312153704,47.96712930552954,34.146951861754744,32.64265279495191,46.03797621247691,62.46417550386342,71.72160889165467,73.87641303625357,67.71584391249118,50.662789744572805,28.908144276612223,11.069449221192448,-3.735323996229658,-22.1028143900086,-43.42891767240748,-61.875401003021565,-76.65418583215005,-92.88592912583496,-115.86693916316601,-136.9058399323656,-130.49179429695116,-84.29180248811679,-18.981353342469482,35.14991516503065,63.03985508424677,68.08028138891294,62.73922463010986,53.96410003180303,40.22270994130952,25.58529859261361,22.906836511387734,35.63939239722576,52.99551651251792,62.30152468705347,58.66455010933301,46.34964795319712,32.55908075881294,18.73381948795105,1.3155444030332106,-19.843644388824686,-40.534740693952735,-58.40903954907,-74.48579617454241,-92.21553812716078,-113.54270613846715,-125.08774083167911,-102.46207679960676,-43.31280786117449,21.807051356286422,61.873708154211286,74.49683969385421,73.1814675678748,65.68876920853803,52.426257412774575,36.4074670801052,27.260971475167814,30.0096248323905,39.12547147661576,47.93439662768274,52.28699995599504,47.609321831028616,33.657775764953904,16.779230757374375,-0.4632817546756209,-21.422493849887363,-44.11752673066414,-63.39616256560831,-81.51181438387442,-103.97042779180927,-125.03497995797089,-123.67834854985004,-84.22049943082199,-19.114247136777898,40.49925334555529,72.64945355390202,78.93498449187682,72.61163573243861,60.15367667658592,42.934253572611226,27.266320049024287,23.180963484987945,32.85822967216772,45.36655435147993,69.0,123.0,87.0
72.00443497268019,65.14442932491825,52.11691717470189,32.409676141612366,11.357569636238287,-5.310013949511312,-17.776178443107288,-31.968591679789036,-50.26287325469584,-70.02963335826138,-89.89240205111423,-111.46791917126971,-135.3903758947498,-150.75018306932077,-136.57535688399344,-85.01226552107806,-17.29689207104636,35.73843626026407,62.560284858619845,69.95895517743615,66.85480172776086,59.75132934729689,52.99765306069351,47.75136084655602,47.989634598361306,57.48679544778932,69.61537270688748,75.51423087747365,74.58261449309381,69.17709811894505,58.66269275870657,41.66750696926738,21.53400030631746,5.020887388049074,-6.65573156526485,-20.504439056649783,-40.75053678832822,-63.26705657528741,-82.41692954598773,-99.12055370860239,-120.87007914216397,-145.99132041574467,-151.8008959956806,-115.6892319137059,-47.62348059326053,17.338936065286283,55.70986438299321,68.97214496794511,69.26756309400133,65.96501069811495,61.80824004464933,56.126393442858884,50.906347816629854,50.15513892162385,56.207604100512874,67.1638228201432,74.8215468244426,69.65921786844865,53.17169936750715,35.38967283267747,21.605636524959742,8.153784726752596,-9.88417212744337,-29.061316889539825,-44.14156467942821,-57.95084787229049,-74.68997996848488,-92.9884728926643,-113.78896536799911,-137.53661316478247,-147.812820883209,-120.60288032088431,-57.39859652502021,10.113692659929809,52.94074641682321,66.92629423472918,64.42692294317597,57.789197784975414,50.57411362447747,43.51642346481831,40.305455230456296,44.51989430224455,57.772416470448675,72.48831807916233,76.85443029228311,68.70871744616849,55.18271053584109,41.73324699220752,27.366024882388135,10.658826036256382,-5.88066905339272,-23.137757342204004,-45.6343150386667,-70.01410870238823,-88.52695458425868,-104.32594770203045,-124.47868424004358,-139.69710332813162,-124.77263846729184,-70.35310951767694,-1.6654312392091999,48.29308424597392,70.4620147160857,74.52731712108704,69.46052933116944,58.6451333512686,43.414196004381594,32.01530190598041,35.317566228932684,51.129537428925275,66.00559757666737,72.99755591767826,73.15413385306186,63.825803025196365,44.39139210282068,23.162864846762712,6.786020461190547,-8.492310147193855,-28.234090903941897,-49.228781551555834,-66.38033025855496,-80.87681842751006,-98.80705092863418,-123.1021881894483,-139.00986760346385,-120.87364736248007,-65.91750859328661,-1.1494158084241441,46.06373901248351,66.33306478419944,67.08870164085045,60.5405832968016,50.57698604644776,35.55744148537656,23.09947893380599,25.296421866662445,40.81698721731064,56.920308012161705,62.5357532281359,55.65316780616062,42.29180239459465,28.704611350583782,14.198255501972625,-4.567018126273667,-26.053005406946276,-45.98980138681511,-63.135161540256846,-79.2320176412969,-98.18865784426276,-118.9922135870356,-122.86644145196944,-88.24641268117561,-23.35535593435094,36.6432463330931,67.79716632450568,74.99955147576927,71.56971278579222,62.456164719023725,47.73411817545877,32.617017204542705,26.933352238692276,32.349807892074296,41.90107816170792,49.84306477447112,52.03246707580214,44.31555054873801,28.7948287780912,11.959751364285001,-6.050004527859083,-28.087053197246835,-50.11693794028287,-68.45110584975346,-87.47633187721271,-110.9201663535089,-128.01616973406792,-116.2380479964916,-66.78439687850931,0.036102517340950824,52.984021206673404,76.5498276983665,77.91305469610204,69.59283433297166,55.52969669303136,37.7960146809918,24.541535343906162,24.84234626591591,36.84632795135148,47.58711341068866,48.43258230344143,42.19946180984293,31.954791088530502,15.557585602371239,-7.04790480600732,-29.726171117770495,-45.5974107646709,-57.389491231349886,-73.53496527793745,-96.5291738490442,-117.06359666635626,-113.33680711543809,-70.77543116304997,-6.377091964870168,43.90015041160587,64.63979343497626,66.06339644962657,59.73077514067384,50.65053670012444,40.27687473517588,31.32871007689496,29.004066143302545,35.0173104831623,45.31506118406929,53.97181479078597,54.62951122529809,43.31152677907962,22.862465012102074,2.087508524280336,-15.768136453832312,-35.639853743029306,-57.4902749415718,-76.67158545526564,-95.72495927123381,-117.1750440183691,-128.07652222539755,-107.63076811619868,-54.01583114491447,9.487636306055583,54.29721059260234,70.79448288224069,70.0557952519323,62.075951830408506,49.138076963118436,35.91498627261125,30.41499044725382,37.962603896154036,53.781376209945506,63.38412781702997,57.823203655970005,44.17672230065565,32.71903829572876,21.333380713587104,3.8626386263324197,-17.91135958206939,-39.53898717525459,-58.27434737942238,-73.92420114427446,-91.42315264743664,-114.21361567118005,-131.16683347581605,-117.62159807249232,69.0,123.0,87.0
-15.645122554125921,-33.86911738563501,-47.98836994779387,-62.466387695571235,-79.90565086657254,-98.55353613754494,-120.67411144336093,-143.0771349456951,-144.46777220836927,-104.99584300165336,-36.6811612823264,25.694845858377267,59.55560306353895,67.22767181453287,62.6063429581245,55.780121547039144,48.390273336922064,42.02084044129053,40.608391849874764,47.52888471807943,62.4612476703651,75.15903785397852,75.56373907451894,64.9876977492071,51.23251409386644,37.812247821545355,22.71264791526111,5.75911254781612,-10.569791864759662,-29.017509469099565,-52.90617931724561,-76.09095415044617,-92.94458840055636,-109.66710804716973,-130.3828601402567,-139.52632572395444,-112.57207643869707,-50.283726390668214,15.655096116831135,57.276932457425346,72.98537748272615,73.75641367278314,66.8971964600638,54.52421923570342,39.15063371542451,31.214184788700035,39.128730384431805,56.08143116816693,68.81812853111498,73.75439596182416,71.62694189202104,59.011873805366754,37.984413098080026,17.90946578454589,2.6088455976672345,-13.702646435092046,-34.478052807282296,-54.657337411561755,-70.63128106250427,-85.39240182923508,-105.39253717876397,-129.7449397519386,-138.09336343434228,-107.94804142857875,-46.7445403353572,15.087143329862544,54.61180684529991,67.9639542813047,65.55608524463786,58.11007394526884,46.68344930540999,31.060728976490147,21.950660925569707,28.878583178293713,46.02572887981277,59.90429424000998,61.67001775907298,52.09706818147277,38.274257013999424,24.793144847195116,9.264642039224187,-10.698564590000075,-32.10438438950255,-51.1955698546671,-67.75526004126097,-84.23332834781559,-104.4625166753099,-123.06986064143135,-117.2007605379892,-71.29294511435594,-3.9014491669634612,48.84233923544769,71.67858410820945,74.6897934237061,69.51810352612198,58.71420902767534,42.96169222936847,29.68335524971244,27.599197856876835,35.013204661599374,44.529403394158365,51.285312071884036,50.899952004924366,40.329584921410145,23.880603260738575,7.071769763497862,-12.041976904278252,-34.747305645541914,-55.737664070806886,-73.56237953097778,-93.91729049155654,-117.4415875093371,-128.4900823511389,-105.42869618573039,-47.82291835104569,17.909467735467494,62.84298404037303,78.56826636100891,76.16233355100726,66.10458457346508,50.54749902752039,33.01743069523785,23.02974317279343,27.5706718225193,40.69222942399701,48.88570924593464,47.10664621557357,39.69334840908858,27.956881086905085,9.509229966829597,-13.9887342399286,-35.116508458328966,-49.042223636716386,-61.31753831314285,-79.62129650464082,-103.50365817941159,-119.54157792774002,-104.96039681333826,-52.84356570624564,10.943195401227138,52.74401105763058,66.39292969335322,64.70401354545223,57.2933135451312,47.73389061467093,37.32862161430276,29.77403357883475,29.987273118386398,37.80162901664306,48.26707916533712,55.24182261955235,52.63024355248857,37.9920098679832,16.53632843879219,-3.218458344457857,-21.102482924142624,-41.9989771027479,-63.36333230785647,-81.91602120901793,-101.88566749016205,-122.40476948644782,-126.02246069196718,-94.8819225439253,-35.29183822710411,25.296102038109144,61.714290505472746,71.70868900824328,68.3346791370988,58.74635499008264,45.01354819296651,33.18272079999923,31.218633480021246,42.226326097986686,57.860734920121345,63.304754329245114,54.11911002925243,40.470341037472124,29.787564824638196,16.987193075240743,-2.214120674573393,-24.318143000645843,-45.34172052917876,-62.9828637217593,-78.49918900726483,-97.58172905943881,-120.69875664307673,-131.42877119213375,-105.625630433627,-42.29509405202964,26.22986826832245,66.39318369959484,73.61401689624975,65.99050946377477,57.49016399549599,46.9515919218738,33.76242511105547,27.53800061074282,35.69914540184203,51.05529734462732,59.4029967815218,57.051426256247176,50.019376451977,40.476138726233415,25.022459823060025,5.782866114607309,-12.259056216771137,-31.398789120405194,-53.087504516893425,-70.72678527289713,-82.20252897658374,-96.56136116286488,-117.64712538939693,-126.69486595624325,-99.11620704351668,-38.123019718842045,23.744583976261985,59.39805493540806,69.88552981854934,68.87153099194515,61.28487786021823,47.554839030783945,35.72841294312717,33.98907046009979,41.016144972975944,51.706902281406684,61.94293414417696,66.11857759852346,59.62114465908461,43.33915152203717,23.044433431292024,4.2453407147089175,-11.691367560860511,-28.95549962760177,-50.402081438212726,-71.1874292344412,-87.03454975649721,-103.5883920196907,-124.43674179646632,-133.9730803972191,-108.21965249466773,-47.573469667625815,17.9473604664609,60.711078537702875,75.94838790356697,73.53298588536155,62.24849655010163,44.8988545538054,28.349403123724752,25.02622826061753,38.26862765456403,69.0,123.0,87.0
-133.7243598604099,-92.25801930331286,-27.59519194323922,29.330105383091226,60.873445904692396,68.2804454340167,63.68341326252253,55.36503805629248,42.336245090009456,27.114153300650216,22.266904446741066,33.3623430636628,50.92538245955619,61.80785478124787,59.812623597767015,48.20433112769724,34.344617706769114,20.70783590943896,3.91467210338009,-16.953910386399457,-37.93256183839534,-56.177565704107394,-72.3490429642045,-89.59974055212338,-110.75574483130512,-125.06124814231573,-107.92673493809632,-52.407560369122265,14.154381489122017,58.354333982088654,73.91361528143983,73.77296479355594,67.00866775943052,54.5011588000915,38.377185101523025,27.774329579503547,29.095676034016503,37.822046175565674,46.92837159366943,52.133267985318376,48.85326633648249,35.84029707272722,19.006863637777712,1.9845527131232157,-18.398819294615738,-41.22866847772894,-61.03271697029598,-78.91691647424805,-100.74763441851194,-122.98217067024763,-125.95621626137876,-91.53288620662296,-28.171386740126874,33.89454489756143,70.1155332948153,79.09341215592782,73.84579818265708,62.13969064131075,45.34976180159365,28.88113903384318,22.83012314170371,31.07721225990221,44.05456934390921,49.27571601383955,45.34638828391714,36.85799502520306,23.36580914142845,2.9934420446621623,-20.71810201037668,-39.818531058225396,-52.33662734277292,-65.80740718680276,-86.25659941049656,-109.91278087516977,-119.35469209123356,-93.19686103784208,-33.86963539819217,26.193971756833992,59.10850862481983,66.91222072947279,62.90585940193678,54.694265199799865,44.72461594053304,34.60359658774362,28.909398317231215,31.638735586617763,40.80953349248357,50.932145047443655,55.688494610523904,49.5713976553741,32.07014786835253,10.423196316262384,-8.321517188373914,-26.76337347978277,-48.40312887946163,-68.9279930165797,-87.31036507602747,-108.22963416240381,-126.2382592662199,-120.87825284534217,-79.60823611517591,-16.496313810831612,38.90806603094257,66.81157028632386,71.574887664041,66.13306978329545,55.03023782977116,41.03464028561954,31.303008435114034,33.18873164359344,46.93269519717123,61.01095926771891,61.885106397201156,50.06788316719598,37.121518293662895,26.662374530378678,12.039290974688047,-8.52406283743695,-30.627085195966856,-50.84030262491129,-67.47372874018069,-83.40031730397223,-104.20506204132708,-126.22584221412599,-128.47408848917058,-90.23389882735798,-21.1900199191171,41.58847956923408,71.27834567890872,72.01952883967446,63.460021587114056,54.87115545179116,43.13859867363421,30.719375146501076,28.429864850022902,40.065913219277654,54.64152531825597,59.624575777597954,55.233824233965635,47.652011223130714,36.704420835843656,19.554745772438558,0.4052057457114944,-17.45899894980756,-37.59040507971034,-58.92764430160033,-74.42512300664187,-85.56461812358626,-102.34001116023417,-122.79939848129386,-123.07679374117032,-83.82400367599742,-18.686829734624983,37.21291137791749,64.39750727074416,70.31438093782742,67.40356854743818,57.757405661625626,43.44120959162203,34.07016295060453,35.36011755410369,43.91031610049352,54.922381436766386,64.04337158572159,65.42533750367099,55.71901752044013,37.59825127395074,17.290424771900923,-0.550683661650339,-16.299186160429688,-34.79602155194793,-56.812051499000965,-76.20108115494222,-91.35144054379107,-109.43537624058466,-129.53208832099858,-130.84077754143442,-93.31793830145969,-27.5603219062339,33.28567812979379,67.64196768881867,76.53495295377502,71.00642656363615,57.72658795921652,39.50202803802988,25.563161965583195,27.466234253888526,43.607373715794324,58.94100711529253,63.20224599762034,60.48268483952056,56.32697573847984,47.14209761722725,29.120366554507825,6.374433045969865,-14.955130232985999,-33.776628855543585,-50.904186849726706,-67.5354140434785,-86.3184009404616,-106.82935131131445,-125.54309288441492,-130.98475290970958,-104.43187466093525,-43.15787231550861,24.569979414802035,65.16177706145685,74.85680415893748,70.4607967317991,59.216107460079286,41.99370686623514,27.71136320469718,26.499088860036647,36.893656167920476,49.924942761944834,60.148593418388536,64.86302756899869,61.26314838375146,48.29077996610785,27.735410199121024,7.011600491639772,-7.001881145714334,-20.27663121621125,-39.32205351002698,-59.03559642043409,-77.19883425268694,-100.19526720833777,-125.52545429708428,-131.06395742876754,-96.09045255813415,-30.700130122727924,30.713535790906494,64.34124083888281,72.49988756937147,67.06393158470705,54.39786876967664,39.01848884128481,27.514534936068998,24.633466194135245,30.991689738015836,42.913657257122836,52.7750049993683,54.92729137749216,48.30061135904901,34.87977576266341,16.22095420918769,-7.500627623651319,-31.28971461697971,-50.33096452671021,-65.90059591081477,69.0,123.0,87.0
46.67477003746934,48.857156277530926,43.25807518365305,33.61335701193606,18.160044398130697,-3.841606415758206,-27.01652062600544,-43.892242881658106,-55.72872005632662,-70.94296987676498,-93.25586852354766,-115.18768377509016,-116.02128624417004,-78.42689968127239,-14.870511365391929,38.92983074485801,63.31854069187611,66.49930771734576,60.789210230305905,51.95613171244594,41.674624257680165,32.248644516881825,28.798000297134596,33.84733865727026,43.901131189111126,53.147138137679065,55.19655910313655,45.49984579893837,25.79919389417928,4.636904663645528,-13.391454345868846,-32.77081853055125,-54.67895212603457,-74.25724033239923,-92.99074569064041,-114.4595020956669,-128.0656165153877,-112.53247523611986,-62.404125486093484,1.5890209746756092,50.03351867246181,69.92167489946736,70.67504158314775,63.462893334187754,51.03433898577342,37.409094031138935,30.438244077842832,36.2399603732015,51.68818701673286,62.94846457528388,59.31624284144039,45.99265704074033,34.06901797319907,23.136562354047104,6.5478134916792134,-14.943379857678822,-36.77556101321808,-56.004842592827096,-71.87827595872592,-88.76741284225211,-111.06832352071548,-130.11750907531936,-121.91104055928595,-72.05538240662868,-0.6958369229294914,53.95137238136461,73.63698274529273,69.74063557617883,61.02973419446292,51.93489935271767,39.19446422834861,28.575660906139266,30.60137282841183,44.69019799963005,57.319709678742996,59.020775038927454,53.209067780033635,45.0304751190696,32.344150744020276,13.92941531104164,-4.797868110887852,-22.890176840359864,-43.942852462808766,-64.20621327880056,-77.68453993034028,-89.47921606926971,-108.61066366863032,-126.2398461354002,-115.90563228384885,-66.20454249954257,-0.15304010152707348,48.07750894021435,67.59856425678339,70.10351165354349,65.36861639473776,53.766338047350764,39.77631255868109,33.37558140137065,37.33604805974855,47.0024964289978,57.99855933977085,65.48008912421608,63.76201283192443,51.08885285695158,31.68845645061312,11.77425561476724,-5.131779332657057,-21.16731190155481,-40.99349937306021,-62.96674699418431,-80.77856624228889,-95.96905671024686,-115.61303246807658,-133.06723102870058,-124.228835652329,-75.88455293491927,-8.063601017191857,46.248204519129246,72.38191157883524,75.96138868731138,67.86987873063885,52.73327142364694,34.43428631471543,24.200790202108315,31.20055899326205,48.84035502693696,61.35542149189188,62.751987146835674,59.425381951741294,54.48801287512313,42.79628581751894,22.717944841079845,-0.09806946416901549,-20.584938037743964,-38.901538144142314,-55.62179220157985,-72.6930407225165,-92.1559990804691,-112.706794157473,-129.2890358505082,-127.28516975517695,-89.57276224919849,-22.47910846273018,39.95723645877147,70.46498393268438,74.39966260134294,67.94224529196514,54.639591952493866,36.99593879263976,25.815433232300663,28.688499044225534,40.73494556975607,53.29199767954517,62.2040784798037,64.77472094318631,58.46311900441729,42.93448662750196,21.301784454000778,2.2809995667737417,-10.417655518725013,-25.252147921933734,-45.26297255226405,-64.22925702059854,-83.09833055795569,-107.92771477419777,-130.42177901580803,-125.38810760278912,-78.98962840116546,-11.006826812617003,43.61654027348101,68.75820487691298,71.92352283875832,63.98124351126767,49.96914819502274,35.00480941153813,25.70070983386022,25.586868720460416,34.160557805181185,46.319723861302194,54.306389025389,53.87446718577156,44.991382814148885,30.04970647795353,9.779936534818548,-14.686841375326471,-37.315303682016335,-55.04703038259916,-70.21701586369804,-86.50015930009017,-106.27622152610373,-121.09485494621262,-110.61489095333287,-64.24417660641001,0.4186849967846384,51.30022383472646,70.10273280809432,65.33712556700753,55.41969854877792,45.928890113434356,32.98561461080621,21.852584720535326,23.021599219026623,34.434845854281264,45.32298634700115,50.549010603542726,48.02848836730314,36.49583798695036,20.788926403063343,5.6240530183499455,-11.107669418769616,-29.494315855244462,-46.0656004957877,-63.15878824602212,-84.76638436460726,-103.88517003384676,-101.72939162274132,-65.89222236841177,-9.981768917529493,37.03898574285688,60.08219764948029,63.975580568083814,56.402824862550275,42.39353595222181,28.26619172208971,18.725115433294437,16.153425263346527,21.090146486726912,30.488953146697884,37.048194569220456,35.436351212284855,26.425872962657007,12.160591021547598,-5.113124789242684,-22.48143472648424,-37.55025235575618,-52.42237750548079,-72.28595652004098,-91.34855041587548,-89.75307740957268,-54.9975209254722,-0.525029281319485,44.57072513609276,62.49704975539134,59.58517281140399,49.79761456132082,37.38372852918131,22.08746016659188,9.084891058405397,6.6302428690575335,14.475063874764354,69.0,123.0,87.0
-111.60422004561028,-51.943172480431535,18.241968007448428,63.17656652998627,73.97966630161284,67.18401433064118,58.62657488655053,48.61127114161731,35.38623118242981,27.5721290326663,33.885767833448284,49.155899256797504,58.980850531091264,57.781364599961414,51.0541810876116,42.0255692889169,27.437292085813475,8.323792072757769,-9.903415318595194,-28.63769929207438,-50.25507127375055,-68.82290490405569,-80.7615190188818,-94.1412267187587,-114.90732138048497,-127.23492339203925,-105.1833821384071,-47.13508943639363,16.70230182849318,56.37770097396459,69.41177820048595,69.37380362481876,62.7172540166534,49.522427738380806,36.809572107447416,33.60203296870491,39.77272148106135,50.21171645120738,60.79270346607876,66.12067939884668,61.138741599042994,45.88522199778212,25.753814506821687,6.550716412358725,-9.616355718933544,-26.40216212145898,-47.4156538653041,-68.70692785191075,-85.08166569344834,-101.06006480387992,-121.75759765035029,-134.33269869014592,-114.05837643517309,-56.731142625145374,10.151277401934577,56.71802570547323,75.20594247891876,74.47468206045943,64.1527190370972,47.40822186207096,30.046554449703024,24.40192683786003,35.89432856422168,53.56567410376771,62.740576248028205,61.942098252823214,58.30763063352819,52.04915541845524,37.69339069173693,16.09168296604631,-6.326142131539601,-26.04495087510432,-43.877766670293255,-60.36629347956391,-78.07862449755216,-98.09684157851166,-118.32539786063961,-131.52672666582922,-120.43118352359755,-72.04138817002253,-2.2379309594427403,52.41248700784547,73.48103565655019,73.20266903679989,64.84920182376122,49.624005591910866,32.56124448204679,25.19467305681637,31.665854933394247,44.57475657380949,56.34991275423477,63.73438147668455,63.925173110432624,54.87977887087146,37.01505324319915,15.117130241863412,-1.807912518216935,-14.066074446304341,-30.744464039921294,-51.04721248594925,-69.36243795034194,-89.60359324491495,-115.60870382695865,-132.94216984693392,-116.00013637653697,-59.97283530620157,7.41660712516171,53.88115728617493,71.33541362449652,70.47339232132418,60.38420283945697,45.44324538325397,31.491275597777857,24.676897450264722,27.297149315853336,37.653380974534336,49.344872671401404,55.10980005931645,52.09533974769877,41.194324701657806,24.778793022466242,2.93682057797521,-21.69017549599171,-42.89027151722053,-59.547929473238845,-74.6214321872773,-91.930123595061,-111.84574756448352,-121.57885714100316,-100.66656108865376,-46.05202483113221,17.827051893547804,60.11995202424872,70.27122629838654,62.40717836594769,52.807184501239135,42.58032269855938,29.04335423625481,20.68748808979962,25.746762019517718,38.00896511264085,47.491681768576136,50.736351901406266,45.54194819217706,32.050593417307944,16.35824176434592,1.0800987632206285,-16.413822552058075,-34.52885285937952,-50.67727688386089,-68.96579572844308,-91.23490726126337,-106.34896059196167,-94.78641712767202,-50.54937377316408,5.648003953425312,46.19700018593284,62.75142887178679,62.74458094957786,52.75823546796883,38.05101261488838,24.91041126034284,17.19223630988431,16.859218171983596,23.60678413954215,33.033984206480746,37.47198535589732,33.48806545622288,22.757904242909657,7.361532414472174,-10.261694963375867,-27.104944099909954,-41.60442364790819,-57.569145315274014,-78.59340167508032,-93.9535329304762,-83.04124574561699,-40.08019058914184,14.696130619363478,52.67021124238174,63.09463429818843,57.05971397960628,46.523771276697516,33.17157995039363,17.70285121125067,7.042335461073527,8.204343182773076,17.187915670325815,22.98842232475906,21.353503184367092,14.33788026655017,4.688536862232283,-8.1573675506145,-24.87779854609349,-41.82836027069979,-57.244597932243465,-75.13136291827774,-90.03148471309822,-81.3311508257165,-40.889562810934564,10.584650517944615,46.437268790001916,58.116261855108775,55.215052515961204,48.2660874503397,38.41262706765028,24.686824066431313,12.576148985929905,10.154080210477394,17.642496420243884,26.23604900937493,27.736794195353937,20.828236480598065,9.395225558139108,-3.0805700763056,-17.146687654722864,-33.79604710310601,-52.81480761684311,-75.03491596111384,-90.06504739564622,-76.77003486496305,-31.55835523231416,20.40622786183508,51.91425652662131,60.133693662880596,56.53354282471302,48.777032269793544,39.592740243604005,29.50929869613037,19.646653752114194,14.628943899883037,18.38467161487235,26.133850653165922,27.31396769920008,18.579897425522244,4.205640484115703,-11.069842966418245,-24.592997215469367,-38.48707353237814,-57.35971703965134,-81.2541685934135,-98.2514500648899,-90.1189965152096,-52.3460806515539,-1.7685014147219047,38.406137187839484,56.42929799154646,58.480222432628935,55.23610398380347,48.79634589613535,69.0,123.0,87.0
41.13262584503461,57.47222952868137,63.226178414091606,60.959432631910616,57.0215396796164,48.87461280776224,31.94555295896575,9.420972743497211,-12.28913744072875,-31.36702089154683,-48.712293192857175,-65.23117668951146,-83.67610670260815,-104.07939724724635,-123.44278557872006,-131.72610123412878,-110.24295455753297,-52.554744809889414,16.59413217860587,61.81728892717654,74.73298206759871,71.44393665428755,61.13657253132731,44.395927887151345,28.99430939023311,25.822526866900247,35.170135694182235,48.28418635392333,59.04453864216713,64.66068357623658,62.28677579948919,50.53697337216553,30.709189815793486,9.423704848576866,-5.423225532726101,-18.18298955356974,-36.57799801428505,-56.575582772308195,-74.6479110726229,-96.73184785580997,-122.66791994322831,-132.44593424539053,-103.09857382630236,-39.9782696497614,23.900397619116887,61.58880165407048,72.4182123414009,68.28953683923321,56.36384579592431,40.99381578082373,28.606450679311582,24.460883751409522,29.689462337026672,41.26664421534408,51.83692021070789,55.15987615087954,49.64055702015513,36.96668925956801,19.033576156614384,-4.177358250495966,-28.35751680576937,-48.06243420257971,-63.91205531460224,-79.22265847789338,-97.67780819361269,-116.63854242190526,-119.3772488909992,-87.69505368322945,-27.042317269065737,33.283776824539586,66.06829878692892,68.92784095671476,59.46218108960634,50.171816667492976,38.85019064972959,25.532221000183604,20.76785543401689,29.093023772503113,41.28818501199503,49.14374677495566,50.20969437649043,42.30380671107986,27.455129183104077,12.011093355171885,-3.692591876228466,-21.78711368632372,-39.33106483478628,-55.48461029513589,-75.2001130152388,-97.18008756195015,-106.49323378827472,-84.9068952182177,-34.157625442123404,19.81325934245496,53.23839207231471,64.06714824355745,60.68833966676882,48.70378775967537,33.863828973034295,22.014393866253425,16.29139131051611,18.180935214012454,26.379865308894832,35.12513332594592,37.154003315761216,30.982267523871055,18.695644320041282,2.3721424981629196,-15.339508297922473,-31.490950253909116,-45.767695842159966,-63.25000505753376,-84.5154269007118,-94.25469251833731,-73.45910341554399,-24.113379534134204,28.377308766672833,58.30221335777142,62.32603795142378,54.24687768956189,43.01628566939384,28.72925161775064,13.711702629409803,6.0745982243216945,10.49042191488423,19.568742390543616,23.2470149408481,19.731116798587,11.767964776546432,1.4016183444813055,-12.678055644777363,-29.961621183668335,-46.307967304165366,-62.039864666353104,-80.50366347519524,-90.84795339527611,-72.45125421201577,-25.798600286986293,23.36747724806288,52.09788165882428,58.164004661553804,53.404105196865636,45.83199630393796,34.7431767293069,20.622578560000672,10.650416811553457,11.582833035619124,20.47596243810193,27.59646201844555,26.48916366020767,17.776682042846662,5.845489264795334,-6.888456094260416,-21.72125404330035,-38.990912392277345,-59.00516892890085,-81.04403384743209,-89.87917254658852,-66.30705628098895,-15.73583530475687,32.253776664179846,56.22368977624821,59.834828715305115,54.54093103057013,46.2185610091235,36.77082377033834,26.501556439117568,17.431506706423413,14.818629949972028,20.678319756083813,27.52080043965765,25.681862886225428,14.777900400731783,-0.2984252396204411,-15.162151577111171,-28.361454529518614,-43.26779481974638,-64.01087122227737,-87.71165664491956,-99.11391109512374,-81.84035523995931,-37.96338686788778,11.76050648185375,45.920165103097375,58.08736582429762,57.82687455639963,53.767601795157844,46.24273247811156,36.554862891720404,28.78151363906552,25.09771853690666,25.542920829083194,27.090245338746314,25.820713240854122,20.578245130017553,10.866424385050772,-3.6772365263766575,-20.263979041535265,-36.11051589931513,-51.02976017158805,-65.69147467039186,-80.30941407124132,-97.21982973025914,-109.5632182764625,-95.57345531114012,-47.81577736891066,8.460338500728627,45.591704566867655,60.86168129849534,65.28820918125379,64.94478551697294,59.43434297490309,49.01415696791515,40.015815897126174,40.05113755204069,47.002751049582486,52.96921204393823,52.571120796764234,45.62262275317446,36.776921480828356,27.787570411305474,13.740347658878251,-6.88381305418194,-26.370092491242897,-41.3025691704214,-55.57371767566685,-70.7004112781569,-88.07100645924811,-107.01009044142683,-111.33782248922094,-82.14364786714563,-29.159530739137306,16.783838186973206,40.43509529282153,48.851854187126186,49.67469930268813,44.60355494523319,35.719691863204154,27.905613373558978,27.64902309834836,35.43955057392726,44.44566091228859,48.55003278478956,47.54468188487698,42.195100902944404,33.4612117751099,21.995117047179654,6.3299180954188765,-10.466933613302636,-23.74655419749201,69.0,123.0,87.0
-68.22240370726165,-84.12147931491633,-103.57915514537063,-120.10514963699116,-114.12110876474584,-72.12826618663895,-8.07578028489184,46.25519539751618,69.36912493013634,66.60387208155358,56.657608855774534,47.34139018718169,34.8558834954835,22.78335859723985,22.06040400812267,32.737068335472436,44.15681811557476,50.24294879859782,48.903705323428674,38.439555223293084,22.87086633578708,7.660661413078929,-8.715702694959523,-27.09871847577811,-43.95811666869425,-60.63759969413079,-81.72506977908124,-102.10638021306687,-103.91194699614367,-72.40244593235427,-17.518729023019514,32.087076198333584,58.328643846444734,64.23738200941654,57.90293765311751,44.40770468119257,29.951571137572305,19.634005199725635,16.045290271902505,20.060060778838395,29.217872630020157,36.60293975479102,36.130242968923326,27.971440093489374,14.290840138433419,-2.737521174090371,-20.272746242770967,-35.67050450425293,-50.223779457159516,-69.37333856928984,-89.51532305301478,-91.8460068060623,-61.32075510119711,-7.879798067991291,40.00119604805014,61.64335329687279,60.60257233013492,51.24157057352147,39.229809227832796,24.176625758145747,10.355404937811066,6.212745084783392,13.185314459752082,21.42427909916038,22.882278494526282,17.738466248489754,9.031866406280463,-2.2117253048619028,-17.502658554826297,-34.930156748485025,-50.69313081695331,-67.17719075734396,-85.29687021924113,-89.09681947247579,-61.01548687289216,-10.532009138748046,34.28982868419925,55.76364838734784,57.34808681646223,51.43004376550258,43.090205175059516,30.765209551440023,16.903601072838725,9.71126365066627,13.72693489344345,23.131907361476568,28.219281570192518,24.58017038953002,14.471835664292763,2.2627269892587907,-10.886955224708274,-26.50264731601131,-44.394969425643524,-65.49031520910383,-85.99704394712232,-86.79867957109673,-53.40042317576184,-0.19708094946299592,41.89289807307725,58.796810559846016,58.84447349801671,52.31632979684252,43.579147181707,33.868737751071535,23.564108791145788,15.775230178725518,15.790187120698835,23.077175583050778,28.099667158231675,23.262977148613075,10.635073325504,-4.768531222433507,-19.077681617194877,-32.265831933152974,-48.57737024624788,-71.00782391879108,-93.16038639374852,-97.44202874332319,-71.20374477088376,-23.093934511596686,23.885854026781693,51.47043849685092,58.72825899863049,56.92976443183519,51.99049555685604,43.48320535262406,33.96985645025504,27.25037993606211,24.876635343056066,26.07108629661086,27.13093516383018,24.700865362660906,18.29792916087286,7.084252055836375,-8.416055429791824,-24.984269996626622,-40.46219901465579,-55.30839272617958,-69.83571424150554,-84.92264505235902,-102.06002503799199,-109.17948611881589,-84.63369004823612,-30.872202747838475,21.778924493386672,51.80555335129244,62.81426194098813,65.62862540876483,63.94965590918689,56.78120842081924,45.84188239449409,38.964267589902725,41.69574470502685,49.13926811036559,53.63743579866903,51.07864803848818,43.048742083313904,34.319692857526725,24.514860475957498,8.217180143452342,-12.991880191552145,-31.023896675987505,-45.34238462543773,-59.85763210117115,-75.35490098249167,-93.74321813599077,-110.8519515814082,-106.62158588319973,-67.9933252909559,-13.942442993950026,25.850548205642447,43.93713479217954,49.74775267587713,48.759042157931724,42.282545992330924,33.04375623728849,26.856549517239344,29.28533415609016,38.28738283781742,46.238194589121186,48.71912855267073,46.43753791376423,39.93857898431503,30.491241995075146,17.90415600647893,1.307937207067443,-14.709950843892171,-27.06689554442731,-38.7056441727196,-51.38907997678808,-66.50352086586564,-87.82524946494222,-109.91679538936872,-114.78130914404058,-89.505669648213,-42.46018626537081,4.304260569594532,36.468056967502456,51.96891158394208,55.850098660239006,53.20569745537758,45.773410004588584,37.30933585789363,34.288969673540265,40.04618023068189,51.118448203644995,59.50525464452277,60.436474468544475,55.31460180146758,46.01093114334095,33.933477070413076,20.473026702659528,6.158391572834226,-8.280244266803622,-21.253359488888922,-34.756554114433996,-52.67539375604111,-70.94964815276825,-84.32271107066501,-97.4953151250446,-111.37600374628587,-106.74423636029455,-67.76732712835947,-11.309488372902234,30.99359379425941,47.54566938346481,48.517131544560954,45.20099076789029,40.78628595994939,34.703516002108145,30.039405169883786,32.87828573640607,42.95052383766714,52.534230549653934,56.96863946522364,55.441856046344604,46.32591943791332,33.567664769274344,22.691240596421803,12.24252455744477,0.031000776869926187,-12.938297827701073,-27.855513342874577,-46.15909946337889,-64.02904243498142,-79.39943381459899,-94.68843605280426,-107.66283397831894,-107.17050202797101,-81.96375901110656,69.0,123.0,87.0
15.96357020215608,22.648026748183643,21.952788757829616,15.462086573521471,6.110834703478903,-6.193804709665801,-22.528496355010965,-39.701724187330306,-55.13374867756778,-72.59507029528517,-88.9247601326552,-84.46463984879131,-47.57281691461902,4.173955442989332,43.10693700036002,57.70717710306565,55.972055637408616,49.30662425830241,39.978868319872284,26.611281274647347,13.766760841299307,9.789263537055406,16.34755420230162,25.38437392801736,28.066391684381195,22.11689172181696,11.016754661678426,-1.3731597666756128,-15.115675769876175,-31.457969231500314,-50.08017843535716,-72.06738836814118,-89.27966090622849,-80.63833947978003,-38.71122897770864,14.274113641581215,49.256215362530426,59.971961273978685,57.351673086755724,49.92336033574988,40.867534032334795,30.895745287252055,20.81309962619472,14.81261723582176,17.442083751766344,25.272770753819874,27.773150803396096,20.184194765989652,6.265882259391045,-9.119973142553205,-22.866183499362204,-36.4382884833932,-54.45879137206225,-78.07472060954798,-97.08832959518767,-93.0582963074289,-58.64024116953866,-8.356774286973241,34.26808031476889,55.22686214071056,58.67004844336477,55.8229013397488,49.87914708768389,40.632639656969275,31.637747313581215,26.09275565997957,24.978350844486283,26.58661555934789,26.851131770863123,23.26211037718034,15.604700925215278,2.9209068415942325,-13.23498316863893,-29.590753670478822,-44.76642968517332,-59.56217649939025,-73.9976999928753,-89.811969269864,-106.16770847164553,-105.96162926229829,-71.02939098091763,-14.10545943343276,33.01080241460684,56.39567939661005,64.14549942248246,65.62618455913021,62.47676640418826,53.76135189768205,43.020253872189265,38.805150980724704,43.74252478375759,51.00640854227956,53.67651888510105,49.09998378106769,40.45823050206322,31.82064632534073,20.641728702864782,2.2221310031126325,-18.761191717756365,-35.33447547971256,-49.43953723663602,-64.19930353846443,-80.27931220339231,-99.45167601474868,-112.87553502379163,-98.77180586005892,-52.47524210772141,-0.10427197559013464,32.98253054159431,46.469382344916156,50.10201251806929,47.373715005756985,39.70761249373233,30.616078236869253,26.588530693808973,31.511881265627142,41.02062155883807,47.529548304168806,48.50656734644547,44.96418068062001,37.448226965766814,27.275912963649432,13.421707475729884,-3.6505153294562116,-18.592712574562427,-30.34766410721638,-42.26704404405258,-55.330296874193714,-71.96625270418264,-94.7824101176744,-113.95585838946357,-110.66001594207373,-77.23138031439017,-28.01395627906063,15.372917747144243,42.52571122072817,53.985005595856165,55.6496304669109,51.46670925974982,43.162456845440296,35.61150377113205,35.078205187578526,43.009926960543886,54.172185236369884,60.54697393754944,59.47050165075322,53.000077593967134,42.73429899489893,30.146075204193053,16.41677357440125,1.926325811898322,-12.208951082308408,-24.864187273454558,-39.47696032503898,-58.27877817818026,-75.29700365661601,-87.79998238854942,-101.92265084165923,-113.08488744516298,-98.9305087847272,-51.772926942015324,3.4428175493072364,38.21133839044285,48.79238648386984,47.71397593846769,44.06026209397879,39.181920410062745,32.92526563298474,29.90806387845187,35.315593861565546,46.123549485526155,54.36738885338422,57.23345355051453,53.5619137788368,42.683325609715624,30.16460012904915,19.802652641735303,8.875220793471726,-3.6679953201566504,-16.909208740361393,-32.87777298942076,-51.585693864933056,-68.63927905716069,-83.75785010300037,-99.01527342947611,-109.54446954679685,-102.63058448756965,-70.15502903487322,-21.501184342855097,22.908369730589833,49.30486060916109,57.58660149540016,55.425612768559354,50.590601675851936,43.91957646869308,35.421337561372795,33.43440239477647,41.81516522507633,53.91763790877369,61.60396778374604,61.57980840798185,55.82090698053055,45.83685117452638,30.491813384502183,10.681378074727704,-8.714029081137824,-24.76200012718211,-39.12311646106483,-53.535992597115474,-67.90367139433249,-83.96878244159987,-103.39903288534197,-117.58813439141899,-108.24049901653223,-68.38120864869994,-14.25755555682201,30.527772700242938,54.281077391671,59.6864089479019,54.637347935382195,44.556003705661055,33.07297271335191,25.716624718205203,27.172983298734206,37.601616887046106,51.092015598069835,58.31003206589157,55.06745073095241,45.51924651371826,34.165620899979345,19.627521924606523,0.29487694610960963,-19.576930281697617,-36.01130270689719,-49.961548966229174,-62.29661630638899,-75.90669232310799,-95.47427486204722,-113.93539084677593,-109.64424769552416,-69.22734709651147,-9.135280408840773,38.4677445648312,59.33880103678231,62.61955123668892,58.73127072743953,48.66177100590502,33.34493738899172,23.08453938932344,28.021596121946068,69.0,123.0,87.0
47.451711765273714,37.81324980583287,29.606682610188354,25.322722758528094,25.32616095104651,26.97895329597972,26.225383100826136,21.503416899793216,12.465623938046233,-1.543132376118384,-18.057403055717497,-34.07761600935321,-49.0543002508317,-63.76949701558989,-78.271865613453,-94.88329498653682,-108.92791009249002,-99.5915824936241,-55.44048942835877,1.6867091686766784,42.09645360799716,59.690637295245956,65.01534681987289,65.25349934786436,60.506957967546946,50.52447251705865,40.790020418921344,39.48846646172277,45.97113856448079,52.46595115955994,53.06545210525536,46.772128349846966,37.922429653420906,29.136048325930712,16.078209099394215,-4.006254173615095,-24.078576046591888,-39.44027578645346,-53.620024830000965,-68.62010294785969,-85.5363055119857,-104.80542427214397,-112.47506754347135,-87.98358773263116,-36.46579335227078,11.917446922373035,38.41768802456307,48.2467079679785,49.92882966664013,45.56484159992573,36.98632467219104,28.626257887897435,27.13330281488524,34.14575232766166,43.458823229224,48.33272881145501,47.93157828707658,43.142273815122145,34.76214568704302,23.74645135427211,8.617875936959559,-8.388586446806258,-22.171949206844427,-33.67495409204552,-45.90826618992115,-59.55035872796729,-78.04517095177437,-101.51079074204102,-116.0389400514997,-103.85463448204136,-63.58783810933377,-14.15209275422557,25.01943476258801,47.23294951151416,55.20457550297612,54.982692077357285,49.353697501368096,40.600647763195,34.53658555443131,36.61877781377179,46.27072566758449,56.779317570393346,60.93238469676531,58.065438722229985,50.366878723452466,39.26573653054258,26.270763845867748,12.290866161104871,-2.283720406777605,-15.971998112817914,-28.640678122083635,-44.6251909411373,-63.7082755370723,-79.17732889641611,-91.49114930912748,-106.268454131919,-112.56886025722828,-88.09842183009486,-35.08694198803285,16.28669448744377,43.298947790577934,49.106843837340485,46.752029262707566,42.82912218574937,37.41987947881136,31.407733350302067,30.546013780870222,38.246628097791906,49.027366350146735,55.74632946634961,56.96263987704992,51.01896531957245,38.919401630230425,27.002776426674515,16.842063016884268,5.353656649453123,-7.391227475507783,-21.123187797126477,-38.174582669196894,-56.831777967760914,-73.06624347418547,-88.18040380910156,-103.01127365048796,-109.9435697527317,-95.82237191176259,-56.914199975600546,-7.365668282084792,32.619423696971324,53.301579051561056,57.619408639277005,54.10873179573196,48.97779292611626,41.40672478551825,33.768183484547286,34.95183147941782,45.33770515227131,56.86012048865078,62.365631238678915,60.37630527147172,53.394533823730136,42.004173873283605,25.054904706316524,4.808512195995044,-13.685357540195042,-28.96137025186725,-43.27423374247614,-57.68146830276091,-72.21819542134583,-89.340718083196,-108.78390723391479,-118.0480568594029,-99.52429989326401,-53.09640553758429,0.483545719338046,39.637674854566804,57.39112956596024,58.98140192146538,52.09470891465657,41.176997766175745,30.254810330948178,25.123293307536624,29.40383334386427,41.59358727207328,54.18298167257257,58.381274273036155,52.6727759564348,42.376780153521366,30.449879735154397,14.45181521551646,-5.666528557361931,-24.695492352362944,-40.22767801195606,-53.660551665605205,-65.83891321175906,-80.91092209240996,-101.71336140728023,-116.05665920188682,-101.55878691933628,-52.456954233523994,7.094549429483311,47.121694277717204,61.465491992366466,62.039285933573986,56.54522634334902,44.49844511975588,29.246384828515026,22.80915986184963,32.08532292443527,48.748468839568595,59.068029413054774,58.60569728631935,52.35997218827627,43.24537359657868,28.05315565405298,9.323833911008178,-5.366104289974981,-17.723672161390457,-34.93018564187513,-53.54212096775526,-68.16126446796163,-85.6773464128535,-107.63936901821552,-113.73858380084168,-85.57838947844972,-33.02039258634995,18.178698677326658,49.99299957934662,60.99984267139989,59.68642449675579,50.98037145650376,35.48247301119558,20.985700667338413,17.52143412214616,23.853531367967395,32.152864790763616,37.99150178126603,40.713064204669756,40.69613029506176,34.64337084136284,19.499735746074883,0.10366937870626752,-17.215673482353132,-33.512706039222444,-51.82824727004772,-70.04516975789302,-87.3885136627985,-103.99515104442187,-108.2492511934374,-80.90314962974107,-25.218458418338567,29.366714482065863,60.411494857957294,69.36347495453346,65.50662883702105,53.13085189830659,36.41745369054995,23.273395334217877,19.384230058731205,24.842462306399366,35.2169549287903,44.526677045063344,47.151252703195865,41.635056379325626,30.014566864518358,15.257609139178538,-2.8437591416305006,-23.65703722273271,-40.34276343640609,-50.41539034004289,-62.216914269457966,69.0,123.0,87.0
-25.54742121405062,-37.09472563614226,-49.633090598841015,-64.18796845266728,-84.6545782470428,-107.52709896076387,-115.77296247638473,-94.54635422186352,-49.18685118298772,-1.2474360848830077,33.19415995485769,50.723886878056355,55.77485519880479,53.86728571158045,46.94901317292166,38.262720739786204,34.188528907280684,38.83171938994988,49.61326632256101,58.79681393286627,60.71798364270251,56.266757060863114,47.4452922970045,35.64484445805411,22.31914862824665,8.1038569731451,-6.416283408474488,-19.601890576216192,-32.73227760517498,-50.09384321374357,-68.77351727481282,-82.7338830462092,-95.52245729786249,-110.02135377673514,-109.28674593615449,-74.66243600454618,-18.606951759360545,26.89263885452295,46.558729752234996,48.79909162505444,45.70462501319934,41.46774876468807,35.56226692974241,30.33581931063108,31.97101178033934,41.449152981455626,51.53221688341057,56.68551906070644,56.076120120625795,47.9088290222549,35.21621918044071,24.027306143090364,13.734897949910367,1.7254012940961303,-11.164758384654316,-25.65179999129404,-43.630232827736435,-61.82097098510538,-77.40413294343178,-92.64186792927995,-106.39804842261677,-108.51920222612847,-86.80821086664126,-42.742070944750175,5.887655075605988,40.63059531043718,55.89835656702887,57.01134136885807,52.72140844360165,47.13629883153456,38.815842580015655,32.93304317029509,37.29634935699079,48.943301003105454,59.260045711719535,62.46935835381128,58.775861294194634,50.616982787290624,37.67962404254932,19.31655383530196,-0.8863894147916331,-18.358016645581223,-33.09531548802253,-47.44463581301177,-61.81188200779269,-76.75892073974738,-95.00107794862991,-113.37346187571319,-116.05298227908253,-88.3210989822866,-37.21605019960513,13.907233396150072,46.87933795621539,59.13833468151705,57.60064074467028,49.21715709098039,37.77759952289475,27.93818508478606,25.34774264256223,32.33940810132061,45.632431112604465,56.51691933574235,57.57279234323255,49.915845476621065,39.14676579154413,26.373002258361424,8.883484823823059,-11.508333642524352,-29.48929448056312,-44.288665371157464,-57.22220337770126,-69.61720982081725,-86.51006293448646,-107.50338402047498,-115.65157733101267,-90.35241390222458,-34.769558183720335,21.49952459237889,53.50195070208248,62.4922858035845,61.019046729957495,53.78225761647005,39.988162533931686,25.92230775255089,23.964720914255157,36.804982836734304,52.82359293477298,59.92312469550229,57.11254931982304,50.1250272443574,39.57102082740686,22.64130913597707,4.477079986730931,-8.79340540948531,-22.087977500447362,-40.57622691407161,-58.08225630951836,-72.48439317276066,-92.09937601503368,-112.23015988582408,-109.26148353471547,-71.81339338838866,-17.009865307659695,29.743146467799207,54.99743695354497,61.510423343754894,57.923257532845696,47.0519525287943,30.640002062274014,18.643860209708055,18.69402366881587,26.335965532901476,34.17711132516351,39.06053581136589,41.04162340300804,39.80288336109923,31.146751435160596,13.965890502229085,-5.224387143425273,-21.819296984630412,-38.61439439218186,-57.23070529473211,-75.0650384843565,-92.44891473495274,-107.41787462168129,-104.12489822713269,-66.6889073116599,-7.9072895327995125,41.08312471856767,64.81255452925078,69.273498114333,62.704567787026214,48.43287492689888,31.905235279716926,21.08678432597164,20.13716014644701,27.58569365662352,38.30159307948061,46.13264271588435,46.34873885709618,38.75786401724942,26.00057384678131,10.452501845301128,-8.793318353340153,-29.235460715153152,-43.70471175225151,-53.19812795870075,-67.06537845345399,-88.0803588014584,-107.63050431008986,-108.49021560648515,-76.18460046546114,-19.49058168662349,33.35778148318742,62.66789402156645,69.22934133087395,63.104377900937116,50.89979976824524,36.65864582480835,26.42310833466049,23.177878374606255,27.236889017418363,38.16126389749431,50.30708036835262,53.92372968213556,44.61943598875751,29.052646678267212,15.09291120397877,1.0110024643696034,-16.520518873101697,-34.932232867248466,-50.22579626062849,-61.94404376710676,-76.68882373346358,-97.95558710672638,-109.65327194898823,-91.12956808301331,-44.77344208096747,8.27161633618953,46.85374628425225,61.71220823681073,60.278398701195464,52.18361642589174,39.92488340606681,27.703957461462345,23.111923531811023,26.57780333070723,33.849078195602246,42.284794022179746,46.2331160686844,40.54528854387095,27.94855327668581,13.777737563034535,-0.9621217984685678,-17.287620902499985,-33.842088462091375,-47.99158597772842,-58.40724538715757,-69.07277466580447,-87.27859456168403,-107.74194482475639,-106.83080264694391,-68.73568232361886,-10.86059665980135,35.703117311084156,58.034645575847065,62.7457262031439,60.32161512982801,53.314445959213344,39.807620916014805,69.0,123.0,87.0
-75.80459523050587,-28.1872995605569,17.880752739027074,46.945151033669426,57.290338407593445,55.98569353898194,51.28264146901731,45.002498887682236,36.39804780528835,33.04986324863739,40.28265685928886,52.41564449800357,61.021436841977895,61.981278501499226,56.828685901154785,47.445416994908804,32.865580113557435,13.415392097955214,-6.314964743056687,-22.78437436535882,-37.2175327163512,-51.6170806439377,-65.96403498234807,-81.61152971935125,-100.77498584377443,-116.65796496684325,-111.3473639157163,-75.04886313667977,-21.37905885977493,25.6974194992441,52.331868228257584,59.737774577655756,55.67785242856258,46.073295197490395,34.50002479581106,26.252503071311743,26.407349912034267,35.84377325478333,49.46438421718997,57.96147208332762,56.00425264949323,46.937838565632255,35.78365557427135,21.862508298355547,3.0395636186846917,-17.10317946917607,-34.00570249496049,-48.205468643301735,-60.69757033859731,-73.80087908332546,-92.58350277541828,-112.26262778909683,-112.27666666002611,-76.41161648951987,-17.064145309670355,33.66738028309121,57.88934085184342,62.72057129611376,59.56198914001271,50.41249464267051,35.39762770701913,23.68409490133697,26.467756536277637,41.78922582076143,56.066301893777876,59.89993714783524,55.31695911736248,47.63008664809473,35.2894743531094,17.11120211650163,0.13977353298685619,-12.21743158389884,-26.996877827542896,-46.102966769479565,-62.256819123561264,-77.3461241223555,-98.73122598861401,-114.79485137465768,-101.68156315136444,-56.55533371872989,-1.7602088940348488,39.39331227736383,58.39897723809519,61.232115729106134,55.56856409881361,42.58023270303074,26.18272772442076,17.410767191574966,20.51031467236487,28.8009583485757,35.934471644313156,39.88433771227056,41.14194369569745,38.26875279201638,26.86991195511336,8.282994264036265,-10.271274647716691,-26.45388456287447,-43.9107792640968,-62.53184080122406,-80.05143260719429,-97.42430749898756,-109.34143196201892,-96.91640539495083,-50.55250431332901,8.454009437358927,50.525430160642415,67.60951797959635,68.30909603054626,59.23512796578228,43.52374235198214,27.901325979487638,19.761359254235142,21.61727644219478,30.60402471463528,41.14238504626895,47.064132452805595,44.87966876355546,35.44555877460012,21.790507697291645,5.310669294512118,-14.892916669770441,-34.24748971357938,-46.57807669061823,-56.40595258704684,-72.58598878032895,-94.51319407311496,-110.67105498691836,-102.74806465232413,-61.2011018494783,-2.5788027747583238,44.563211627205014,66.47766100213904,68.35843833693373,60.04291115078833,46.751842949585544,33.047801420762326,24.759696412998792,23.569436093056773,29.809820098293898,41.95633725925046,52.621756903053594,52.456059951256805,40.290945191065,24.748227622953298,11.279450310398758,-3.7170348968806826,-21.950818338899893,-39.79858654974545,-53.82301418641585,-65.4878282495709,-82.46562894191806,-103.45086670135616,-107.84836965731566,-79.82565689264015,-29.08710360294643,21.637730991913298,53.516310618256476,62.413096190530304,58.417549748997274,49.01219669182882,36.03005205239671,25.378264770463527,23.487755284316744,28.4154182362825,36.3232913276808,44.22172888753486,45.6149492564603,37.33423435643392,23.87985677098198,9.631742920684205,-5.512113189865691,-22.172975817874878,-38.27686430035107,-51.35797000018452,-61.0952974538808,-73.40458188130133,-93.75050714171145,-110.87236996768395,-99.51709158624968,-52.58235380894222,4.8192632215530535,44.58796226541105,60.68918725810346,62.45267276887449,58.91122109109353,49.984648903247,35.48210787299033,25.260967159791303,28.26820994014653,40.805651054672246,51.17556197786951,52.6171243544242,47.977117840018906,39.23633789151511,23.94649884747267,5.094923668564928,-10.908291987459192,-24.993149777614256,-41.17192972619661,-56.47952571335144,-69.78818260636037,-87.1606792091775,-103.96211124698945,-99.17540367552513,-61.587604832289585,-7.48803251063184,36.28953972728272,57.07889891536804,59.12592146673055,51.03387970915525,38.28482986713218,24.31795680526753,14.440878094006889,15.460356358806791,27.29263876530742,40.86395017174224,47.96823069858309,45.28795403406226,33.73984152354778,17.4893627527025,0.9696269358752009,-14.22649285350936,-29.256648416765554,-43.54458821675371,-57.383704997845385,-74.61430864533494,-90.5675999569843,-89.24501011883717,-59.43985024045104,-8.388696551491307,40.58033665631169,66.21795543634387,67.34329876080234,56.329179877715816,40.20577616216865,20.627094215855934,5.23316748577217,3.673515967890722,14.11614577094746,27.367926113336658,36.91365482817725,37.96372610565147,28.375271936534876,11.578787736344037,-7.231631147864224,-23.125195255515028,-35.306241344964796,-48.765289025896706,-68.99503662535494,69.0,123.0,87.0
30.107728822202297,46.64840570657239,58.34970189847043,59.148306923038575,53.32912156371571,44.744223774894536,30.44377866951452,11.709152612675926,-3.7157320112039773,-15.889129659782188,-32.35830260229192,-51.29619736440985,-66.27919678429008,-82.89206172008502,-105.03032895090887,-114.75190298901721,-91.23836548890189,-40.50064240926148,12.246124606082551,47.08693205162707,60.44370518079522,60.30811120477587,52.57913126702345,37.75427354882962,22.41769509350176,17.25978656761241,22.742311571583986,31.139465543291443,37.40779898992371,40.496001665306046,40.9311330328201,35.97620787514964,21.94109005554886,2.6451668305401257,-15.066221434083678,-31.236718665119557,-49.32227213535791,-67.70227889832572,-85.06224752525607,-102.06841155750604,-109.17834767881013,-86.62064641751658,-33.304036332323975,23.223237057389433,57.764074622731506,69.0728095124148,66.56100897401718,55.17224365136385,38.61757115624849,24.55906602632508,19.307147773658627,23.70879759778096,33.75757368300427,43.57915698039216,47.287431494182655,42.790431509492585,31.79106585266286,17.374742977492954,-0.19201952205278705,-20.94517511319118,-38.580077934765534,-49.20713774703678,-60.222757570182104,-78.65482634323388,-100.51962189454437,-111.65487845311488,-93.99318003315706,-44.703759425984316,13.25398416785822,53.52286411511502,68.59366627983718,66.67962839226746,56.56896458982789,42.546479443331755,29.93327311921438,23.688093856137122,24.589973272933847,32.92109131400194,45.64860353208129,53.971642805807,49.906850338047356,35.707216703265516,20.69815321181495,7.312898578142497,-8.758157240635548,-27.343138474130217,-44.31725844049071,-57.16165672765931,-69.53274193052859,-88.74547495512601,-107.52491561579329,-103.132905394534,-66.54714369638677,-13.431094768984886,33.331146662922336,58.14358017886868,62.07581883772534,56.1556766791146,45.498585525917385,32.31751710493871,23.861733626299166,24.436592058486585,30.484106282903525,38.83838589645088,45.58942693849508,44.12491990632882,33.698750488712825,19.78201396521745,5.413767458016946,-10.215612117452006,-27.008518864841676,-42.4527100585058,-54.3931164425002,-63.98904268060113,-78.52962514617178,-100.0808927353302,-111.49006487495858,-88.97617101761584,-35.545817302135994,18.8494483106332,51.398035176952554,62.15131809028612,61.795823869632514,57.05493802618289,46.09794644405886,31.52091992100654,24.67254282666661,31.383818094177716,44.521508128946024,52.517619638402536,51.68025864414159,45.974549662974646,35.52901086749341,18.536007999828612,0.03280099049023749,-14.926499756281775,-29.445220609861718,-45.91565879129771,-60.30389616208903,-74.20348564774856,-92.83132488507042,-105.76319447489023,-91.45813881477852,-46.40412952800145,7.1760843033712955,44.69759285186946,59.18797956588892,57.51696298296278,47.669653823427154,34.20646674285213,20.722008892039597,13.405916857424087,18.0658263815492,31.49822802033809,43.8039219482998,48.244418485680086,42.714912576261284,29.309673438396775,12.596284792421661,-3.5233538370880124,-18.549389887186205,-33.54254151911442,-47.42371793246492,-61.937076715302425,-79.94430641377873,-92.71423645702963,-83.63705515184641,-46.041826936138484,7.160545491027911,50.88059951863818,68.58178861691425,64.89553188034701,52.12980031340991,34.74139513128537,15.217081715080083,3.1735900620227198,5.846192916094382,18.02429127749127,30.716758161377943,38.28658551958482,36.22165650586406,24.033928292398954,6.115203573028283,-12.286334379976282,-26.88296721935676,-38.773538594659904,-53.77916771490152,-76.09924611713103,-98.05298103678254,-97.24510663236069,-61.74266457908053,-8.387786294336918,35.44959439886341,57.43591145289854,62.3444323563581,56.399065796123246,41.036174747717105,21.817372568065597,9.53816182981158,8.714632360111278,15.539716041105228,25.043145237157283,32.55514320495651,32.198042996121785,21.200251884273374,3.3385968920856994,-15.485918045338249,-33.97337316705084,-54.51783263226744,-77.1499711402242,-95.26518699093403,-95.04106737710441,-66.2726380502227,-16.153282253250193,34.29042129137593,66.07188114908391,75.00440447312207,69.79948519027319,59.13671189370396,46.94989498588359,36.32797874254619,30.557653739056573,31.129258637376022,36.29357839884881,41.00561646046484,40.125165739075484,30.086171055187492,11.193929040394382,-11.929538738988368,-33.91516857362378,-52.20996778852102,-69.49677240448909,-93.73835957257154,-123.02588172357355,-133.57381963104513,-102.86527909196421,-41.30096647811735,18.477050548263268,55.037072331670885,66.68108555246653,63.78058638351711,55.76684391507294,43.77236522857315,30.304929931831264,22.75711989068845,25.57518352929888,34.412985568718824,40.526946371655384,40.50628740001604,36.61263373156893,69.0,123.0,87.0
-64.74199306711539,-85.0740570583687,-105.67271186928859,-110.1340248398965,-82.3903094380298,-27.466861314696278,27.464125126751913,60.26614745407432,69.3012156765265,64.35763633951132,52.75178436079114,38.4562167174213,27.39239092242803,23.2024086681323,26.254488795985115,36.44484456293802,48.97271114450609,54.2090181118246,46.45172336063462,31.117798061607598,16.840400548918506,3.0754877519180313,-14.036074090418719,-32.58949599440449,-48.450414115424074,-60.41263133574307,-74.2588447690165,-95.12866699607848,-109.55204412852868,-95.53875680907628,-51.857443270064195,1.651093102013915,43.06873386583206,60.94981039078815,60.979804630068635,53.522201416605206,41.71969792112689,29.022602812162056,23.16948276421735,25.82304276589719,32.7487397967697,41.25395886638882,46.22190830438989,41.83541035391021,29.798809919821927,15.675965690690903,1.0825231485935516,-15.039356438984212,-31.724846076169097,-46.321615130972276,-57.17341808512709,-67.32609749541913,-84.38716621662992,-105.63800266565934,-109.06473391112547,-75.6434361204484,-18.499504385644727,30.87920384218798,56.32632545857999,62.714449722093285,60.85354762912088,54.638415826380246,41.8314792311851,28.24988508610792,25.314968145060767,35.06817143708281,47.745672347957296,53.0569299063425,50.38099524580329,43.597011104923084,31.209823078064655,12.998395586776793,-4.659531986823783,-18.915092209362932,-34.12805084749676,-50.430738663050676,-64.0411790208393,-79.14044890039432,-98.12836949670331,-105.14910250010837,-80.9764277599719,-30.49956773745405,20.360913274906927,51.08709078570109,59.95201180940509,55.252196977172694,44.01190817250096,30.103450530167255,17.633948104098774,13.442058047205773,21.456202416965052,35.57504723685928,46.06126380556654,47.65716938232891,39.469246078865105,24.60689645024057,7.778866237503637,-7.910221002904632,-22.897387778505017,-37.70979456660946,-51.3306192699956,-66.87817724953929,-84.90151701324582,-92.96373203632754,-75.50871460276407,-31.248922012362044,21.857870323544685,58.842777103524966,69.11002920764578,61.76622672177186,47.55998556003611,29.029762604162336,10.445619154309712,2.4472277407655856,8.831460308624848,21.940047028155114,33.64314667210019,38.82559234965296,33.59522066677631,19.21676629894989,0.6097791545174763,-16.981600097329675,-30.381005509912946,-42.50799941780062,-59.478267839689416,-83.3049544806058,-101.18115753621926,-90.31623667786565,-46.87694080137031,6.2158324930154425,44.0488908874618,60.21943309951784,61.64236489566067,52.842363719369814,35.41807290032809,17.148056370388915,8.198034978981026,10.14382850288639,18.20077329798214,27.662521021502325,33.5026568873559,30.059469982777667,16.455031808862294,-2.178537662213164,-20.774609524941813,-39.60528460766751,-60.97889427310113,-83.36041301891795,-97.75356336169642,-89.73232722353126,-53.188471400142966,-0.5965982810257376,45.91778088064969,70.74983619695426,74.47386610270055,67.03729735676563,55.657787186575675,43.55580041984948,34.054569500015646,30.068527378721043,32.33726145760331,37.94572420798245,41.527791167107125,38.2460320990724,25.396853286852817,4.6814418952793595,-18.57945990103455,-39.591877083429644,-56.9995367689813,-75.4839102749782,-102.3648298790959,-129.37517652681444,-129.2218031874928,-86.90342876325383,-22.487590570013225,31.820750754128877,60.64369121489915,66.77050838709239,61.82146936217633,52.73031791997936,39.74473770680744,27.188703360178906,22.51937595761547,27.90762916302362,36.76940347372367,41.09194145021064,39.69659561196214,34.7459720405319,23.101095198375837,2.192600132766027,-21.7473522995917,-41.18732388758372,-55.87101404316152,-72.83108133579219,-97.60215970461253,-118.14092123329866,-108.46416483177008,-63.46873287266554,-7.857251185866757,35.92382098664035,61.22153144879107,69.97041795984427,67.64111625970934,59.64533344195791,49.82798243059302,41.71777859187424,40.105068029798055,47.43354598033203,58.642633798284,65.01668717720906,63.78428463153679,54.95267065789625,37.29135261447997,14.85054691784172,-5.719930823741184,-24.297852903556834,-42.97365595733582,-61.57349962731419,-82.79116977391762,-109.83310017693776,-137.4730427794826,-147.56824026482724,-120.23368959805576,-59.61848733913502,2.7430232763501188,40.36843466805106,53.86627452735925,55.62814338610552,52.67866008962697,46.80119015011511,37.91659689029564,30.28660150261617,34.300685683337065,51.58350529184421,69.7704165151617,75.88326152787025,67.59486240140046,53.16318114288694,38.6130080523503,21.168880463946664,-1.2004311353649155,-24.083255848078906,-43.20827160363726,-59.361655987279455,-75.564592641665,-96.40520670737772,-122.01675888877301,-139.39203613053857,-127.16720805073487,-77.42313497900902,69.0,123.0,87.0
37.451604208419994,25.94355474677099,27.10419488446612,39.00007644893123,50.276753192109815,52.891848878030096,48.79783087599891,40.74087668339665,26.340958156889346,7.537808407183259,-9.000686415673224,-23.025842948333775,-38.9456299512276,-54.640382577859775,-67.90426274282193,-84.55631175250684,-102.46306307405169,-101.74143486895204,-68.1407489664198,-14.6138060099233,31.722193301581896,55.58710173142476,59.60300235236947,52.46463937197322,40.13048878059657,26.09452428777452,15.250509632650221,14.579316176401287,25.380341443270538,39.30728623619538,47.55449232853867,46.22208462985376,35.656678414788736,19.7500761572696,3.08589992221094,-12.237709709816448,-27.255745572043743,-41.732925333416695,-55.40793957507861,-72.13454244734137,-89.05288379869658,-90.97872919722872,-65.00532111883709,-15.660864634999292,35.10214132203181,64.42005433254359,68.16974839751803,58.139341524147746,42.612340512677044,23.248179425132424,6.614107643438052,3.01379391880267,12.368828857596128,25.711610653453235,36.02980616858406,38.45281276674425,30.18107600588263,14.047236743429181,-4.8030625162969836,-21.276997494725535,-33.752316058159295,-46.6664056998453,-65.85555282990124,-90.1127635649079,-101.76187776223475,-80.46272075233834,-31.199349085791084,19.39950097873536,50.74376305097701,61.80687926191805,60.11545689597413,48.5111462630708,29.703282320949572,13.330653647562293,7.810564757699505,12.073653673132874,20.98040121505884,29.99392205917208,33.63749166991077,27.02825765164582,11.289602083209672,-7.647755734136153,-26.06846987441344,-45.47763572789214,-67.57287532533903,-88.95381383277768,-98.31584689451002,-81.90025309576878,-38.700735280700066,14.40876109118134,55.61265857497199,73.60082977915852,73.04261987940606,63.976683583717346,52.11025800953766,40.38281498485654,32.25442891254263,30.127550695159837,33.84217579084974,39.42251211144544,41.465873716152714,35.53626198440572,20.024060998446895,-2.0374470378571794,-25.020676749782233,-44.927919195721834,-61.839427227036126,-82.28512266724802,-111.16521615107159,-133.37139672797286,-121.07130111217258,-69.01655347120135,-4.661674545133298,42.921500056913054,64.29012192152851,65.97618032789369,59.57897865992321,49.32288095142037,35.728565595283555,24.768013655396736,23.189980062729827,30.53961103670288,38.69134424759337,41.14905038458681,38.64354729291394,32.321594533500864,17.88531766554344,-4.822429543864522,-28.010811485227165,-45.70664879677576,-60.13777074432762,-79.2589288443891,-105.0953460341879,-119.37784341132982,-98.35026886079518,-47.17655756737463,6.539280900537165,45.15856127040702,65.23414456288471,70.17723647541797,65.70780883988454,56.862952725747014,47.112099617600116,40.37790831073658,41.36276377895643,50.689874778019565,61.25210795999579,65.40916466649315,62.08156559171929,50.729772189382786,30.94739727594712,8.56391626557199,-11.151815824685952,-29.680404346404647,-48.3277395216864,-67.2218810863099,-90.01059969421273,-118.31970697320125,-143.24741114598493,-143.98612562848382,-105.07560899254881,-40.16971103873911,16.619393141391402,46.197175875100356,55.12576188237136,55.11639323621959,51.281389833905905,44.512949119194325,35.16012661353897,29.861522162601684,38.298161037595,57.43706877383921,73.1378690806964,74.72605982597486,63.616350767003695,48.97115476997712,34.079943585877395,15.115751304843744,-8.035143303083643,-30.0410571037426,-48.070667387692545,-63.85833964493761,-80.92003918047307,-103.6087201976734,-128.80197012358448,-139.7421481887244,-116.24186345647043,-58.485834795097595,6.728415728666642,51.01842464954991,65.99520011060592,63.61436692372516,57.29815686349814,49.711062623038984,40.96817382905295,35.94699967848278,40.852395265659446,54.98525982540747,68.61294322103694,73.24420805427141,68.38048485405281,56.50217013732218,37.40214858910824,14.896188142947235,-3.046789523885308,-15.680708782519499,-30.279608127471132,-49.99406957368977,-69.24080933196406,-86.05446833749137,-107.83462045230911,-131.68408968931513,-134.4810988464896,-96.86271293960378,-29.425380902088875,32.457176743711784,64.29484258971587,70.47632117616264,64.20509424362089,53.59865104651058,43.10747261194829,32.8728483685034,27.065336637731622,32.064857422019216,45.938054910453374,59.413833933220424,64.74753750574206,60.14942741059007,47.61605438947775,30.88334679079428,12.474096868414593,-6.884998441099187,-28.751884912902174,-51.307772704982106,-69.09743750298281,-84.12432136156228,-102.577169843866,-117.71872752743437,-107.21980007844319,-59.75655606718545,2.3509033176029606,47.53589591286585,66.36726878336076,65.2338888934863,51.30575077481405,30.297777761543195,10.423167418837583,2.71888765619287,9.880817070933265,24.758085977654115,69.0,123.0,87.0
-72.78661229292341,-95.90684619095354,-99.390549720704,-68.11340659781933,-15.465535134639692,30.825934586462512,55.68745000776387,62.3833122453907,57.76309972404425,43.51537221218211,24.19960189991944,10.497695154146214,8.26169361728659,14.380290505002169,23.777566568298663,31.88042875787282,32.86890698772789,23.198700804990843,5.875550732405448,-13.031342375466362,-31.44502597666688,-51.60832979552426,-74.16433951324096,-93.57216103934425,-96.63548437733378,-71.69657389210947,-23.3566160520941,28.347446519322414,63.24760462974729,74.87264667892337,70.94129139248055,60.701392346172014,48.56280684878256,37.52086195525244,30.96887359256254,30.705009139792452,35.50929532608634,40.59824518314915,40.72137215768558,31.992595614664914,14.08492330515525,-8.818269956046091,-31.18244867795745,-49.96449007880647,-66.96644629442673,-89.9456390603781,-119.5245050911788,-134.3156124781131,-109.34399373068067,-50.11082533477192,11.611790086113698,51.73248281996672,66.25398152671569,64.57371127517814,57.04506133143448,45.58285203120064,31.92720833370858,23.18200527322721,24.66750601921978,33.22321526422299,40.07880147032004,40.78727234480885,37.328514285061274,29.184805134359852,11.912526827307733,-11.860838086186325,-33.75449796640105,-49.91107022181074,-64.82361798784733,-86.4079768136655,-111.68942792031963,-117.43135197830618,-85.54479223149121,-30.780907577406392,19.58354837005667,52.80363354481896,67.9706882004317,69.60329905260474,63.423806433686366,53.99962536824649,44.63763318656257,39.70800282399578,43.37905436453531,54.055165004407066,63.264669224512716,65.18265533155095,59.719685754034195,45.74348035629524,24.390790534730492,2.561867772807726,-16.496032527972627,-35.08894902262086,-53.664150648156294,-73.20874469339398,-97.76122376777987,-126.61968304125097,-146.98074864417543,-136.87204866772868,-87.58533860151006,-21.524383041410807,28.025033341618652,50.285090719207304,55.696377683032246,54.307852433948064,49.64900854970478,41.96151345692995,32.70182223558478,30.688778587532862,43.27124487372568,62.97383716409951,75.23951200695944,72.44680326198831,59.39499831867958,44.81863479650429,29.17064204600192,8.667674555950203,-14.750011431085737,-35.63133127297702,-52.74281568951833,-68.44309555536283,-86.79558430176543,-111.1235418509929,-134.4354292378255,-137.07257044493457,-102.24718633900207,-38.928162038910656,22.5196475259873,58.098314306852764,66.32968301573982,61.88755210779087,55.29716384398509,47.179472168753115,38.82225635650533,36.1750062543151,44.29937651341429,59.484196803633246,71.04231699514209,72.67683517828407,65.64113045445255,51.71687178307099,30.87817920362419,8.995958195298954,-6.993127834851428,-19.365471014482026,-35.588341635095176,-55.90479366061087,-74.10974473667923,-91.54273820279971,-115.2570111860055,-135.87628201012683,-127.98197720823549,-79.10077952156568,-9.352187360637675,45.01214585413831,68.06858267480078,69.50116575684198,61.30848658748283,50.500302810436956,40.09970090807505,30.3780825813062,27.288463427672447,35.495829836050646,50.32218195576222,61.97253115261335,64.40226796424992,57.188020672433474,43.06289685282988,25.665084729079123,7.017908201765125,-12.888127149015421,-35.46143573237611,-57.06071328452574,-73.38692587811215,-89.02595541181489,-108.10523999037403,-118.359151533856,-96.9356496363321,-41.70326938995334,18.062910324702397,55.5189961355933,67.73166940669236,62.26180651403591,45.69909152503464,23.932546772847143,6.575853799445208,3.472713893237934,13.775531898465331,29.315087304540015,42.46027025316597,46.7985595937599,40.226483121059935,26.138432773094497,8.548716793897656,-10.92322278244499,-31.665531679545815,-51.73389647667655,-69.7918600466776,-88.63889368718735,-106.93262792964087,-107.8574707439176,-74.73205738061039,-16.71407595870577,39.58549828152141,75.06613560551062,86.53573192411206,80.50702581464013,64.91653106473575,45.05515864738541,26.49832025883667,17.44189742556509,24.17581245880586,40.80945653522514,52.18287416455816,49.647183814817424,36.273720817775576,19.34343892414824,1.5277636798525513,-17.833365128223978,-39.22400412825108,-62.81438576188165,-88.33228544062572,-113.08668534641707,-127.93258846750778,-117.21703134472413,-72.80500226866398,-9.411926848526669,44.35040336874697,71.768739861698,77.08654404111444,71.47525134572925,60.082195013007414,46.221342163070986,34.89401450353821,30.979893263434462,36.51625795563664,44.55876969919571,44.462390113673266,35.0329391023751,22.970533458919906,10.62401538720438,-6.365951849675643,-29.67233828579036,-53.2817713309804,-73.12180434596299,-95.22591118362202,-121.02480121946112,-132.5405403915316,-106.70643157446673,-46.069874798089785,18.219714704983854,69.0,123.0,87.0
