21.366663660445063,-91.2246701491231,-127.5349559626246,-107.89176237026854,-90.16152009728178,-89.92362077824835,-92.84594553895161,-92.65484212460115,-94.32951224257384,-100.326052615895,-107.21064249440742,-111.80821956880989,-115.39820185627953,-120.73594127020591,-126.56592386738636,-131.95580916927295,-136.17961497390806,-126.18179861281665,-83.50019683593422,-14.008449318449035,51.087875261234,91.72071607395075,110.15470841784798,113.9265613108784,109.5817232515952,101.67208927226878,93.50683307166463,87.9939973680665,84.76368845376449,78.4745958150053,68.01681321401954,56.063682323865855,40.06083933090145,19.004239954677924,-1.1461114311371625,-18.04000398250954,-34.811110343276205,-51.38344315289299,-67.85334598197694,-88.35711854999803,-110.28567566331581,-114.2306464915518,-81.25665471631171,-19.667451575546643,39.813130244677204,77.07030984877596,95.41432570543971,101.91811932482955,97.52103888661352,85.67532574162873,73.84481919133334,64.60862173695018,55.72963418415284,47.23775556320131,38.04665570337527,25.044324066491992,7.508751947011008,-12.815700102088586,-32.47181431873762,-49.23211629310064,-66.12766188032052,-85.3536705264635,-104.2921560801599,-122.90166370148854,-140.51743427029305,-139.28932122737788,-98.68187987830646,-30.300531717076463,30.89450575259254,67.39839275081559,85.48806912136803,90.09449338434264,82.11920647598221,68.17888943075232,55.99929890362005,49.51021637045117,47.18724187073444,43.61097621113209,34.32309183978348,19.746146333586065,3.0525275162762773,-13.20278224416023,-28.961936653816633,-46.0910469983005,-63.4031391977238,-77.25565576819392,-90.55063944279914,-108.56092162052065,-125.77458192646252,-120.96902378056427,-75.38587902291371,-3.29318383991156,56.69062720318731,87.99517270305644,102.0160147832681,105.00200228862985,94.88551821249004,78.32239304798352,66.98662496212614,63.15579270507979,59.16566267829426,49.531399988762125,34.48965377212564,17.37476196297463,1.927043528837269,-11.983598102312166,-27.672055665744004,-46.29662864354951,-64.17680404115485,-78.01663436697882,-90.86289954102912,-108.28273582186641,-122.26822740629922,-106.9292776610525,-49.32241203660816,22.431995326555242,70.58492812483165,90.17178643964297,92.62216022278281,83.40821795524869,69.86440537016679,58.303765132786026,50.483599048320286,48.86276102342782,49.70362935428106,41.72393110528881,22.40194112229232,1.0427401288857647,-17.088471933475304,-33.25611223049219,-47.667765771113615,-60.50048851898031,-75.8915310574215,-95.81599351068259,-116.61876650051822,-127.2315970330229,-105.7735234350678,-42.558651700409754,34.11044323103281,84.90614557149992,99.81212897482442,90.84992141255265,73.32773257098475,60.56045756978636,57.92509616354478,58.415050691914495,53.89226824371704,43.348714425542205,27.83677565697037,8.429365446727461,-12.585413924842497,-32.97061040708254,-49.754508973041105,-62.55492450207179,-76.17259215339381,-94.28096257288173,-117.22753981471494,-138.0913920213978,-133.12108194713437,-80.08938897163307,2.0938363132997937,66.97659084743675,97.29014716244235,108.70014906616031,110.96302124705822,102.13496418330666,86.98348407688472,75.91161919932543,70.76021765920703,64.60492728386448,54.151839117443295,40.68698268845435,23.983120841719746,3.567287536583351,-17.116464123498787,-37.62961096761705,-60.15189358315484,-81.51853853908749,-97.4338724686486,-111.08687734600048,-130.3111919684049,-150.20032539702805,-141.11301492222958,-80.40154094262243,4.696481113615192,65.72980189622453,93.1516743083478,107.21816236498437,114.11450393246665,107.72747559607845,92.44440454106896,77.97106909266313,68.07774730572261,61.379905264438875,54.26029236344901,43.91992723993227,27.82930055976101,4.672784719451052,-20.692102248020483,-41.07196040696603,-57.11224481803608,-74.61495441145185,-93.5742180937037,-109.48680904468841,-125.06900391573429,-146.025730464718,-161.36823671764262,-141.67049920392574,-72.53954262488276,13.430046966641164,70.6312362368642,94.77242819224557,108.41107774458811,118.04579411607341,115.57494809607537,102.84225023403508,90.8491814183527,84.65131665087661,80.06983102687688,71.70691690437178,58.89516014273253,42.83452097221705,22.681933779361106,0.043995700058602406,-20.299998504754697,-38.42682373747804,-57.53057538816253,-77.13711997248886,-94.65578342647102,-110.09074213043992,-125.62062398687688,-139.85342989834592,-139.37675616790006,-103.2568314326406,-33.32649494825104,35.878334661350756,78.1136382726434,96.28356150045902,100.24580318196561,94.00600351873656,82.2169697595584,72.52493174945499,67.77848376025304,64.21283721164883,57.79305856270142,45.89612417981139,29.688109603263257,12.983989809811144,-3.7045984071301437,-21.060661583409857,65.0,105.0,77.0
-109.55816480915777,-128.48858939103684,-143.30048247400256,-131.8743041938486,-80.3139801772377,-10.50106254718281,43.946468624623485,74.09770459202679,88.22417827514643,88.89691962203558,78.32088791791526,64.21192747325388,53.501435957680805,48.608375257302015,46.551145150387654,41.58998241026889,30.531304301913746,14.993526256229712,-1.7466199481486235,-17.73714641454015,-33.70945839659904,-51.27350406271064,-67.79660780852988,-80.85181274483074,-95.2065337435023,-114.2999664724307,-127.81298197967453,-112.1622889934323,-55.64816260381229,16.763503642166686,68.42767213888159,93.22810509622126,104.12465792326451,103.36972463926753,90.20050645813164,74.14588754857711,65.35253990706697,62.39632760392393,57.025970638977704,45.64274389302662,29.558796025473722,12.649043067415807,-2.125018512053734,-16.19111423007287,-32.83915407644738,-51.763952644299756,-68.59647727929661,-81.52718495484655,-95.36697713172731,-113.61151559818455,-122.06317700537545,-94.15201935104922,-28.027564004945184,39.70346521265147,78.62924819908012,92.31064481567576,90.93349737098674,79.53933281470815,66.21861110717492,55.56085650840989,49.326641204027375,49.313013346601764,48.73153792051934,36.99187192769908,16.020160148494504,-4.5202937405221695,-21.894982198730283,-37.65105026185904,-51.4165002687441,-64.47739690121104,-81.26179625124854,-102.01102291941983,-121.55527457221977,-125.32556211667755,-91.28470287764107,-19.770412190659606,52.55477696022808,92.56512865243826,98.97826247170055,86.02286193441527,68.67441701113275,58.87698881830945,58.221514827697725,57.78415559445451,51.40326490079777,39.35221679795679,22.53946287857978,2.4241687430018164,-18.65513674286621,-38.31665004686249,-53.71107291011145,-66.1682893492526,-80.87546665390366,-100.48716416646552,-124.16993870099144,-140.70468302554443,-122.88841473910958,-57.303913569556386,24.297370014460927,78.87565338711705,101.72994430161688,110.33366020299567,109.56714081854979,97.92931908338787,83.02525467168668,74.06643760674169,69.37317590755416,61.997059377477406,50.516321619392365,36.27682205199583,18.362826997122426,-2.5290154297014382,-22.92754155204927,-43.94166356710468,-66.71408355963615,-86.70726397578765,-101.2608270750551,-115.83639910504807,-136.89543477258684,-152.18560600238783,-128.7332167062903,-55.94121165696669,26.23199487991335,76.32380672145385,97.83079198700837,110.24208950036731,113.71694780365294,103.7403046584737,87.88447750530813,74.6275278440291,65.96421138416683,59.51934995295177,51.6983683691492,39.99134069802773,21.78608733545675,-2.7957849799617858,-27.271670192482503,-45.880186008656935,-61.85322419021195,-80.15210218396561,-98.57896370718022,-113.65912045852448,-130.5983945016234,-152.14009890056508,-160.62349883971058,-126.24190553667182,-47.04449397732698,34.08311758410587,80.05236103070469,99.00218172091469,111.92685271382076,118.81504615915343,112.4866354290877,98.8765011091546,88.51665766192568,83.46411887420109,78.16484580728444,68.39077379034717,54.59045468345325,37.47231610147079,16.176198011674032,-6.204405739173936,-25.603371542092674,-43.77688739409418,-63.26570330259518,-82.48733743449732,-99.23906431375957,-114.49278524230066,-130.16734883621618,-142.19176697773324,-133.26066146350857,-85.39527561443555,-11.517367864906179,51.15436420623962,85.30876035724877,98.62122642625656,99.37539245934101,90.8384096618564,78.91210970108658,70.74265315378051,66.83535590818194,62.798237347197926,54.966901287851655,41.48023691264874,24.801021644708534,8.229445571806897,-8.695025150967131,-25.974018977045578,-42.17277668394295,-58.93761800750725,-77.99538989530396,-96.37624117306359,-112.70862071594424,-129.9353965079967,-141.34034813796902,-123.02917837322407,-61.47476090239224,16.554907331982033,73.43922710286243,101.35962204058421,110.52237488734043,107.16367749038825,95.24930965199366,81.24245248339163,71.18679884329836,67.96644183967626,67.51955290626978,60.49660326083213,43.45994038311997,21.746968111256887,2.0901931464991286,-15.102875068787437,-33.53097860828733,-52.99810021369158,-71.89774848820609,-88.58637729777654,-101.27882713808894,-114.39914494727886,-133.88521240184073,-147.63511587994188,-126.15848261009519,-59.315275248601274,21.02527962276224,76.55120635981348,102.83740243092733,113.65746183837877,114.21643933785445,105.59551115747914,93.88631577863248,83.8797442105388,77.18582139447892,73.62475444887126,67.1910121947223,52.00745500063413,30.5632187465825,9.245509405904443,-9.679974871806802,-28.250853011701288,-47.65728886277068,-65.58572823764574,-81.1618336216435,-97.04975099593541,-113.57620040114365,-130.02192985769156,-147.73731899945895,-158.92297774685753,-141.7101934785203,-84.00502290546142,-6.016393826457366,58.09474990101587,65.0,105.0,77.0
46.720096914015926,31.428359925372405,9.742564501578705,-9.790058113286495,-26.590498186943947,-41.86856186330255,-55.07128053619602,-68.80550717704747,-86.9906103959773,-108.16548732471067,-125.25990338053707,-120.1090472540982,-73.36664225574218,3.044700166455283,68.04368817043391,97.3336730815462,96.53518528749603,80.83962037260089,64.72340678109244,58.04240507033605,58.505215883203505,56.60497557082191,48.4463799938379,34.95400524644692,16.95818233778862,-3.6571447931529386,-24.61810462753838,-43.274285945060825,-57.388034684813064,-69.9977544291427,-86.00126970626835,-107.09190550890833,-130.66116898536282,-140.3727691171211,-108.303067200402,-33.08613770190027,43.91555347547347,87.97028577719838,105.11430619854654,111.23047345136723,107.17675831569966,93.43611375631481,79.65533091179498,72.61660340911342,67.7081512991716,59.02873237808151,46.67553875936553,31.548667915941977,12.459593115142496,-8.534789909098535,-28.789528718711836,-50.45457497485079,-73.02833388815603,-91.37895545197797,-105.06709143263203,-121.25925009768173,-143.18373998082316,-150.78808269328283,-111.81513397978831,-30.691940647226758,44.70843336963342,84.42943580194608,101.93782865923043,112.54576433432527,112.08153104268345,99.27001215554594,83.59059998800373,71.69521663542551,64.04332742663613,57.53105126455384,48.818733411293174,35.50575532985341,15.1570838311012,-10.255368100265997,-33.28201754879626,-50.458612569281314,-66.8482547813952,-85.71790579479122,-103.22053402650997,-117.99555165228698,-136.66706766402933,-157.27817038675386,-156.10804549106965,-106.70111029517436,-21.43828139607827,51.4236224108214,87.14376599769989,102.91825714644087,114.98898382415581,118.35831589069052,108.76346190729501,95.24968109542826,86.68474782851865,82.24036582727453,75.84876914860635,64.73782153229926,50.03180755689937,31.72335789081938,9.567924598206874,-12.149946931002205,-30.80165679242705,-49.272568428075886,-68.98270482159124,-87.60359576806114,-103.68919431307296,-118.963148671673,-134.5114808513072,-142.8156918555879,-123.65598818548222,-65.15424191035225,9.172556826935727,63.86185525232984,90.7878898830246,99.95502262765889,97.69939220423869,87.3728851888093,75.97565983411431,69.35150202326002,65.86756025725236,61.06290419818698,51.632074802865915,36.78921629295866,19.96051203469517,3.4372270134793066,-13.73284778007825,-30.766773671921904,-46.8148383900171,-64.25775961854099,-83.56007915469797,-101.18391742112566,-117.55068506649906,-134.63540133836537,-140.30030380684317,-109.27777519971748,-38.6511068248092,36.165128610765926,84.09079842219046,105.5233382919569,110.7000607379197,104.3515574625858,91.11027688277035,77.72417093021451,69.56360364855145,67.94975024755016,66.51763373447032,56.487219337224424,37.314216152835385,15.681038615884168,-2.957985533183238,-20.21100059877099,-39.14787834799705,-58.55503305716322,-77.07245179107933,-92.62736256328219,-104.64693242199313,-119.40611953545141,-139.64524360007027,-146.24679652491722,-110.8100340625774,-35.401045699288964,40.53873387424006,86.54232505614947,107.09260954680313,114.88509399158474,112.48253741485397,102.21909272103204,90.73275711422185,81.54228720429695,75.98272548207964,72.4306864117965,63.76455706800236,46.157254520465536,24.174973201263214,3.579216174253424,-14.966493150832923,-33.822952015480645,-53.117769211543205,-70.2366817787749,-85.61626081175797,-101.84336947435662,-118.26998785384129,-135.0429213294864,-152.43771446895738,-157.89192014736895,-128.93487746835328,-61.96630787696475,15.125924261580886,71.26556090925692,99.98112736075996,111.58046094737067,112.32469836149811,105.22401349414532,97.31263790945368,94.35053847051756,92.44612539469179,85.76280192478852,74.44074433206814,59.44270358543969,40.85169734313099,20.384817274073686,1.0767475235249087,-16.07179432061281,-31.961688667840708,-47.84888805503704,-65.69950959962577,-84.03272720717541,-98.34599513365004,-109.57013212054467,-122.45959080042081,-131.5943044614536,-118.99973425415875,-72.45992799193255,-5.297177856736411,51.641614257668174,82.2625475287603,93.1714445576473,93.66727319839639,87.48984410602388,78.96633118688555,70.95957675782762,62.817889161690225,54.634686724648176,47.76792903589978,40.71207189443386,29.113519333563257,12.449973713421414,-3.9077184677262866,-17.336441574771424,-32.232501813410806,-51.661154687233186,-70.80954800224373,-84.65986876580845,-94.76640703758115,-104.7231440109869,-112.10498602420071,-102.34430258855222,-61.62043063763001,-0.881956483365723,50.10959899303998,76.3437842777325,84.96581824280209,83.92414143768949,74.50020685488154,61.37802436440593,52.378819891912855,49.42336285252768,48.086529893216124,43.53989577454788,33.11206001088668,17.521127706540792,65.0,105.0,77.0
105.64559575316757,113.88178408464702,109.32091573918805,94.59865551003294,79.65255508465874,69.14254937178673,62.21706989237466,55.347678365166196,45.56491800493716,30.400700434804644,8.058441793531232,-17.48793349185666,-38.728141665813226,-54.99177756265259,-72.1112111946073,-91.1532178606286,-107.55411903196924,-122.7164373545957,-143.066790367976,-160.64694690919382,-147.27363415037456,-83.86552706021483,2.93172912849421,65.32266757678626,92.6125789612135,106.70669919034927,117.30563560680461,116.70205593949862,104.72496178508621,92.1108639431638,85.23479895951078,80.82331116069057,73.10843807863709,60.79782251857519,45.18223995344851,25.607050878986087,3.0107597503869075,-17.78956481852676,-36.002834971909905,-54.901901039455595,-74.60077778186694,-92.48114869989287,-108.07333170842571,-123.50969589094056,-138.35826779109343,-141.11093453155826,-110.47978437700694,-43.49439578648955,27.983126223487897,74.1308568444365,94.83544752072008,100.35924558343008,95.31061643089737,83.82331843335173,73.50155618971024,68.23578670823356,64.77888046127049,58.929595304645545,47.808068590816866,31.943497309687398,15.176729990779215,-1.4304715317609136,-18.76187045786396,-35.44503494523794,-51.5882573873514,-69.77452414312638,-88.94590942126283,-105.86106481075173,-122.55554215988855,-138.5098484340798,-136.03929500551232,-91.89896370118554,-15.530213723273228,53.270696580780466,92.48568956102889,108.38791239789033,109.90795571461413,100.94484531277614,86.97199749608524,74.66191305515461,68.54685582803987,67.97252540628195,64.72866446519943,51.664552722991424,30.971161165116797,9.923315949488853,-7.879065585328946,-25.503939746005926,-44.792384742777664,-64.04764355231518,-81.99670791752841,-96.312678447719,-108.25176355425842,-125.04425089194507,-144.35743285947217,-141.12512576846711,-91.81947095650992,-11.52547720056133,57.26443550526605,94.3772456000674,110.37801215198866,115.25415576652557,110.04664206968604,98.77771276164263,87.77954422645523,79.5206321122523,75.00021119572432,70.78311101535157,59.523141285058614,39.937530934666036,17.943932898787256,-1.8947321150400378,-20.29597260593528,-39.4593628470388,-58.36774408409244,-74.72192066548732,-90.1773837947206,-106.6422777120521,-122.97512790376976,-140.21299233235874,-156.23639212927847,-153.8524269813247,-112.73777851168423,-39.06453928112752,34.32199621449699,82.02425190849534,104.64240256323538,112.81869290807879,110.84980006187801,102.639830554513,95.92960074738285,94.04541478809347,91.09421481846192,82.88609880563757,70.4925512914983,54.40592729926877,35.00051063653661,14.575877965886939,-4.0636852056141395,-20.75683141561235,-36.459246489798375,-52.76122445430698,-71.15431189238099,-88.70393263316805,-101.66219973843783,-113.05698846047554,-126.13688872989268,-131.05422451276772,-109.02143859264045,-53.88314752876475,13.442049548598575,63.188216446647665,86.90657355501948,94.162352614893,92.41920913718536,85.05854818621576,76.58962810371187,68.66858671312106,60.388313841283505,52.496723865546485,45.92784635475294,37.989573472399925,24.646425981432962,7.433281010025107,-7.992748579583175,-21.225046859635654,-37.45809975398956,-57.54995810119217,-75.40151790004816,-87.78111958212514,-97.56947322415535,-107.54078087023495,-111.90045671940211,-93.88193016176024,-44.888826354508026,16.037432798614137,60.188094443490805,80.1230292880047,85.55198594105453,81.99097290918685,70.71810541684859,58.106685993836265,51.026513590666724,49.122549028509766,47.259670008330005,41.19257762602752,28.962562251965977,12.79966165563916,-1.5744621026087642,-14.30057486821186,-30.553170360662456,-48.14765134109386,-61.79428985629302,-72.75517999826934,-85.49423740445725,-100.62703139699808,-111.9863898948135,-106.75153264536854,-71.99974139634683,-12.284158732121284,45.006435265369404,80.14067802728863,96.76662049091397,101.40969337216227,95.28027909000835,82.45304820125413,69.54880885419254,59.69113417648413,52.67281826299447,48.091755240804886,43.51273729253809,32.67821087791608,13.805512494025589,-5.628764325697174,-21.19429417317883,-36.505086364031634,-52.938411484353175,-67.6148540660324,-79.9744292328976,-92.10809566787823,-106.1298225652912,-119.77847733526956,-122.68553658923452,-98.76795961791962,-43.98983465520816,19.513021012783692,64.67192684844144,85.87789098671698,91.62566223888324,88.48057137785096,79.6798912434066,70.32022614821783,64.57705752910724,60.778498774481456,54.68387160472313,45.086673796619124,34.249672718390485,22.732383469117877,9.006465475319661,-6.532901732290859,-23.273822482751182,-40.975013427692815,-57.80872371520021,-72.76780572840637,-84.9588056005881,-95.97470991077788,-110.20635695997666,-120.17730866794354,-105.57739212402029,-57.20012594918688,65.0,105.0,77.0
-23.722708135744224,-40.05261792645625,-56.56408978937518,-75.39882941892513,-94.08915634222112,-110.52793387708799,-127.63158322516286,-140.92143362606134,-128.04623690565415,-71.57517618843535,6.791554762497783,67.68776720272689,98.94668910670593,110.09692413195194,108.21849183651852,97.11145935562433,82.98860220244629,72.14519537430148,68.05562107266205,67.76576853163634,62.04465804815001,46.1704236159659,24.62594409403348,4.493517602419199,-12.801462309010866,-30.96774959922537,-50.418244754150464,-69.45010872373624,-86.59310738823801,-99.74092858062967,-112.31894487150645,-131.0825123877891,-147.19334753032788,-131.8602092432333,-70.01870554557846,11.1959966275807,71.10288512353794,100.49028250965972,112.8116024325305,114.74363436135641,107.08383949468644,95.39915246300522,85.05250392917239,77.84330682115824,74.08157328208269,68.49750640096765,54.52957824253565,33.53207882002773,11.93486007909016,-7.239356069025764,-25.71565452936584,-45.08867358767878,-63.36643552176989,-79.12991879230907,-94.8583215636026,-111.40047557260544,-127.76536605178426,-145.40473326179364,-158.5412797233593,-146.37805797518214,-93.61314298589329,-16.254528285335184,51.171983263097836,90.62318596194932,108.16991149380708,113.20469571946995,108.81752443320794,100.20851659570567,95.03218737167651,93.62684297601638,89.25911982120041,79.67507322708103,66.23568804611664,49.077917222466596,29.056443019241655,8.94136569620086,-9.03835533203869,-25.35525305501337,-41.00057974479069,-57.88621596401565,-76.55103904834262,-92.93186780013382,-104.83677102467378,-116.78806599563212,-129.20675063011248,-128.17973530615396,-96.07200602845057,-34.21452442062447,30.53382255665087,72.43195729852978,90.21447386769003,94.43583679831384,90.67724440406053,82.5629713451828,74.27950217619626,66.3285273829823,57.98795542359101,50.49853924153421,43.988819034920205,34.77051403891159,19.81951162905913,2.61065310545766,-11.847140531796617,-25.399413766672552,-43.067334798620976,-63.22249192015255,-79.4884775601037,-90.68723774709329,-100.44198492894694,-109.98588251169306,-109.78100133842493,-82.61388136920782,-27.082893326792703,31.37781563190816,68.11699687568021,82.74758877711959,85.42321206532648,79.36291594037849,66.81817831750992,55.3560008225199,50.140339698251886,48.81209521248472,46.06929047872239,38.30411373498781,24.44888785751901,8.276023226342325,-5.169509189091583,-18.53389878465907,-35.80330448631301,-52.57792723653552,-65.03210828144012,-76.10754453175731,-89.7590537127164,-104.75139086599573,-112.8595652920871,-100.05508135476042,-56.37847616516446,5.867037366511525,57.596212175445764,86.42008220974438,99.25234239455774,100.67027067538346,91.95871408982194,78.49549854578945,66.37221046288337,57.39198565944351,51.12900917195464,46.99903399619265,41.29901711867001,27.83624688683336,7.8637044419675926,-10.449379297432456,-25.452118724805988,-41.24892421356605,-57.458916867985245,-71.36168512789857,-83.37966966549926,-95.94048955566429,-110.3958849130176,-122.40908493014652,-119.15437450206724,-85.59823446433633,-25.103491764505197,35.163164372252055,72.96734145593345,88.72838600556878,91.47750021109138,86.34804435279305,76.76478351806894,68.24898058289378,63.476216703314186,59.39775989191949,52.200979765071665,41.982207679579076,31.0642570754792,19.022759373090288,4.645311786479649,-11.231798312989257,-28.353089581388446,-46.003863000493276,-62.34536730609207,-76.61441394809053,-88.0308331223154,-99.72774590643543,-114.33018977186046,-119.33905518702585,-94.79451964886239,-38.87110124701174,24.277447163298937,66.41820751080826,83.39227531554975,91.59881275081949,96.03780777770542,87.87718248039135,71.15589996297653,59.669127320436985,56.29393636056381,52.612730581068526,42.89497948612362,29.73488512595946,17.17937786541712,4.802465064858031,-9.739096090365678,-26.9665644192621,-44.2369860905259,-58.957667247777046,-71.68056109876528,-84.05213507409806,-96.28300937130284,-104.83859568200094,-100.5235387582618,-71.85133488441761,-20.563836553132848,33.04475608247062,69.08793688571654,82.72561034144029,78.59956990852532,66.80408327240572,58.217990079310596,54.98214613072209,52.266856451876336,47.44435903257918,41.78554726223843,34.204025539717684,21.121337863773068,3.2943418249695853,-13.492962226558754,-24.9765794463259,-35.28246109516129,-50.454027898444785,-67.67696525107092,-82.49736809214217,-96.7913001560791,-110.6745659172681,-113.32540270845075,-88.83911257339706,-35.291292349913576,24.94149933786513,66.89759324204813,87.94603244214849,95.91594923265426,92.77048231625037,81.71272472701193,70.27183776649706,63.13823103792401,59.85873532792785,56.282401335123964,47.97543525096369,33.36514338507973,16.49165971564138,65.0,105.0,77.0
65.50377172005028,97.38788145153347,110.71452622003389,112.77744439823165,106.40627253083677,98.12110386892583,94.51172581761453,92.9121821252073,86.96307411541373,76.16040559448363,61.66005514705579,43.49627591714756,23.10616025605076,3.5109269502924785,-13.878530003806501,-29.88663708913549,-45.6509305463839,-63.20216752834993,-81.74443286703969,-96.72456562066283,-108.04107580101895,-120.67292289295854,-131.1897008700578,-122.57664027270233,-80.43776460859752,-14.31316046069931,45.516576848594696,79.58687855591478,92.44776382910155,94.05196400388736,88.5574121689268,80.08727376728542,72.0063269474745,63.934755989100296,55.66646494950032,48.614249834313945,41.82297371795743,31.018265632889445,14.789341001578274,-1.9240925894480123,-15.598262936446474,-29.97290404254745,-48.9257670093955,-68.52200905644256,-83.11790946505519,-93.485705960014,-103.37393715442933,-111.6910896170449,-105.30084603708245,-68.7586437799072,-9.04482561772819,44.707100105832886,74.13108935902201,84.449302428696,84.56781378425055,76.14200473795015,63.02921795972518,53.18442920963768,49.59745747311337,48.36699282084706,44.44821864767884,34.87030202906422,19.72311740584507,4.049251117599151,-8.742427564257598,-23.174507862152748,-41.00033520236869,-56.59212709766336,-68.14878418511083,-79.71431587791315,-94.18002469821194,-108.34630620419676,-111.97399654342962,-90.61783354400607,-39.05885529152305,22.99112028682462,68.12399051083447,91.41006801714374,100.81215717515684,99.04476703770885,88.2352029255995,74.68631181401842,63.47123734807725,55.31483292377828,49.784677117612915,45.80579273016768,38.37799335726278,22.387758738039942,2.122020991804318,-14.94543031151953,-29.82296126378267,-46.04414966643486,-61.75727983473031,-74.93976857882126,-86.83414056907806,-99.96971613935672,-114.51675740665333,-123.79965351795634,-112.96369094017189,-69.98335832798581,-6.283709143691383,48.75565818933732,79.37647026261142,90.53239722728772,90.68480721166199,83.81770361002245,73.9602295153658,66.53640742539348,62.436522896348905,57.725979254011136,49.446297495537266,38.846654754659774,27.790795826267,15.096439897727315,0.16933895592282922,-16.038313997711416,-33.48939134875723,-50.90739824975594,-66.72065938307638,-80.18905881550737,-91.11160685489564,-103.84723597460065,-117.72150059128589,-115.89748804265496,-81.19739964705221,-19.904476601196126,39.398559927496954,73.32252814450058,85.98381002105003,93.63928040464488,95.18921630768403,83.28855517660975,66.85990271205183,58.12853199815761,55.67922447521353,50.43849308089442,39.209904712654755,25.976834891770906,13.694193887892038,0.9029157788837079,-14.504432942479822,-32.11542364125667,-48.78201539930979,-62.76224545290874,-75.23306248369421,-87.6694676931817,-99.41610501611696,-105.473812854409,-95.0681789770402,-58.714559624198856,-4.2109380782053805,45.763413719675576,75.22628187428661,83.01935214496694,75.4176272932372,63.68804042296187,56.896154743903146,54.3656645134047,51.06506445438516,45.84368819439955,39.96666463210759,31.077729832371535,16.26541565493001,-1.9639508352476065,-17.34598438193887,-27.711957580325056,-39.105709422623825,-55.517859614627596,-72.22329229062203,-86.52721317851301,-101.09383928447838,-113.33569830667545,-109.57115628822235,-75.77284759314833,-17.198117508487556,39.520619439200004,74.74483243599317,91.38895215291623,96.13648301809481,90.07298078292956,78.14203302369913,67.6934305412306,61.935689559090754,59.07160600616035,54.52920892549572,44.3178043047826,28.477153001606165,11.79313192125459,-4.2487047538988865,-21.41016237400755,-38.95110413041186,-56.65957908940425,-75.49733228514363,-93.3185311733603,-107.81699967965375,-119.2307549093879,-126.23228853393131,-117.63485785086465,-77.68637212773949,-12.027361125612122,48.28844224713209,82.6565070193944,98.5196238705436,104.38260289705252,98.76661820826111,86.8777085720789,76.55363502501716,67.54162392444726,59.986640186135446,54.7924504195427,46.55793104816731,29.681031914604322,7.709960988596979,-12.3642485929773,-28.609323855283712,-43.003416421687795,-57.82422517467472,-74.13858676362693,-91.31565114117338,-108.13683003117366,-124.62537262679271,-136.46940794501418,-126.34242584757632,-78.85471249637283,-8.173351576602373,51.827794120642125,85.84846483471254,101.27970294388439,105.16088403066564,99.71927470715578,90.50351881621428,81.73617081956878,73.43984209861043,66.01572835438405,59.83243459438916,50.51465090199788,33.091826303734386,11.316306502867327,-6.299964959982599,-18.18891394444779,-31.473273926888247,-50.76058161653483,-69.56418309436926,-81.65005990943571,-93.06855660187054,-109.60456521479833,-125.09867253419733,-125.11427824088106,-94.49640500668805,-36.203246462081054,65.0,105.0,77.0
14.960277167837893,0.1382817934343919,-12.478256103611358,-28.167630385552073,-45.970024512502974,-60.225535351524584,-71.27579109814015,-83.60657923296793,-98.62160073965956,-111.09848149078213,-108.95498899174093,-78.4611661908501,-20.793521209687285,38.503938983098614,76.74323078806589,95.30461399791773,101.437937281677,96.62606527906871,84.29464533978536,71.10802230780989,60.82826089833773,53.456383661443084,48.60170103602937,44.33631250728744,34.66185947276113,16.554368508003915,-3.275055854300047,-19.241246074268144,-34.35886102931927,-50.79174409703818,-65.81893503012589,-78.4010764489666,-90.4061163234779,-104.16268501197466,-118.2603381194341,-123.50931343041928,-103.91299792638111,-52.48900576747846,11.692397967873815,60.15199445814328,84.15326302574674,91.45885761380234,89.30147298577987,81.01901774120961,71.3956883984531,65.13830309610341,61.33692874031662,55.721855206116985,46.49306770752328,35.703532774968245,24.371534122349203,10.968664190973001,-4.3981217191452355,-20.963940283066695,-38.62465517429981,-55.66568011405243,-70.90975140214519,-83.50252209813237,-94.37061842398207,-108.19765012686756,-119.81279650857901,-109.53534343214841,-65.21104848141998,-1.1406284953748398,52.18607207229249,78.35191724709988,88.32175813641598,95.22320231169327,93.06529947122185,78.30196245310829,63.31962389619044,57.1684686364661,54.778745144343546,47.70971936423284,35.36985428384064,22.33423856211459,10.16777642379639,-3.2313732332008676,-19.477451914967,-37.17319439174224,-53.07923468373774,-66.44067372669379,-78.79612065895078,-91.25628380613718,-102.1174365661337,-104.74231445924667,-87.31434600126384,-43.945540749537365,11.703910848280549,56.65577673635165,79.52284005035237,81.98578228409515,71.90376684878777,61.06253799331276,55.96017111478819,53.647992733532696,49.681875126260465,44.22419696921728,37.901899242627245,27.41395085587335,11.094648354230166,-6.956968789717291,-20.71007578309446,-30.548178627047903,-43.428957797153046,-60.580388544887775,-76.52017078292707,-90.61756395720015,-105.29002136796721,-114.67328215941592,-103.172142707719,-60.463489091007695,0.6810661292752684,52.11784951295512,81.03371206667109,93.89915080490277,95.40962602423559,86.868322117599,74.72855859268586,65.53971020440639,60.99471255245518,58.13843755964432,52.279508100086304,40.1434124135787,23.55365968974236,7.1755473454175975,-9.064796530339125,-26.51378781854207,-43.97715153883568,-62.020039407458334,-80.89528592005368,-97.88078080313288,-111.38889667493847,-121.95786265964223,-126.14301746583818,-109.69595247887601,-60.249962150084556,7.418448083290855,60.95759360566643,88.49609157818425,101.25702099382706,103.92930609068698,95.51610003229008,83.6135335639018,73.90921434780753,65.09148500421875,58.35692469888178,53.08214610245641,42.60523951248398,23.501055488842795,1.5129108789321122,-17.39793723983134,-32.844888761454015,-47.163776806717124,-62.381984233080075,-79.07474487766203,-96.23968085011919,-112.92957340283172,-129.04691887368787,-136.78820028946248,-116.5383216842013,-59.338927125550484,11.524225875747774,64.2365250421812,91.73673851060967,103.49388434070708,104.37659053246445,97.15596495502052,87.87946548986939,79.31391787113127,71.14145379525974,64.18453274838929,57.771356197906385,46.34802958426807,26.852004509208133,5.5232100192676645,-10.11391448661214,-21.502952558685852,-36.51870230578764,-56.70380381495386,-73.69595386799102,-84.56987566375335,-97.37689657716192,-114.71101625566547,-127.4616672405131,-119.82135116146867,-79.61589949667591,-17.767210102988283,37.841847665876585,73.26299176176535,90.78043232100569,92.19184037272699,81.04776192610876,68.79541221640159,64.04384359634172,63.53826966203802,60.06292180860741,51.43940302710423,39.14703884990831,26.122116393555302,12.883368623481772,-3.804441320194714,-22.456704624663555,-38.45114686817703,-52.532789235762735,-66.45877131238649,-80.27872003146423,-95.68730086349966,-113.37251649622834,-123.59715533654044,-107.66280564004424,-57.80311731294207,7.722228001341415,59.17322334408283,85.50879443811148,95.04149985068644,94.11875830657536,84.1166318773593,71.91699239685921,66.3166814302147,64.77890790320188,58.09717555970369,47.08653217672608,37.52993617614369,26.64529858117402,9.772251756239568,-9.945079039970043,-26.626207139023457,-39.47846802385278,-52.85717523211188,-70.53473744369,-89.86246481726953,-106.07856676575301,-119.91199943862082,-128.48319475954494,-117.31680844695545,-74.47173746034841,-10.095830111078586,48.21515192856873,82.54887496299244,96.27153306338577,99.73743190177798,96.63549474919363,86.89088516184864,75.42664036796567,67.38735653557723,60.6586758098189,52.56232876990863,43.23544808662561,30.331234200212986,65.0,105.0,77.0
-47.45098953502715,16.620788613057886,62.48805460929068,82.0158662344549,90.58343387332404,96.02015062162805,89.74683733578469,73.33403106107035,60.628579842841106,56.543565427623335,53.42154198843897,44.50273390638451,31.501162289899277,18.791190012723156,6.532292895122414,-7.624951614786622,-24.588181003479082,-42.05879850248586,-57.14854675065451,-70.03776857053349,-82.38724567368982,-94.73961959639063,-104.17635383015084,-102.30721104904279,-77.24095965482489,-28.079401980971294,26.626039098041645,65.6141066662776,82.0886525559613,79.8652353836933,68.36712563013444,58.99023147192379,55.26461576393142,52.75093551681549,48.1690727926915,42.572830615952824,35.474119072538336,23.219862977651907,5.760841646834446,-11.542681819562276,-23.68814307103996,-33.68874620133516,-48.168995216191384,-65.49143396886596,-80.63469574122709,-94.8191495927807,-109.12268217780286,-114.23983754675146,-93.99615819522501,-43.484993137222936,17.617346284083848,62.682505926625225,86.02309099009256,95.49417207701273,93.78851678357871,83.3684504718938,71.59627081171185,63.806004511724325,60.20518642523363,56.9474584302337,49.468729658602335,35.56829207647662,18.69521735979113,2.5772999875205462,-14.012018225940857,-31.59470061685361,-49.053840901258404,-67.47902625888264,-86.12336047442396,-102.13279362279741,-114.73684120614533,-124.24022239108666,-124.3407677998704,-98.78926059690494,-41.14398575246173,25.511649737165165,71.26683877962242,93.18964040699265,103.20252483163321,102.45864458699988,91.9966634862841,80.60113043452091,71.29710212764768,62.83052646834446,56.9032388345205,50.91533178390333,37.85206868973417,17.08720478004247,-4.383156337555783,-22.126893439712955,-36.98971338130725,-51.40892162221387,-67.07463834327471,-84.05107775368464,-101.10697084211564,-117.72415562773354,-132.87538409975136,-134.7085516098884,-103.38834401090548,-38.61781374216242,29.498069040615388,74.42320958770244,96.37311605531796,104.81379737082253,102.87538379773692,94.45572121707167,85.33738863580716,76.9082008806783,68.9525411919066,62.44361128392248,55.276326115939234,41.429768982522255,20.449417324176064,0.27570966153691207,-13.520801755974219,-25.1677706574156,-42.08375341996628,-62.33457956433654,-77.21704091030414,-87.705537477993,-102.14538021099685,-119.47721009961886,-128.11857436864076,-111.63438707058236,-62.78606854695384,0.01918161936014484,50.18128970422852,80.00269328643688,92.82548809060228,89.87518867856863,77.04277434478651,66.58723628549272,63.819665690330055,63.052164772126496,58.07001015688347,48.15144783009033,35.335280053260455,22.444794097531027,8.508081449029154,-9.24160105852099,-27.43075647492421,-42.58611776720037,-56.56898513677234,-70.43647813932631,-84.44340270219689,-100.72487622977216,-117.87022955543397,-122.44158980335335,-96.43816812676829,-39.10230020316363,25.058727732683327,69.167754881993,89.53707966482413,95.7878789075192,92.02217218357853,80.3318385476277,69.45413008348321,65.89725435942697,63.61359449363946,55.024529224940295,44.11424378269553,34.82528179912062,22.402609419258972,4.0694927325705885,-15.244503827044934,-30.597078537390804,-43.052253926253954,-57.493527387538855,-76.22719382990864,-94.92953574884858,-110.24037121993746,-123.38134253558596,-128.07318109011914,-108.2508087834499,-56.99579578873378,8.583423864962741,60.787415913397375,88.13597547517068,97.9927512507138,99.54853844262605,94.40506801430534,83.42335127463593,72.71745951110765,65.5072709276695,58.45924756062047,50.030148625538914,40.02690721209873,25.631123968943307,7.70160298644154,-8.938625860421917,-22.958109634508045,-35.81630835438451,-49.488057831660335,-66.69757995960907,-86.82703223519718,-103.64311394091584,-114.38485549242353,-123.25273781832016,-125.34985800957341,-104.10215665143878,-52.77707599055465,11.981422301622413,64.45825471100957,92.76191001064342,101.71380127026457,100.20033960509991,93.19954884415918,83.19390163145113,73.41746082157661,67.21920204488984,64.32991030905363,59.93685238109117,49.65937827028561,33.823729131697334,15.267867534900088,-3.913310899833608,-21.765453475227748,-36.20364660653796,-47.09930358371303,-57.64454220395186,-70.47805738072788,-85.6531306700441,-100.63996003600546,-112.25252249619896,-111.40486635252364,-85.64408450903403,-36.140527129182935,18.13281093600428,56.46624007176727,74.23766166850513,78.66573591348522,74.81802900164851,65.5087645386749,55.78109472217822,50.51624001743599,49.2468069460492,46.34350293102491,36.50979224022118,21.133610410236553,7.675556371916516,-0.8410996793157062,-11.264414732010263,-27.514216359553792,-44.52770777210938,-57.20788361260671,-65.76917157677366,-74.76771911318157,-88.0393120737457,-100.30115020940947,-96.4441470567347,65.0,105.0,77.0
13.946470038699028,-2.071697905263096,-19.06171911618737,-36.63606494141759,-54.23062627418061,-72.97417383843974,-91.1126741803637,-106.08683993608028,-117.86827095737603,-125.82829188516325,-120.34092903924628,-84.96433241704617,-21.226799586137215,41.631116162961675,79.47531915200663,97.01083760273472,104.24027811590099,100.09710895359639,88.46051761745397,77.7980052065871,68.71244494450744,60.8214188437115,55.48498019000169,48.106970213023715,32.3921057620827,10.642853885136484,-9.92857310505879,-26.608703867350577,-41.10282742480232,-55.76947976315391,-71.88679774902118,-89.02939008908501,-105.92524501560158,-122.47932502613563,-135.67215964813576,-129.72437922972233,-87.19331885050731,-17.658482670872974,45.31840118853458,82.63942951152347,99.9522586977407,105.25003715686378,100.81104512000515,91.73960967254271,82.86192707162861,74.5245376422298,66.90687735838995,60.68777952957296,52.17988293376432,35.84649888373654,14.134097937972074,-4.363126166763402,-16.72009803934079,-29.34731520093738,-47.990323382183256,-67.43203560911665,-80.3040742347522,-91.25847030614938,-107.22078184044395,-123.5559921471449,-126.63246740519953,-100.53920121611266,-44.725435688801795,16.581799684917314,60.75155195633661,85.3640400495394,93.51607908203097,86.67282340185078,73.29321364630385,65.10705012484584,63.760290929506205,62.1663060169456,55.6545828225361,44.60942969670045,31.548236004446743,18.703706317666324,3.7536167947446937,-14.714552207410797,-32.099505670626066,-46.64142398589545,-60.60170911335329,-74.40568922546692,-88.8142138546615,-105.9284749241395,-121.36394172173293,-118.61054067477455,-82.40420014743628,-19.808240985266586,40.52734445272103,77.08924198695206,92.4500083502829,95.71640172579062,89.19840442259944,76.62723603063174,67.70776156419821,65.59995946083323,61.812369476043955,51.766815435754985,41.35611860992302,31.83800105497178,17.60125857878158,-1.7102116659347222,-20.166514762501887,-34.30061670421924,-46.806222542185,-62.546457151596975,-81.90765756819843,-99.66224787946946,-114.28098937157569,-126.23199531487917,-125.55413073931794,-96.37931977863342,-38.237460912834,26.011511446502766,71.14578331401668,92.26088648512236,99.08745998577129,98.80433663420469,91.6349549500381,80.0024307980044,70.35995384029857,63.6149265731133,56.13062893723602,47.399963901215905,36.419467274141105,20.59978721629644,2.6036136860493433,-13.206745343111049,-26.72038167747545,-39.56648215461896,-54.00232525647414,-72.42146276995011,-92.32443134280989,-107.22813189903464,-117.02817605595483,-125.20498431980512,-122.30612067527112,-92.05035790646765,-34.25263521219159,29.324513054675258,75.12587749415371,96.91123275475435,102.04049646408433,98.62553923228323,90.49841617129401,80.1751304981833,71.16904891516477,66.19596487128476,63.47375738719681,57.65589109311031,45.528495474299106,28.63649198124081,9.705863098032502,-9.299474375814512,-26.36515958508914,-39.61406786547271,-50.023671869896894,-61.056427874347854,-74.70607492412243,-90.12285726478028,-104.56313124317509,-113.91027350438056,-106.85569477888733,-73.20235316682331,-19.8655553427333,31.424546914635904,63.466855266780826,76.56162349300939,78.29434173188842,72.5193712717733,62.467737679122614,53.69744941212345,49.91863952614199,48.88488096647955,44.31014175440091,32.368115870721475,16.709216856979484,4.883316994495716,-3.289551980445808,-15.468717160418327,-32.66046902093052,-48.73261985235269,-59.960335649682456,-68.07231365670744,-78.16104664077352,-92.2311010605987,-101.59637582075084,-90.20673597614757,-49.942819409985496,6.426654936008336,53.379237346609884,77.5320474674766,85.18475939425441,83.81903490767942,75.04221552885735,63.88313947890176,56.23405279647131,50.94665415337077,45.87089354368596,41.505654881741556,36.11395531129334,27.051982945148982,14.719265042054941,-0.28548337426994175,-16.96383081991476,-32.34781948551445,-45.96883256401285,-60.628404850881104,-76.09614468526104,-89.66473934680504,-102.0283128987832,-112.87409010649625,-112.51417840091379,-85.33163982471939,-31.949499583073987,24.944560189516928,64.47930428892813,83.11217315709729,86.26347456009569,80.8613619372298,74.09260369168307,69.47333664801853,65.78730360518806,59.978289252030464,52.980270074271765,45.65154892705951,34.55146861176472,18.611692509965007,2.068497814000257,-12.549400172341112,-27.16570507557098,-41.57017440000723,-54.64183243355825,-69.02966586105588,-85.08448562452747,-98.60249008225881,-109.17871705241221,-116.24815781402026,-106.20223698743581,-66.33382425581138,-8.909893723243828,41.14581579313986,73.88399614860968,92.59600290556097,96.91227259615806,87.76642658195387,75.43899395300504,68.4480579090944,65.85734972625272,62.692525731403144,65.0,105.0,77.0
-26.227323564276148,31.541449737719283,69.66987915552453,89.38116920623077,92.89339832365978,82.89118316555775,70.06126624432538,64.2626152182041,63.65446963544066,60.831937025405985,52.85101635315863,40.89399053465093,27.821614000947502,14.783348978589002,-1.3545679381043612,-20.065835950906738,-36.496228216361054,-50.67355989852988,-64.61658794922938,-78.40671120062581,-93.45216573222862,-111.09077117003747,-123.34071392578991,-111.82276777208682,-65.9981705909626,-0.7589652092227185,53.814392930801944,83.20947128965321,94.42113550482317,94.81472972641255,85.8082177789978,73.27802569987165,66.62977728659634,65.12879674263704,59.390290251924945,48.52930304475105,38.73313538766506,28.40741873734602,12.326133940463919,-7.396369901918425,-24.679073013084476,-37.85434115762409,-50.860800572730874,-67.95422076019295,-87.4154445288532,-104.10584477487029,-118.18521442866901,-128.0858733552363,-120.54310131784648,-81.91081178009762,-18.950393839668642,41.680085322354444,79.39682318452128,95.22273859862557,99.64921720710423,97.46187559243765,88.45113186523072,76.79770824877397,68.28217114940865,61.62350378056755,53.705498244481156,44.605165349553644,32.35807594736821,15.374777907331637,-2.2723797411054916,-17.277467922277122,-30.424210889763394,-43.44081717762627,-58.886537092455015,-78.30768880071221,-97.35107218432421,-110.34089101703722,-119.64985058433935,-126.29238436426314,-116.85878582166852,-77.53089177387545,-15.235522196436152,45.04596243071734,83.69616409578175,99.6737930926078,101.68949076955138,96.66318545892486,87.60481892892373,77.26742954022184,69.29152722681019,65.38949151144753,62.341369344868475,54.81032029857451,40.996294960914696,23.285936982571016,4.137402326793434,-14.527449734356015,-30.624565734891085,-42.76542756213557,-53.01575866677599,-64.704090864888,-79.09834737867422,-94.50448702050849,-108.12683207797565,-114.20116351281094,-99.95573532836488,-59.00677799203204,-3.794926133587237,42.96952638408232,68.84141715052121,77.97869628652498,77.29677853174073,69.84113539500774,59.54553742130296,52.07514718611919,49.58027301828072,48.21009490820392,41.60751237581601,27.878960848649466,12.666963724896991,2.4637158121944607,-6.135215861090975,-20.146942276160335,-37.687145125961344,-52.49616477126401,-62.42797868179046,-70.55542038350542,-81.96803059845826,-96.08816765542593,-101.10813121524652,-81.40452584665147,-34.230424477074166,21.987439865198102,62.67831480552929,80.95825433327674,85.60594888344512,81.94786365469155,71.70838588297347,61.235351634627385,54.62476928340119,49.45083420395151,44.53845558156048,40.210703198778106,33.90667616688755,23.77103822813963,10.656788786001986,-5.047120834367098,-21.6571759959653,-36.35576295081804,-50.00317636620245,-65.15383783336098,-80.2562911697241,-93.2716253950777,-105.5161607662157,-114.64481239219491,-107.89895427523912,-71.87126654654527,-14.671945577943722,38.62390552539271,71.82235210315132,85.33369344972026,85.23634925226203,78.79712751954762,72.50597689624306,68.46822544658983,64.38535152285598,57.947901131617364,51.00497751116455,42.991371101169875,30.324216303191147,13.670551783021992,-2.303044939989446,-16.69611663310744,-31.452398031041533,-45.42549468306786,-58.52421902853657,-73.65721046355704,-89.4000851260413,-101.83756742472048,-111.90665186362084,-115.9627194177495,-97.74762621123043,-50.39361012656575,7.166910048266805,52.311188668277,80.60988111473476,95.45304139796558,95.3315990744093,83.9915034629486,72.74833386805807,67.46481747282773,65.19030265034418,61.19529295078779,53.58177686016401,42.773352842770414,30.52526631090791,16.96219648790884,1.7761258438286474,-12.248736390019968,-25.98621235919402,-41.783315626495146,-58.439725354138815,-73.87380449305009,-86.09434016974876,-95.3521909903358,-102.08696432757293,-97.10701828989784,-67.99325292645496,-20.735607050978395,21.621657131714944,46.14837094999334,59.95950186466087,68.18299652371785,65.91137929755044,54.433144811157405,44.07340613065859,41.24742804998991,42.834473421783656,42.38847506629817,35.057491809675284,21.23340904863463,6.260280169702491,-5.999236423987381,-17.559007420516895,-30.332585888148895,-44.10652358344494,-58.842164399293516,-73.43123634929134,-86.04917816578572,-94.40426549090125,-92.13624302088323,-70.56373770323606,-29.003158414945922,18.915805261593075,57.39051246907649,81.96832740637187,91.72785990266438,85.09282823922925,68.65138675938647,58.06336097034891,59.6505335193665,60.61936738463445,50.86721402435562,37.2990686050697,27.396064837189314,18.399738684449613,4.860112449941734,-12.980082654510994,-31.061572819923093,-45.71514541568984,-57.53591847633505,-70.10182564261989,-83.86724969727639,-98.50960455316434,-112.98337123817466,65.0,105.0,77.0
27.846259831707698,10.106553638389826,-6.893342257586409,-21.193447784337863,-34.11006555869521,-47.51771415182802,-64.15189756649427,-84.17939496268158,-101.79801430499293,-113.14679688738042,-122.17598735784739,-126.04608953818094,-108.75796731072886,-60.957540778027386,3.568241650172004,58.81730628323455,90.3129551990146,101.2919010542657,100.7816692045554,94.36110268169602,84.59614457616672,74.56768025463445,67.7916774118096,64.67163964551042,60.80704309821507,51.40586432585779,36.14615256641929,17.8170139630794,-1.3908336769633753,-19.541715922039696,-34.52427597806023,-45.75061945821477,-56.14284719798576,-68.6004236751282,-83.57953070391986,-98.74650100787844,-111.13124790363618,-112.75189034397299,-90.6845532805952,-43.541805817571614,11.490288182810076,52.63902898384278,72.81454518236065,78.61317024455921,75.72188528611453,66.90755180170659,56.88595344290048,50.91099663086116,49.35701363837642,47.06479087848709,38.25463836503663,23.250983247582774,9.127547941907173,0.2096349602763153,-9.512868773983207,-25.148983705931926,-42.45042328757742,-55.81693627313926,-64.72802448943541,-73.34833761482192,-86.08680502185898,-99.21986385956761,-98.46668118288999,-70.15019047390717,-17.710921161839952,36.10873066466848,69.98634258969443,83.2949347104103,85.36592913893139,79.4753691464422,68.37395822321193,58.96866756095685,53.115276520070175,47.96151833172751,43.28541657125695,38.743405822220005,31.35363033395716,20.254221415437115,6.366892073217738,-9.899080403410286,-26.159076115516314,-40.259158682260164,-54.20156930005073,-69.6800580815773,-84.2057115052656,-96.83921499448881,-108.82352852151686,-115.11627285147154,-100.66820784650363,-56.51228302069841,2.2003938651005965,50.498507964350146,77.49943835588853,86.4117982524227,83.68153584504954,76.77807929780032,71.13831124169737,67.46387846905193,62.74199589784966,55.90222781982699,48.96692790024329,39.90781178932843,25.728096751301397,8.82179614065633,-6.517468521629809,-20.907928011167773,-35.66382566455713,-49.17421564046873,-62.61696699014751,-78.36108350268509,-93.38626639301954,-104.90101520154712,-114.25288627811314,-113.75339789622006,-86.64778236041964,-33.58081193893149,22.051970353703076,62.01818084914917,86.2776905025939,97.01290089213697,92.74738441679122,80.27377445791065,70.62103118252402,66.74081822628402,64.35512821331987,59.383936130667756,50.719500293485865,39.316190906900104,26.80702271568659,12.64784472928602,-2.4835492423328067,-16.081904228518166,-30.34148063762643,-46.601318365179004,-63.11976947650616,-77.79375161594855,-88.97657484275703,-97.72028830284519,-102.5322072793623,-91.39791538907414,-55.31329985798123,-6.9884254968470225,30.483644988359305,50.75408603600158,63.051821300341096,68.79474592398287,63.16070001466727,50.85393272250992,42.47535435824627,41.53318109678833,43.190594029148244,41.083064016107855,31.553743995926737,16.750077440957313,2.4385559353288047,-9.257280435885491,-21.13110682533255,-34.20660716910894,-48.2879110163822,-63.15138848800733,-77.35478065408776,-89.0698555825991,-95.25543796465094,-88.16566778756446,-60.26097727455675,-14.96092403042514,31.41107128081038,65.91569270239933,86.4224259825444,91.4420894015202,80.73277937975875,64.33027020485363,57.560207237496186,60.76000719312298,58.84802330493791,46.83512224785262,34.00851455174535,24.999356056924018,15.071850306617467,-0.006131147309848359,-18.37880927681525,-35.73123721379093,-49.258458220741176,-60.989753351542085,-74.00423631306191,-87.98308138190528,-102.89818119460456,-116.17542232171964,-117.16818037161897,-93.03764953737485,-43.29179726803199,13.788384652797617,57.27396594933752,81.78663070124107,91.98950727684405,91.17375304382887,83.07802313392109,73.97001446709798,66.86284884742453,60.86930971068967,55.46223342155396,48.9743069609408,38.66467344863026,24.530179041702457,7.900627406037917,-9.497396758672918,-24.773234827962614,-37.1633989128964,-50.6324916402605,-66.18832491726079,-81.97280819105276,-98.57131464954276,-114.09902303641732,-120.70490530014649,-107.56972149288653,-68.6264734757921,-13.15180634589707,36.92380214142171,69.37084643266137,88.58239193597515,97.87309514203295,93.49248065676173,78.91111153695677,65.06988909686486,57.87227899523958,54.622478087950704,49.546942405469295,41.032900903514,30.77329722606893,19.057265970115203,5.253766068500903,-10.040636099251355,-25.168854752227727,-39.58903709215038,-53.62957163256428,-67.69512833542716,-82.99297898161949,-98.0814378061626,-107.67313636417586,-101.3273695828506,-69.0447783119634,-17.76904932549014,29.88821416322833,58.30462033327016,70.53720515352418,73.16944637899915,65.45314297414849,52.66851517995501,47.1518007303108,48.538384082403745,65.0,105.0,77.0
-93.40128502170965,-56.734867985585545,-1.0827968117970843,48.3954184136455,75.50995887357442,84.76082402011222,84.46146884778602,76.52023744093157,65.22931272853002,57.03628310544825,51.63247567147677,46.514277483902575,42.07147904073084,37.0160874528443,28.476904429066376,16.51653853333449,1.8586550194619234,-14.75187872833375,-30.44307460980927,-44.151912272876466,-58.568499901543625,-74.109360382705,-87.97355180119894,-100.3955901424786,-111.74132747758739,-113.8252835703719,-90.76267070644559,-39.866907310503635,18.083899192533252,60.495381489920646,81.6613710065102,86.50477574377251,81.79385439168331,74.89662399957487,69.96441953505067,66.3571837770457,60.88636648685537,53.89283177931369,46.7588578417542,36.35164679551604,20.886669615113195,4.151266422711019,-10.64983732806522,-25.18335310721573,-39.742569326477835,-52.90165616535295,-66.95343615635878,-83.00347898771585,-97.02823394542807,-107.8547009256299,-115.87103483993967,-109.18645239432342,-73.19537586072153,-16.606534903029846,35.47862790995362,70.41366255603347,90.86573227427242,97.24235262025302,89.44333270160318,76.86048108014825,69.02629667600903,66.13454780091924,63.2812241571587,57.25325456285159,47.619434514338295,35.789804190617176,22.94272736191468,8.22339581738215,-6.560313641200907,-19.987084247110406,-34.887334016438025,-51.43817092632405,-67.64817027173046,-81.39693445157812,-91.66284895957473,-99.85464000918924,-101.63492949743859,-83.43258861876987,-41.5268765252218,5.713990285962476,37.78117697736069,54.77977036077313,65.65171220314481,68.36936991167812,59.80800253248766,47.66156346727919,41.55982842575777,42.03900899941766,43.21764036378986,39.11487113850667,27.58073634888435,12.336584363780899,-1.1209308440565493,-12.55531871264368,-24.808438724652248,-38.16227258847606,-52.54495132777365,-67.40790580526959,-81.07112899404729,-91.67077463160548,-95.00109688445986,-82.38330630752735,-48.398657280979506,-0.8621794806953178,42.82267295761224,73.28625786398392,89.58457118899935,89.76406946932364,75.84207259748501,60.930588267324694,58.02229195724994,61.34895055187666,56.116353997691405,42.78579893746556,31.10991615706366,22.51801359230379,11.262918021338175,-5.158413152965397,-23.68652769614907,-40.041576332933566,-52.64150887093557,-64.58851283699612,-77.97293732582716,-92.18970980734817,-107.21423921624377,-118.36491578983012,-113.15830526798274,-80.79551203033026,-26.451224242953916,28.3276374359673,66.14923459452875,86.00044239056939,92.78624711974432,89.31836483321003,80.30360832279284,71.72596140030564,65.0552603808696,59.270563479680355,53.837455516206184,46.452925706551135,34.910201815314764,19.927235155444585,2.8414015450076833,-14.258679821141769,-28.527586452601245,-40.77068990602596,-55.01933685096108,-70.73657748570714,-86.65772452040986,-103.40967176820145,-117.3930176929969,-119.38547387847804,-98.92816031437718,-53.40916402326856,2.787564477915026,48.126476037101774,75.93836459833055,92.42190001524622,98.10211080772238,89.87043372089795,74.40220764500684,62.2832075716222,56.80567130390019,53.52216087837507,47.381379355106986,38.185733537216436,27.576955177133918,15.286120547977317,0.9233649756360285,-14.495167827533173,-29.38341480493838,-43.687577168658756,-57.633826717289736,-71.97253107203004,-87.5374971979873,-101.76267924036856,-108.06389740436906,-94.7923412570479,-55.31695817183884,-2.599240820481582,40.251122500590455,63.072536906863675,72.23755476843755,72.0242608920028,61.71250288447582,49.96763084344175,47.31303409365058,48.613982350591165,45.028316546080006,37.75416522884754,28.06226586380615,14.91472079352801,0.982002790017207,-11.543668951987964,-24.834278393977026,-41.76061350140013,-60.03145829656766,-73.53128435607472,-82.4837751012218,-92.51249682408039,-103.6729822205748,-102.807082290414,-73.40689419898379,-19.486115226613045,34.46577008763024,72.07328000425112,93.95964417541262,100.70023052957448,93.2427877685171,80.80799644037714,72.0840272280521,67.64132166213722,62.74036729950094,54.59744564606045,44.19719464567422,32.217577615740126,18.488873078518832,1.8490770542800987,-17.66467303302353,-34.058979387809714,-43.395273264280505,-52.3380342245723,-67.30085724577434,-86.2945642607445,-105.13698459866991,-120.74125099831976,-128.73415327071078,-120.90254582718266,-88.72948865964104,-35.35345829806795,21.317009217097656,63.604733362233134,86.40901821292697,93.48855257358147,90.51687334872827,83.12319825449745,76.03349125311547,70.67485092712916,67.28561675176901,62.2097821396434,51.25883489160372,37.455283680476704,24.899562669638023,13.033558273082914,-0.03546216034407779,-17.276401973033614,-36.74453211184891,-51.26563761324744,-59.94565647227744,-70.60884939293265,65.0,105.0,77.0
61.92388158246102,54.809242263345745,44.33451106350667,32.20362481840758,18.894087017456812,3.7915475547546023,-10.476661346654737,-24.047861890475538,-39.58271742045721,-56.24585137475212,-71.96790869391208,-84.68053726186587,-94.21380987471298,-101.54303695955136,-98.99966234622853,-73.31020609186706,-27.27686857208077,16.976386985914168,43.75426593500773,58.40478594262274,67.57636020361085,66.90771493107184,56.14340158275477,45.04939316011116,41.2349821357576,42.60104287098106,42.779085151543526,36.483002455106615,23.281102040204818,8.117608329542238,-4.486456510616253,-15.952291503710551,-28.571871029971636,-42.20897674043025,-56.8505256649798,-71.56297892034624,-84.54321567699321,-93.7074385019788,-93.39510290767764,-74.72231314168828,-35.32173654898803,12.838425424342722,53.066163076816515,79.50085881835126,91.37801826804167,86.81872357530963,70.85619043548638,58.68584934513132,59.084044703440945,61.08347572084295,52.6407318884573,38.95133315761806,28.521935835472004,19.783954399520773,6.98025186262467,-10.490999094385934,-28.79737219311898,-43.997749625008375,-55.98104772687306,-68.3336095757719,-81.99416073938534,-96.49612224316652,-111.27022429738706,-119.18299541523346,-106.76867141761169,-66.58756869112052,-9.611408777594784,41.31979803179148,73.4928830553574,89.15232078722472,92.70693639654452,86.9845724809924,77.60578497367213,69.65715990878664,63.31096867768512,57.71852486425577,52.051588595581826,43.5563585140576,30.87145136130224,15.142560300819117,-2.2287785838967413,-18.75795299581375,-32.07695423033837,-44.59573644747481,-59.52881251370617,-75.27729890769632,-91.44802894920369,-108.05617511702161,-119.69811756687415,-116.14602948597417,-88.06579420438504,-37.23604780297103,17.694631823078215,57.763781467984955,81.62430327851784,95.39687242778847,97.08032912343434,85.61632982724721,70.2321685426156,60.106708014690014,55.924682809005844,52.14316668923193,44.94758763485425,35.24142102524851,24.238232604245727,11.331994744718088,-3.5023649991699783,-18.888742072053038,-33.55191577862698,-47.752226316366716,-61.66415456019825,-76.3817454077135,-91.98902273419428,-104.82796771404934,-106.79897386041924,-85.9155200504313,-40.40417261770551,11.64402753479932,48.807584188926725,66.73531298274794,73.21058113563635,69.94695201079234,57.82383139747186,48.16710205742015,47.82888440848125,48.18275005559918,43.14446535442839,35.27671651851884,24.579730495854967,10.79068711654021,-2.753019061391313,-15.142851970875812,-29.310422219274013,-47.18276078371212,-64.59974162683035,-76.34885551325179,-85.06779204513667,-95.93648894680392,-105.53060402761254,-97.62076440389414,-59.4457609678608,-2.779930503023076,47.176051403004976,79.86620414513798,97.55673279200468,99.72776413858448,89.65469659564897,77.72132136504094,70.52791153042891,66.49030485993157,60.71302261039768,51.76507429235866,40.898807363771226,28.454025824763878,14.058099509571862,-3.6457320832371307,-23.07251447257678,-37.361036601589966,-45.5857992526336,-56.00086383253401,-72.58060631320457,-91.89937693983725,-110.12088219173492,-124.1082467602744,-128.55729644197353,-114.29147933809568,-74.89838719005192,-18.362390276399562,35.49310481395442,72.12293741376523,89.81227382532646,93.42671819432957,88.57009011321264,80.93377833355075,74.2761060113618,69.5477490826954,66.26719220196867,59.65691366129642,47.3006629605416,33.657260437683185,21.474168688329048,9.503173409635819,-4.504970976189096,-22.977373920565455,-41.70088305841124,-54.120617781223245,-62.44265966842522,-74.94170257677348,-92.65262130603385,-107.70398706581548,-110.71911085768154,-92.98731324438421,-51.64366012934302,0.8974546401128294,44.6301795984503,71.84891933891473,84.5484839767586,84.15435145531164,75.61019579048296,67.8593938850984,62.680093177935206,56.366391029743774,48.344555900156834,39.5361955208895,29.273103186778158,18.38886475207202,7.4017991949622965,-5.640000751489333,-19.648217344089918,-32.35638422033783,-44.59225868491994,-58.5940939101898,-74.36193367268483,-87.95004945211083,-97.5108683415972,-101.05047608095666,-88.35506775733302,-51.52030987897202,-1.9682208516624167,37.71612402455768,58.42019982438886,67.0311064956497,68.9789227585745,65.20424038814231,57.91357221504162,51.4080451354187,48.483764515314036,47.149983400085915,42.98603353780686,34.645720491694306,24.722675058715165,13.082032463667874,-2.3406038502129203,-18.90194490825246,-32.932140591538825,-45.15187666377529,-58.18488523331263,-72.21114448740403,-86.04244443315599,-97.52225232512771,-99.46939427453793,-81.21385256154306,-40.42582841002616,8.306957472661123,46.559559370214636,69.33627574203211,80.78457947879635,82.89983201820134,76.60182261507019,67.45193812999494,65.0,105.0,77.0
-114.80667340138939,-118.2664005596497,-97.92558950762913,-50.88102674106094,6.63690389262169,52.630598482562164,79.45831656015943,91.31337048150306,91.82361274001975,84.34748236454388,75.07160489414431,67.72164745192693,61.62595801052864,56.18101033592591,50.017119985201205,40.28875896665343,26.58330381421373,10.21125385825484,-7.234334732795852,-22.947829322251614,-35.5491769792002,-48.673054724692385,-64.08613690170314,-79.84509556101978,-96.31801074863762,-112.32190052290908,-120.73326082704794,-110.78959186699785,-75.16903257389711,-20.714547402356384,31.215299404742233,65.99194907623267,86.5539571109015,97.35449777373422,94.86949925717687,81.04262427295446,66.56386895829415,58.47372064345074,55.0588847709798,50.44178175638238,42.305026963960486,32.206450880470236,20.733518518271104,7.207108117890016,-7.976017993059435,-23.20463160256487,-37.68989834477395,-51.78127212248344,-65.76708721241386,-80.89395492924095,-96.23230745176774,-107.029910997926,-103.55865281235073,-74.82496572182038,-24.92124382417793,24.509500635980167,55.6614782590602,69.51336434401753,73.38411342748287,67.02838738952451,54.172175137099174,47.284397235667385,48.366309023857944,47.223698397154166,41.06434152774662,32.5638750380629,20.801056520445698,6.712510879314075,-6.363559897789544,-18.893993181001743,-34.14655111650505,-52.58106923071752,-68.62421417291756,-78.89616927174728,-87.88800498386549,-99.35865313890673,-105.91451138287964,-89.7143348928274,-43.83358993596916,13.23410379756037,58.34650812613439,86.46013501736375,99.8240844207277,97.67061356152229,85.94644192435572,75.08937956148576,69.26013791102778,65.16202091112702,58.401361656654665,48.785365703130516,37.46896165260875,24.539376387958665,9.334872740707258,-9.338282156389742,-28.004522152003645,-40.07542656372651,-48.00236876167991,-60.23604979903461,-78.08342916949478,-97.40503170564955,-114.76515085253422,-126.7123179491606,-126.80756721330528,-105.47687743144591,-59.54235705391884,-1.641094481084907,48.13318278884211,79.02182594856228,92.0419988479377,92.65372537554265,86.40420510540982,78.85005054258744,72.67705765369303,68.58520455640901,64.95336339889252,56.56180161533925,43.25696452702683,30.013974269558407,18.06208176032175,5.821068649713964,-9.407389817485676,-28.72159826659632,-46.05956631729408,-56.58155349220654,-65.34922328951234,-79.77736183910807,-97.69669201508343,-110.21737022808468,-108.05561139660742,-83.25298384057534,-36.674352686017954,15.105885575460086,54.14761472971486,76.9257227765158,85.69582636242512,82.12023963616807,72.99934983883311,66.26428766844386,61.08229323477838,54.15992937878141,45.891714713969826,36.73949627282318,26.103577564383357,15.306366603924054,3.8854525616928894,-9.726799955288728,-23.47828603644132,-35.83918596527082,-48.376306858773845,-63.09664621527084,-78.68840793833385,-91.10839225686287,-99.44446224894027,-99.63309385215636,-80.11578057007713,-37.50322771624796,11.335202616980041,45.49712157902424,61.76885209318673,68.2145770645046,68.42932888690669,63.29410904584852,55.75323999793907,50.193311845249376,48.126690326011754,46.40137976963781,40.92075292768469,31.84094657622434,21.667844933830178,9.000639555632196,-7.224030760694897,-23.275795121845032,-36.516582141256066,-48.76818061456255,-62.18820202854461,-76.27592538591861,-89.79155612482123,-99.53888283441289,-96.66341321669641,-71.39968344323545,-26.215818880761407,20.967137440097943,54.589951888429006,73.63491659169877,82.35611168621395,81.81212237626569,73.87474904030465,65.42606418840886,61.42486300860957,57.18165987835255,48.623687427480164,39.1330710108301,29.629060399553225,17.389828599245632,3.851498363116165,-9.72231732280359,-25.568380460856496,-42.1134216652195,-55.50689991986998,-67.78750926192772,-81.98603518275918,-95.09954521660106,-105.55799621421733,-111.14119293620644,-102.62239837596046,-73.24115845425109,-27.534363069887476,20.112059267348545,56.17069371418368,78.14800749550635,88.04908391504694,86.23354707843056,77.28454703356124,68.86616777285533,64.04287246464256,61.5336819780832,57.68275901774797,49.43717218689251,38.43906455664821,27.580242708683055,17.076490849939578,5.077825211026635,-10.197654130074245,-26.676164165386638,-40.763997606505306,-54.60030022744627,-71.33685436021476,-86.50101110375563,-95.33544688017236,-98.39566510542566,-92.14550997859945,-66.89094651650889,-23.849271401675516,20.01875670177865,50.293698242432335,65.24002392952576,68.86042831406577,65.58455101844075,59.755334881589796,53.1451125620841,46.249544229421424,42.03292331355771,40.72189189174452,37.96238074675262,29.997554969298275,16.12120439896754,0.21882171303372455,-12.984655926260462,-24.01790540978701,-36.4330872848477,65.0,105.0,77.0
48.636618584304465,45.805674507003296,38.833800961912694,29.55759967327862,16.802910680406995,2.7552116156724784,-9.909159141083332,-22.888761730791412,-39.302260164834365,-57.76411484124313,-72.09778543690648,-81.3435361473644,-90.9921627199564,-102.46263119953171,-104.32502031783211,-79.12564078397395,-27.254898434319898,28.090733251259365,68.05528106778344,91.8727493078918,100.73095580483938,94.77808583226432,82.36386921964544,72.92981778576296,68.14460677592452,63.57305114421512,55.84535467373654,45.674422165464605,33.90576746396243,20.446780304782756,4.286295953921011,-15.067189896226964,-32.30797866703666,-42.392771487757656,-50.84607073657504,-64.97496925300456,-83.69686387914619,-102.74699290071642,-118.97616850632303,-128.35980881285283,-123.22924907453574,-94.48786847201798,-43.129853194350076,14.324580403961681,59.11312568384281,84.40363161069997,93.24338657336165,91.29879141395655,84.15649326727518,76.8916341711199,71.26084129746967,67.70189677098377,63.19718493683327,53.01161984269315,39.25850137946703,26.4940175164779,14.631212619640383,1.8896266805744582,-14.717020666350951,-34.29279971057588,-49.76761728893027,-58.87513183455288,-68.80931913992382,-84.94773990466162,-102.28564715402736,-111.50398939963182,-103.45009919275282,-71.5746028003868,-21.25719706128012,28.124530021160204,62.27842918183958,80.85299300893543,85.76768776559332,79.60305456193791,70.67038714999606,64.80887681033228,59.304443460204546,51.84462656281294,43.379916528164735,33.793891460766595,22.939087808279876,12.18619925725449,0.14840048733236638,-13.816997480947604,-27.167124991201636,-39.33449794579569,-52.364317982220854,-67.70229624410116,-82.71029221922988,-93.94715338992573,-100.77096627650243,-96.51658670186566,-69.7860522147199,-22.933639462797544,23.26610778143637,51.7031911870481,64.35104902107973,68.89299105912787,67.41546889637013,61.16947212915597,53.78001150796473,49.304535623427164,47.80746731791989,45.30454941057551,38.53191373172111,28.985428433426836,18.4025867265188,4.577314053692055,-12.081398138247293,-27.37831536390933,-40.01772775482862,-52.506143166059786,-66.2478325115787,-80.30075726307997,-93.27170632689558,-100.51668855463595,-91.90326604300147,-59.797143409821786,-11.861027933361923,32.375631886050186,61.374491183626276,77.10699728092482,83.14742494449187,80.06427587976893,71.11173056479852,63.85851149915108,60.558516777822064,55.08937662613475,45.797322912257464,36.52510911786476,26.410731474532952,13.462560739167573,0.020836102976389076,-14.017518600929714,-30.48435170780255,-46.36332881897229,-58.935210904887796,-71.74005693715394,-86.05500767501609,-98.36841415616948,-107.98058640034158,-110.58897600204732,-96.31661667643009,-61.204023780909075,-13.223342350350093,32.052606696743815,63.84638024965199,82.2362692339643,88.65298430705042,84.02471785135363,74.54023957850312,67.1090393302498,63.20208638417349,60.75637513995329,55.77103365351474,46.380549280829015,35.22447259995647,24.561040240611447,13.876879173236807,1.0043717525998725,-15.037108506862177,-31.03769094618405,-44.54804368156258,-59.19418790057395,-76.19822369753568,-89.7372645987895,-96.78634630102283,-97.95980592442304,-87.119111570803,-55.71621318910124,-10.397618846005022,30.454701093881162,56.03576627914204,67.25843877051278,68.41584513306566,64.01240065432472,57.932814112462644,51.08817927262112,44.62661395602113,41.506903255373786,40.28295863045309,36.30022825698516,26.511041354673722,11.475986948998345,-3.978753099740767,-16.2157011681034,-27.393653381224173,-40.29086135445561,-53.61484409062616,-66.4960248368234,-78.33416311784788,-88.50550749424643,-93.37529269023186,-81.60665526513797,-47.41084072710179,-3.945726267227442,31.109129428209656,53.39750217476371,65.58873556585887,67.0140491831445,60.44332352958844,54.47180546444249,53.52584662108281,54.26553620050961,50.66539535996727,41.34038330578271,29.916222088492233,19.899626863418124,10.769848028784788,-1.127472987612616,-16.140629517535643,-30.765021003453903,-43.24977610022461,-53.30952746622599,-63.09806669956523,-75.31884945960122,-88.66230488793305,-95.9118472080749,-84.72706815179394,-50.6905835651018,-6.453849347985631,31.92192862265787,59.3402207043923,77.40287182101896,84.71968558803904,79.0801795985133,67.69500763293857,61.33470257530914,58.707689783957186,51.35226610847816,40.62691021118412,33.7039606461034,28.102424673842016,16.69881275207363,-0.46007696435020895,-18.338463773434658,-31.99366425568634,-41.48309761570374,-53.065214978806964,-67.73034049486922,-79.28406538554438,-88.20655016974271,-100.51335720482506,-110.01477494507711,-100.18616699615602,-64.6641361495899,-16.992384780073053,24.844261169133798,53.856736837852225,70.00056354529579,65.0,105.0,77.0
-72.8740011143038,-90.2378115300423,-106.19328934806292,-111.34200981314918,-96.77591527736602,-58.23835420337249,-5.9643716511979425,39.75645921113411,69.11190534117718,83.64334828545807,84.86066830997001,76.87099661748195,68.6749121623781,63.36904201891706,57.334426486103396,49.46022766359182,40.777082863169,30.720471452210568,19.814917562783286,8.951516283733252,-3.780815149474276,-17.83513444533535,-30.73800076386213,-42.90453057437098,-56.577997125486476,-72.2899784374241,-86.37920651030683,-96.46819553971122,-101.22448889100477,-91.42152738831739,-57.62783735970576,-8.44840396418516,33.55564612433973,56.56218702686867,66.3119897689164,69.06742527014116,65.98554398596065,58.94188424725459,52.08225377214691,48.69326583937848,47.40102779250429,43.81082317777423,35.908237145423804,26.085281333884012,14.840985760009055,-0.1156749829061332,-16.798727026982043,-31.228360908002784,-43.51835934122499,-56.36775359167876,-70.32983393916278,-84.2557673126681,-96.3200691659441,-100.16185707429186,-85.06777543487179,-46.77654387911757,2.1164793481779167,42.40526243098806,67.05268823165942,79.80059344143149,83.15532073890368,77.78461398217472,68.5304093126241,62.697261939991684,59.46559818848843,52.62825650567947,43.023293332386224,33.85543474962891,22.909482780045938,9.52192403041787,-3.8402691851170294,-18.562055781848287,-35.35326078021255,-50.27437818195492,-62.40691442968358,-75.86686270401512,-89.912589227322,-101.44364696381487,-109.87120880100952,-108.58064161708411,-88.18615374533125,-48.03651081108648,0.828079225737808,42.77604379073056,70.40750761671718,85.3377712450579,88.28716056267132,81.40310400083668,72.01546939502803,65.66295954147233,62.50036817590173,59.75322874498192,53.45199745233241,43.184227851592915,32.07170878120166,21.551330943624723,10.489402889900392,-3.369862420787354,-19.871355802098993,-35.13354843295324,-48.44693950202825,-64.04956663858374,-80.73997089215354,-92.39390531401466,-97.80598101355638,-96.55629654065895,-80.25194894981438,-43.28741379570328,2.612746006830331,39.52806769264803,60.56719558394254,68.43669141450661,67.50684608157073,62.327340284364624,56.04452614530241,49.03798335575353,43.323722368594204,41.16170148778015,39.59874488230338,34.133108031078265,22.549914369072244,6.8049615607883815,-7.86051526662973,-19.352431277016834,-30.954663897831903,-44.17011928792255,-57.392524612345774,-70.0633018314623,-81.47264948945099,-90.84059017182845,-92.24036227617052,-73.7976409382332,-34.87738109478086,7.528896337458477,38.72954816701532,57.9259557361764,67.1432766465292,65.59835635274197,58.297348844037046,53.710059895576364,53.84633470806578,53.86984249576787,48.44543615632995,38.062104691389635,26.797403212116354,17.322686930020996,7.746659093141306,-5.281573549774777,-20.538765691984768,-34.61876541031772,-46.37788826642694,-55.999206102697116,-66.34796452744479,-79.24117147485167,-91.89200285682169,-95.07366343240237,-76.97218333959115,-38.11848553251257,5.69585759401229,40.92370393013949,65.47606242856705,80.802534791874,84.3285064301484,75.81074340584954,65.10087638697996,60.59602426302939,57.28348139921911,48.2213600647631,38.10903584601133,32.31711802832519,25.572640106462746,12.13957949848014,-5.795782396183885,-22.871573227892387,-34.93657228318855,-44.36216680440379,-57.22373660396329,-71.60270130905727,-81.81690575132791,-91.34574390062177,-104.24199271400171,-109.80757565754166,-92.2999806448714,-51.21134601284649,-3.7707470820460522,34.59941563850971,59.802353916878666,72.40588619772926,74.09092815624962,70.20579326381869,67.25955158859028,65.45266413232956,62.31218563171187,57.74664542944072,52.301002762228116,46.32231438584853,38.10911374079673,24.161012057969515,5.694325986206049,-9.609745503489641,-18.734188004364807,-25.7675446392379,-36.509758927103604,-51.84498906908603,-66.107883969367,-77.10314071112883,-87.21017205623279,-90.8904730344671,-75.98974805190375,-41.56277989163826,-1.600058453915655,30.336528447848497,50.681605178287256,60.12828275780676,59.79892863353791,52.930482469268405,44.74239196297213,41.76560073730459,44.559822505019,45.21045394139499,38.2548874331765,26.846952828489776,16.705843435756048,7.068916876015792,-5.585529791498248,-17.489947083584198,-25.127901545907953,-33.18247444573049,-44.92059206952031,-57.79880805282728,-69.11554934994129,-76.93187822818783,-76.61991010234004,-64.46222302450214,-40.54732146955845,-9.279777014046264,21.076039153553463,44.16557315256831,57.382587519637426,61.29090253212243,58.39210708841545,52.378064358037136,47.85546921491153,45.711788867198344,43.592773521351624,39.72070733590804,32.11534919192225,20.29815877382858,7.176566457910844,-3.8219129344168357,65.0,105.0,77.0
66.30374927856897,61.80169130927584,58.00190107312369,49.91811392659088,40.34257995216545,31.01806304652376,19.170735022273806,5.627494195635461,-7.822189712398927,-23.322386785247616,-40.04290923979198,-53.90056059312007,-66.0396553030423,-80.0635295296108,-93.51925003439821,-104.31819512912335,-110.97519683501248,-104.91212099645205,-78.32366548226716,-34.1038003884657,14.236058250498504,52.23162777730457,75.934014153148,87.42932784972012,87.05336560277708,78.58944496979906,69.78564722946396,64.49751226207248,61.847469256312934,58.42483895340384,50.77251303653577,39.93542546515395,28.984634483975388,18.506981025772617,6.852083070143413,-7.999568607506137,-24.57753372854199,-39.01633121479804,-52.58801054175318,-69.03920131182463,-84.81073937849203,-94.51819421088221,-98.3441559297587,-93.88560614664405,-71.51615332099243,-30.068433995697497,14.779439017572193,47.210234295665245,63.99835185067315,68.87685681221214,66.25020181426665,60.57806530707144,54.077385896796955,47.086806324411086,42.3653950581735,40.87251015473731,38.57284556769354,31.42812745030285,18.212290177804434,2.2484698152196656,-11.42995747579751,-22.518911989956933,-34.67707719402809,-48.03250000215819,-61.13218300535559,-73.51726608339209,-84.47415524460325,-92.57433815302034,-89.36587293040081,-64.13235852545274,-22.081212178051395,17.95358094254346,45.33680868911523,61.66091084914022,67.74483654613185,63.67086556302032,56.43393228427019,53.38886290078801,54.163790610410956,52.96996521302695,45.78953916078387,34.71813561648571,23.865352882209063,14.750205811104228,4.395719987287749,-9.639054838812214,-24.81286312902636,-38.28000227541954,-49.29980931781803,-58.76004381286169,-69.83960530512282,-83.18691769007681,-94.3650824462445,-92.36716195718343,-67.36071216000316,-25.16063242191364,17.038472847189407,49.01272902486931,70.8826971233898,83.20675987433063,82.84297813023277,72.36546496116223,63.1387298107036,59.97332154241442,55.2728031264917,44.99921157115054,36.04727586089907,30.849286656848854,22.416192134193683,7.191522611675995,-11.057671497257338,-26.93710912599697,-37.62087642063792,-47.59931408558183,-61.54585358450932,-75.04137492904826,-84.27919558803944,-94.89206774318397,-107.39889281732886,-107.56123875360122,-82.30310093469957,-37.256588499183444,8.60474203845801,43.231845132612975,64.6965908702326,73.87096268377006,73.19689087937577,69.10430437752454,66.76217659770793,64.72402303020316,61.1125588599037,56.2406596277832,50.638792233391534,44.339164812468695,34.773132613529754,19.004538191305116,0.6314435083120047,-12.78292556785802,-20.71326017021706,-28.292871248618926,-40.65359614974995,-56.333668109658724,-69.50618981220804,-80.11483979209385,-89.48586291659275,-88.88472022022673,-67.61822287007554,-29.824030265463254,8.787270027443407,37.37923683439,54.50614689599745,60.937937545886484,58.294856134317236,50.407676723451466,43.12167665282885,42.23424524090719,45.36680486326533,43.98647508198684,35.12440004168321,23.64964791017245,14.095136503975107,3.711837697501003,-9.405853194244521,-20.042799070544223,-27.13741026043576,-36.23653538934994,-48.68839355216317,-61.29094654116682,-71.88137222698022,-77.91777606374923,-74.38072542830571,-58.67004702528425,-31.934086619210305,-0.05328604124363967,28.66775353340318,49.03363395535605,59.37238450411426,61.02618069470461,56.75698140291837,50.77255304950675,47.08228139436599,45.1923559037351,42.728031753406775,37.99325465911292,29.058536967684983,16.461095041964896,3.687168452197125,-6.433891619151978,-14.456339552149172,-24.09469466883504,-37.52586279392851,-51.434739039292005,-63.990386175741996,-77.42690009258945,-88.96927532669129,-89.92950574346727,-74.10986042088355,-43.04190179122441,-5.526162971753897,28.695455824379827,53.95199095798028,68.23507499274336,72.34379106057155,69.20524730978028,62.98880156676903,56.62084813127306,51.705971668379476,47.62293502466586,41.29316736682467,33.030435848814555,24.467047305895942,12.861903642524764,-1.640656244074644,-13.701480642721087,-22.451719483485103,-34.375538960847024,-51.39782631650689,-66.38820429202228,-74.1153118887747,-78.96693575077813,-86.14048231768417,-90.94234076141828,-80.56177200323036,-50.145376599491854,-12.302474080809661,19.04574264370367,42.97507294625405,61.1442161938718,70.92245020189655,71.31859694214923,64.18944904242768,54.92678598923605,50.08689050517077,49.48222796381451,47.644839187596595,41.78147622740124,33.10682012716655,22.425894135021498,9.884755438201472,-2.853585639030206,-14.368982294048877,-25.664003173272864,-38.07833567863863,-49.97532682793854,-58.73815903388339,-65.4069710326447,-69.77082747679778,-65.91364324621192,-47.77953952275536,-17.22941734548004,65.0,105.0,77.0
-38.50647885100086,-51.86151661769767,-64.81982673820619,-76.8440065940163,-87.29389688970882,-93.39832740460112,-84.52767207718742,-52.95057318770285,-9.529942032627334,27.224699800310685,51.04421525023798,64.55550920736863,67.43485280872467,61.47593553005155,54.983058533881284,53.42342164333349,54.305085410037506,51.51874854847917,42.800346964161314,31.407429655886702,21.116755244814478,12.071236818184047,0.6926166130923389,-14.088530513134659,-28.926896742306514,-41.732464007464294,-52.06545645972449,-61.68032611832487,-73.54898344430643,-87.00279529694353,-95.74248397667051,-87.61939856959745,-56.222475535060916,-12.268433817157156,27.44905927614038,56.26163598236591,75.53292389784262,84.50918842885454,80.4329353659277,69.07838140522345,61.78724984663904,59.191009984726,52.69631701171158,41.932112892674795,34.3798862737791,29.075835550248833,18.635410156492675,1.987887577522048,-16.112798197579107,-30.506248023001792,-40.240613926685995,-51.250177211493806,-65.82720324895993,-78.03305817678067,-86.8955182847826,-98.72155757764877,-109.51655253018707,-103.05197705265361,-70.54798291686916,-23.304093398143152,19.970103533477293,50.75527589433761,68.56010433293446,74.47865688285076,72.02281680465698,68.20917090812564,66.28365959817222,63.84638074788304,59.809782466088336,54.672639858636764,48.940614491958534,42.09075738432728,30.870425089725842,13.58905599165433,-3.9500506503286714,-15.466191212603457,-22.657172328725668,-31.26854092278526,-45.11563902028518,-60.55652834051499,-72.67202406278271,-83.11139456545473,-90.9526006167509,-85.03500988532026,-57.77891034220774,-18.06298117140756,18.264521436811002,43.46169860954785,57.43323226807895,60.97250563610276,56.342950208923405,47.92281443368111,42.10133508575096,43.08860235241991,45.74851931110623,42.08020816063061,31.774796845748615,20.67982147618475,11.408043195877175,0.0564322525606171,-12.979357689029705,-22.240458224178617,-29.35781543776414,-39.6046707881218,-52.45230284361044,-64.61594976530513,-74.29586725933383,-78.07836486893166,-71.1062137278701,-51.92245427173191,-22.871015006159247,8.880184525302518,35.54281815476165,53.04209090196121,60.63133505183655,60.256432355666966,54.974123582252346,49.39819579061158,46.4698340704157,44.6143528770355,41.68323595234263,35.894629262899734,25.67346669003293,12.614583408476129,0.44303968321545767,-8.84566849672809,-16.885340788828458,-27.645813344668994,-41.69578419576687,-55.112766703176526,-67.74178933180913,-81.2891454481345,-90.72819001094804,-87.17557284745153,-66.41649262329575,-32.38172893973342,5.036451828531972,37.058258714440726,59.220410357784225,70.37316741213414,72.00362270181346,67.5546790058233,61.082083098241206,55.00536388741798,50.573129463170176,46.11678130576597,38.97098246671787,30.645711874388297,21.560107120169654,8.773471049323676,-5.598206419639471,-16.347313467037115,-25.28858228872012,-38.9662559799895,-56.333543793263914,-69.33202933783443,-75.47743495478153,-80.77052149897636,-88.2835681301413,-90.03400201855617,-73.56350273748092,-39.1582673002489,-2.3127222373078675,26.558954028407104,48.8915422120227,64.94695673247773,71.96133128822116,69.87906731038196,61.39333486800616,52.910393205486415,49.692753520438764,49.3033541466613,46.35082909091763,39.490853441445694,30.23378012767046,18.953001473612147,6.124462828886227,-6.3068090059599475,-17.567248225166146,-29.134951525643235,-41.726414926119666,-52.84931333670819,-60.79124301896242,-67.06969953534264,-69.84863873652884,-62.25675412808719,-39.872137112141296,-7.575525445554576,21.428848812651538,36.57785937489609,40.58032013833503,41.7005008028476,40.69488767646783,36.14755809992442,30.579111486503415,26.914440832813042,25.034669104791863,22.11367621882192,16.555447799710347,9.805260281662799,2.250974078478487,-6.165893939320808,-15.217720405833163,-24.397199426614087,-32.90045095696596,-40.67387585750397,-49.23569821245276,-59.31089844228303,-66.0486701887351,-61.69068831771367,-43.79121125027015,-18.63637579101796,6.761519477104596,28.573381963687186,43.81972387805095,52.717526444592906,56.165771801543855,53.55227199237947,47.662389038241336,43.06289361513251,40.461171852564036,36.24692047556788,28.44912942317228,20.579484012191386,14.197966202510093,5.429393407994264,-6.271663546073803,-16.735633570983104,-24.111140030978856,-31.28884222970802,-39.59767757145863,-47.962319817187016,-57.09803227765762,-68.594813792332,-76.85424676223892,-68.6423095449957,-42.86675063413572,-14.3370509574401,8.572908073352991,29.7627703807804,49.10787676228785,59.10696755686518,58.80675499638377,55.238284331352,50.227265036278396,42.16275177138489,37.24642263071735,38.4991542497366,36.04131352411414,25.73873298787243,65.0,105.0,77.0
71.41743550758927,74.35231753158705,70.76614956913201,67.52115581045501,65.74108468025858,62.82626277522408,58.41649995127864,53.0575183620463,47.175024534735655,39.470517215073166,26.398300488345164,8.146066645739623,-7.959441941341757,-17.767151769114143,-24.727213615838387,-34.743120975982755,-49.72363990623564,-64.43698780680369,-75.71480709719553,-85.98379252274121,-91.24594721544653,-79.27338252086787,-46.84973554520383,-6.655453852663924,26.757527744473364,48.61384633770195,59.47661981248484,60.31190809106987,54.059204316635125,45.660009288416944,41.728316561491255,44.10521998894738,45.536679974139034,39.57575742528364,28.382121273218598,17.925048524061488,8.50643489864118,-3.7914966104599648,-16.168252469783017,-24.23066684304783,-31.893463300852524,-43.20751217973221,-56.13923120121316,-67.74755191892298,-76.23659595315837,-77.30815662196005,-66.79531916159269,-44.311031385335276,-13.578659931339367,17.35750839141818,41.6346865009609,56.20229907168588,61.22412007332243,59.06054475025636,53.176821820674135,48.2843206522328,45.94436219664675,43.94245773677542,40.405252231692415,33.399202096544435,22.03535616997353,8.856264557599344,-2.536503660693062,-11.131730800227318,-19.566142921832967,-31.515738077585134,-45.773701810994325,-58.70459237893071,-71.62801239561574,-84.83859849776228,-91.36478785955055,-82.9312334790766,-57.56837790669757,-21.452963788757103,15.1169164416156,44.57938730922045,63.55099397679611,71.70554693634242,71.14840907313928,65.75170147845512,59.21002907257674,53.55035555959305,49.45115238438774,44.34464267609269,36.55935864534854,28.236499272237715,18.29582259537539,4.524156473094575,-9.1942571495731,-18.799531463512714,-28.584889913700344,-43.92306297787311,-60.85842831599225,-71.63259929852168,-76.79225542840788,-82.84333886113853,-89.98789345134126,-87.50957694234178,-64.94028437754055,-28.019038690062267,6.911634945982864,33.551612917146265,54.311580512697645,67.96616180459796,72.23026092533428,67.87299806713062,58.60027704310832,51.39808936119732,49.55457797762529,48.87533841971651,44.708986947617866,37.01541355462086,27.190814807530906,15.335316879373055,2.407543678510905,-9.643313830473856,-20.796701826177035,-32.718836224884825,-45.24715109848293,-55.423842691933,-62.73369635029032,-68.48271965179354,-69.04273691934573,-57.29960207399952,-31.073655050517125,1.7893130224126679,27.384464118914465,38.45846776954671,40.996671653411916,41.75712038806358,39.69359385405802,34.48030094504794,29.26067611918775,26.279987381340703,24.441594105830838,20.73841784612842,14.67008970902345,7.723825527511862,-0.10846053748453836,-8.720547531868926,-17.90168201644134,-26.942682633466497,-35.19115218512208,-42.96815403049818,-52.08146114044962,-61.95640708087092,-66.20685518412192,-57.76666816172051,-36.88010992650454,-11.127794743660274,13.589928280688191,33.71771452922413,46.96131039201834,54.304715083261875,56.008762400925754,51.95780404485062,46.06701406536774,42.21308831521462,39.59827979414957,34.28695447658555,25.98001514458601,18.712748648174404,12.063356154512054,2.206457635100113,-9.6137920355127,-19.10546486692825,-26.065577641688,-33.61489092564881,-42.03637465612016,-50.41972806112484,-60.20268719827747,-71.87246420366743,-76.63825120662987,-62.48632724364131,-34.22775529375564,-7.195662464612085,14.665798041474329,35.83365405071212,53.235872849242,59.80958133416578,57.84602859638314,54.07389798733598,48.10645957600648,40.02125530196983,37.25761967989997,38.6523144020433,33.64932828821172,22.286121553983783,11.814992248962492,2.942446954193891,-7.413757251888123,-19.33576208938075,-29.38622294948516,-36.02611299445079,-42.80229834273409,-53.08491463941944,-65.76895841931446,-74.94919922225597,-74.53583043470802,-61.18918833151543,-36.99458018339628,-9.402884242258379,15.545046490555285,36.08924965520884,49.804604142042415,54.68956764551426,52.03248642650425,46.37244196391697,44.28896748438119,46.13131443951763,43.91320712559509,34.798384365546305,25.25281365883257,18.398234053614647,10.219843785777995,0.24008253506115879,-8.84092230980624,-16.28972587113903,-22.63962789302815,-29.22679170874531,-36.47407625392971,-46.18307796593474,-57.99768650409459,-63.20005553635696,-53.75259825855985,-32.222743116558746,-8.385579483455132,11.543717727296077,28.26574049175183,39.44859112902273,39.836110746308535,32.417417454552684,26.495525969997782,25.192941930882693,25.577762263555762,24.598373234392234,21.59273152195891,18.294215977792526,14.298401235500243,7.894976907075816,0.08820686124934511,-8.837957442996876,-19.292170379417794,-28.447611062709086,-35.30883298243705,-42.48797519082563,-51.61566582992273,-60.00494571025681,-60.966450472695605,-49.42587157060884,65.0,105.0,77.0
-5.257988256594532,-13.391677252155908,-22.580520540440165,-35.6036517600037,-49.68915142993435,-62.30392340119554,-75.59850219162334,-87.8391293771272,-90.7053837683644,-77.2180427043692,-47.79105464329934,-10.511213806653869,24.575230816488215,51.207128798754866,66.96232962209201,72.29823479582595,69.89014472701045,63.868567441340126,57.4128013917418,52.25658509792843,48.23902891307964,42.30852408477591,34.13768407425677,25.7060698451896,14.655973859913946,0.2731316424513423,-12.372185421979292,-21.25778418310906,-32.42246615901277,-49.045515772224704,-64.79814737568917,-73.41738780004509,-78.2289011322436,-85.09272371132565,-90.8949487436787,-83.18236955672243,-55.02912930056685,-17.14116285420455,15.377302838942269,40.09874358814043,59.14250434919806,70.17608247582582,71.76630848949075,65.42413548588668,56.00712756728962,50.39424123798677,49.513047569722374,48.11721278131326,42.764727722029996,34.37671587124694,23.970473570713175,11.617158130874126,-1.219808788500433,-12.890350017047341,-24.10376045350373,-36.38104924361094,-48.547422935649124,-57.740061357291594,-64.58735708155803,-69.49235531436516,-67.17370757695846,-51.06213934473735,-21.67292378479518,10.502073163988834,32.01833372866354,39.62631330507098,41.339173648712865,41.55981909206956,38.402332264884315,32.81986828119904,28.154531015114774,25.757231731462905,23.670840331782497,19.148312843354027,12.730276170847578,5.561806809091508,-2.5301664603432625,-11.329142267141739,-20.571581680017378,-29.418858995087394,-37.42559511542473,-45.38908977901737,-55.0388109615108,-64.13798447932604,-65.25377389559645,-52.74154877458706,-29.58893611577773,-3.7202914004034446,20.03451864639297,38.25495823151613,49.62127270793087,55.431081898264246,55.33105952611714,50.21294532645093,44.67644353285251,41.49361782145821,38.48127839184893,32.03570738268759,23.638816697369613,16.929132146925287,9.61435018857517,-1.2046548351297892,-12.72694126654997,-21.234289350718626,-28.099770601515583,-36.02180139918761,-44.449811298173714,-52.99359496470344,-63.536044670906065,-74.61905486864448,-74.70070880526391,-55.066954617692616,-25.79562588145032,-0.5541514103321222,20.77348588359486,41.62792127932393,56.376850918476634,59.76177898984003,56.80581472420735,52.7251322928259,45.725959412618245,38.4000957589285,37.70615423454415,38.167625427354764,30.67152811868603,18.97274509781455,9.23403379887905,0.1904735226991524,-10.805936485496083,-22.60640063171479,-31.560524498793736,-37.7721640767074,-45.34882088941709,-56.70511299603148,-69.08548310608914,-76.03124630251381,-72.04489931195491,-55.04650738493131,-29.00754307660199,-1.8018168650481954,21.999190698210498,40.89280758245793,52.12972562737107,54.560834338456154,50.414048068119556,45.17625761662907,44.697749334265495,46.2548953075403,41.80294088333861,31.76126772344053,23.118190745508446,16.333320885787202,7.382724866064559,-2.5408731779159304,-11.16310456905388,-18.174609084059824,-24.485027433459038,-31.22391638288961,-38.90905316315215,-49.622185494695444,-60.681737249785144,-62.080472466498115,-48.39705201454808,-25.134526661434304,-2.1882465043729358,16.664875111310163,32.3437725734742,40.76084179679403,38.08697077358581,30.228683033342886,25.72877407264395,25.28894868424668,25.530096540912858,23.87479244462284,20.613148700765095,17.315709160645106,12.700465543739407,5.710352988153195,-2.3134799795736316,-11.778670954634102,-22.208519192631897,-30.583686787904057,-37.222514238884436,-44.94257356913609,-54.36880694628688,-61.358602924825334,-58.999463459065254,-43.76686660855323,-19.21842457163717,6.321721602568119,28.477944653195998,46.821099169414985,56.96004801082334,55.70654738882491,48.87955439995469,42.13146762500541,37.859795435155526,38.844230446601756,40.70879826815513,34.67151464197175,21.522089427002783,8.582838816563509,-0.17410669185357677,-4.426002164798802,-8.742214194126168,-17.90383362503938,-29.75907426507943,-40.39129807216512,-48.95153867474071,-56.33125420430739,-62.272921709061016,-66.28023582448115,-67.51284526611546,-58.83722176947547,-33.96171346187649,-2.010790584824481,22.663882795472237,37.13311906082298,45.68213048780788,50.82239122065739,52.33270914883745,49.9412608133416,44.93069066817406,39.975592599399626,35.5965468099211,29.780922701451765,22.86169815536238,17.134218774153073,13.35596242604548,8.259727819096462,-2.765749168355039,-17.552879082772616,-27.573388586551715,-31.142291799792112,-35.4758602403239,-45.20484489850098,-56.97827795023777,-64.41308928778732,-60.02204841925438,-41.29053627264822,-16.37108604568833,3.6059086817966333,18.18534883633468,32.56575355113796,43.38164214269941,44.34133814232194,39.51691028545674,35.176826945017936,32.71451005357425,32.320077955265454,65.0,105.0,77.0
-12.01333131659474,18.24938746758393,35.39746837738422,40.34141569552718,41.61263841034018,41.04590231887462,36.892836579490556,31.2515096359868,27.26094422929408,25.27087195562088,22.664216450680303,17.399407547075675,10.741375034971938,3.3144790359796463,-5.006403734304724,-13.983515879302356,-23.202407490805204,-31.819720199188176,-39.64255927435262,-47.97963790423488,-57.993408754922925,-65.64086697694862,-63.097894736887554,-46.788600827329816,-22.10767603570529,3.509331675267485,26.00371797772265,42.194559129924265,51.83913077855,56.0561483046899,54.198701781662685,48.44949428588013,43.519540255114656,40.80272328780813,37.03442715262706,29.598804214311553,21.49661822478755,15.096718974898051,6.824456171882799,-4.682262699101247,-15.543458103732164,-23.216967975931563,-30.25353771454547,-38.467740188129724,-46.8501739333375,-55.750386834437535,-67.00232181094954,-76.43782220406493,-70.95635468947,-46.819658875745986,-17.82253810787624,5.73953396630973,26.926135765953987,46.91045433754962,58.47786873358651,59.187063768103656,55.74170711986006,51.09285663992969,43.26105094356788,37.44941693997327,38.28481634423125,36.89787390413178,27.33343672557502,15.89043277944282,6.7141497479976335,-2.7534854075585407,-14.287635036006403,-25.607979758456025,-33.4745715459865,-39.64526664634834,-48.24868723209409,-60.438825264060796,-71.93660235074513,-76.1821052687303,-68.42460523604929,-48.116603522174266,-20.95290183482605,5.488658333456575,28.06407099396654,45.0424946385499,53.69655135935225,53.86292587542588,48.690195809581056,44.446624097107915,45.32539226977046,45.803003351868014,39.169488371173806,28.902413777779778,21.178492102093866,14.031324245478993,4.465057876676965,-5.198504864415206,-13.343682332815005,-19.996988414928058,-26.378947977586396,-33.27549596622364,-41.63074225964847,-53.15675078978394,-62.52062885860569,-59.62042004268387,-42.20807494403279,-18.124680436067827,3.6241859471756057,21.574454872525124,35.81820192089809,41.06546045488883,35.88285778983856,28.391526487635407,25.322835342579552,25.435080020519113,25.30307135605323,23.003628030241345,19.659431117918412,16.224931132043967,10.878246901687792,3.4618778553418945,-4.841734022373089,-14.828940972349596,-24.920602125658306,-32.556069072084874,-39.24271234969301,-47.57389659153702,-56.94163922012849,-61.90597388335612,-55.90921852473816,-37.28981078572215,-11.602929909375847,13.082398447911812,34.258599378789405,50.87974677872953,57.65603627042375,53.94481143274477,46.819807803869125,40.494768024033625,37.59087023147092,39.73124712404717,39.99386553022863,31.27826732038287,17.499483611549167,5.54366759393747,-1.7683568005412285,-5.360615066066029,-10.857859766991421,-21.267550876902902,-33.05364596935074,-43.04591715540257,-51.176629619211404,-58.24751212123922,-63.60648628279357,-67.09348490005569,-66.47878837656938,-53.24339094256863,-24.710312684468718,6.252204743084636,27.731411447032475,40.03221232673105,47.4968652722864,51.66150293883753,52.02620848214455,48.65009099115042,43.39394561919315,38.73251173096988,34.122213103542045,27.79738122382306,20.995147286384526,15.899913999651808,12.261988093845176,5.780675809078367,-7.004150599254223,-21.246853766623033,-29.034132588313824,-31.95829207719293,-37.760090076432405,-48.655793960591076,-59.89730913116879,-64.64826206786852,-55.92394341287145,-34.147029065677124,-9.812272352583514,8.097426008519987,22.290573335592864,36.441497900553344,44.709909855417465,43.16070860960636,38.100462165710084,34.24243897331739,32.442322606576546,32.22765105142803,29.8180908407837,23.951817508414354,16.172455579043454,6.636130178006022,-1.841208078596507,-6.36337994000809,-9.837205357358014,-16.3158829332922,-24.255213724323397,-30.790737675832794,-38.3253474700096,-49.18306971437889,-57.12111068499344,-52.712804839742844,-34.25511850063697,-9.85883262476943,11.345477438035331,25.414963646721723,32.79880555968742,35.4110813930805,33.53234898108642,28.065707632308758,23.536582033763935,22.6696592573592,23.7014595526308,24.3281344968872,21.196441259364224,13.304199831974968,4.6231859871504275,-2.46618864867626,-8.5187082243339,-14.198451496290465,-21.206509335599705,-30.943062885933255,-40.263848055563365,-46.6028157707055,-51.5570486638049,-52.706461994916715,-43.5098832668303,-23.334245167202937,-1.4222529143653906,15.215689608506436,28.661123783251124,40.22103186824267,46.08554161720213,45.289625545993125,41.32169405189833,37.482447769025605,35.30849727726583,32.83921784041472,27.933132785089352,22.883241579323016,18.201300882162272,11.86104510550555,3.965953497566154,-5.902063749224234,-17.76334710416545,-28.160267902067552,-35.485016999736246,-41.96817974934482,-48.32775181762937,-54.76563434851122,65.0,105.0,77.0
23.86915276263582,13.05281081943372,4.157311996462104,-5.900003538446029,-17.76464418184081,-28.274774393161348,-35.234155761977334,-41.74012456525792,-51.490126462769055,-64.12947860151964,-74.16791636197819,-75.30594893552798,-63.70957121355157,-40.598744977800294,-12.99987268343266,12.449718155148357,33.67634264479547,48.47504779808907,54.53493133728718,52.69526504111438,47.0491853293258,44.22811403636587,45.930727375497504,44.67016369633308,36.21041171225207,26.331645147482153,19.29175730010057,11.474188814214285,1.5575481678295366,-7.723097226313829,-15.388190696307975,-21.80201385560784,-28.319046275459677,-35.42801011247016,-44.6757429291405,-56.554496527371015,-63.2708469261945,-55.87617639961252,-35.45158395546971,-11.376351824677524,9.107101031280767,26.231453382663005,38.511606706285335,40.41761029986086,33.501569672043715,26.990230318280666,25.189035778640537,25.552872279231458,24.86883591720434,22.046095057338302,18.726739921173465,14.956414935669557,8.869273133477694,1.1660169746955642,-7.535910910056064,-17.898841987072704,-27.3905618965422,-34.44364471791815,-41.421232889532284,-50.32869981864431,-59.156535377915255,-61.502908607554296,-51.71376462161723,-30.198897135037498,-4.123869095002329,19.538932737174573,39.70628987317712,54.08054838520945,57.405456892359815,51.93851139651344,44.834249182232924,39.13341314061521,37.82153585122538,40.467493531082674,38.430824658361615,27.45018935721079,13.664715670218659,2.9076815517894534,-3.0079084353211893,-6.474797554784313,-13.440449487795602,-24.735328732160912,-36.17576484553818,-45.537518100801826,-53.33000919410533,-60.01209486143559,-64.79068135742284,-67.62513069333508,-64.35718994268967,-46.23441253457293,-15.27427119255957,13.622815236107623,32.01359872213242,42.5513880631827,49.05150167499431,52.17776012881508,51.394433571994476,47.19394947795783,41.93230965339617,37.50606058859073,32.4756177790445,25.769485500664505,19.2863578308637,14.82055705573473,10.92919412933992,2.709552954732854,-11.395955553518633,-24.319289501548496,-30.04317327935876,-33.060773216473976,-40.52291831867587,-52.13834232660127,-62.28845539838327,-63.70467020924066,-50.65716615761471,-26.798034434494028,-3.8907765238010645,12.272045613075395,26.48088198254694,39.81199269058924,45.12148242987335,41.71850718372761,36.810680361429135,33.47843653326086,32.33920953498192,31.926702253055502,28.3941958346746,21.88671261390567,13.553269853645189,3.877510384599534,-3.5457487430303636,-7.227690477819476,-11.353386645499533,-18.645107129984083,-26.292061102104537,-32.65385132471109,-41.22245931702055,-52.23582557043461,-57.411010943411725,-48.5977174946521,-27.342146591655645,-3.1254222886734233,16.189756599392254,28.14096074456251,33.99298964773932,35.35084979431462,32.17428241462807,26.438386238419994,22.936764423114663,22.880430047509822,24.041892681641905,23.964975188871513,19.283237267973355,10.686383932838302,2.414485152061852,-4.288637409741031,-10.158916822497927,-15.97172722350222,-23.78706153342384,-33.89114667334958,-42.36026218348119,-48.13845052155755,-52.565913663418165,-51.343021306897064,-38.53679236602701,-16.686544144671597,3.956873505270855,19.251744937348693,32.31392854631157,42.66897831085813,46.418926169593306,44.30156011616193,40.082959513389504,36.696990056537665,34.78590316945364,31.638663821454234,26.361406150225417,21.597768596039074,16.573836002365283,9.716768971377796,1.3766732970683564,-9.2267133660441,-21.091009005756693,-30.518095011947377,-37.36156121486271,-43.83047743977639,-50.14695209787908,-56.69616474532831,-62.52049204541303,-62.61450476033265,-50.29438466093399,-24.979737589132554,2.577245136942751,22.294195169784416,35.24552925004221,45.594230062253686,50.37771018350374,46.0216428486154,38.49448087580604,36.12036437874692,37.61780261965379,35.43731372340504,27.158741687969183,17.88820039552225,12.037100146715156,7.571582782189975,0.2835038359418098,-8.905564686077476,-15.761381803924321,-21.280281316585445,-29.232317986121327,-37.43670394819128,-42.12524866432311,-45.67104464689201,-48.164541700773015,-42.963191140867295,-27.370703425122148,-7.670876633095393,9.090952339795221,21.324945020188565,30.740846681003653,36.91038872745484,36.5587433324662,31.178150593848766,26.471340981431887,25.636439775071565,26.567815687885837,23.704560591894005,16.05830386863019,8.3385125126538,2.731826904347544,-2.254884427005213,-7.485474607797777,-14.242477082896464,-22.580670057224637,-29.885496317512224,-35.42976590402695,-41.95778700876578,-48.30317302497145,-49.047325125402295,-39.414843013432666,-19.03743910953002,4.899616948339889,22.455495808524958,31.245735326983826,36.04377019490263,39.56180867783472,39.90184401564648,34.59528922049088,26.86094554668195,65.0,105.0,77.0
-46.48829867169363,-22.726538140472766,3.097002157671148,25.718380658844655,44.708046805878425,56.29210031147049,56.38026476394717,49.84510351858735,42.95224755117532,38.155065727719155,38.459975079176104,40.7773331331326,36.03097778522747,23.40488942770597,10.109628244070544,0.6989684611829101,-4.005351456946665,-7.9271414300983025,-16.423323419655734,-28.19338138554044,-39.10571468463731,-47.898109149412754,-55.40624437793769,-61.60109260070055,-65.84251210134339,-67.69778275147354,-60.91402898569324,-38.041454727127416,-6.0738817897952515,20.029965547280092,35.64356901952699,44.75797147694514,50.331107087214896,52.361331051915954,50.4616729803073,45.65032426623394,40.57096233370172,36.22474175848526,30.663198121615135,23.76249262827949,17.7672318847601,13.820308918146589,9.2140337841955,-0.9266873475268464,-15.682793160679816,-26.701677576540174,-30.808565948550378,-34.59739605067732,-43.66497138813007,-55.506118168689966,-63.94975921474716,-61.48443456892005,-44.419442846189355,-19.577105274323618,1.3766687264728539,16.319004799345098,30.67524809095143,42.454849133869416,44.73473849660454,40.20327661801498,35.65932018039998,32.90796555734962,32.326479448121454,31.322653563520202,26.719744151320366,19.683477236468086,10.786567881814001,1.3231370471694441,-4.8870769935358815,-8.143508035399147,-13.181879605796174,-20.993603140205153,-28.17390255026646,-34.724492774697794,-44.395220187925574,-54.80005419101706,-56.459396596342074,-43.38485753813705,-20.20028730217986,3.15983119802149,20.3942367458455,30.356406503921136,34.82920472461237,34.897516524959656,30.573002688075523,25.030541324192196,22.651301395896688,23.183877926007156,24.297569863328903,23.183276414976245,17.011473495630796,8.127340996184355,0.348446102974631,-6.0465986866489665,-11.780216355748236,-17.921072827579113,-26.601663873043776,-36.67372121758897,-44.2047728532784,-49.61519725966591,-53.11760467594278,-48.9501632373087,-32.7396948301917,-10.196788163941129,8.829598224416833,23.138796101660077,35.772954481177656,44.520651200637985,46.24419871621636,43.14594361524887,38.926069922011685,36.06485907257526,34.147096985336226,30.220866100617542,24.872476171375833,20.293090387796802,14.77164746924333,7.466710879532866,-1.4154948508438745,-12.685084875717312,-24.181934627876252,-32.64014556903649,-39.23137231723838,-45.671362311933926,-51.993280937276126,-58.59757427723061,-63.444421749382684,-60.56333912425411,-44.02070836070946,-16.62820653880109,9.236129137832158,26.474287310236036,38.482257353583925,47.82380480753967,49.99141366747654,43.70889421755377,37.11326038601956,36.47353599006976,37.64713565403429,33.54091232691374,24.28734343183065,15.81509934959357,10.822753588841056,5.852528768238492,-2.3835871467858154,-11.223843005862626,-17.286817487028422,-23.27759521953074,-31.82753264905499,-39.1489162459885,-43.105450732485224,-46.72474530737651,-47.756504492443646,-39.37653050997965,-21.71215557162805,-2.347990081586038,13.03568153462458,24.264544970967492,33.00214969056758,37.55905654947351,35.27859603338168,29.524258904354966,25.812874510216258,25.96113729915595,26.32881037064416,21.824670080135792,13.625597651352843,6.552647568117097,1.2785397611090046,-3.6983042343886057,-9.224515069712428,-16.5688091001976,-24.926169782024452,-31.559883509286003,-37.13694587021026,-44.021450023992024,-49.34268123504161,-47.47218246612587,-34.45776933461702,-12.00725488181201,10.942410825446,25.734751340316485,32.82805298578684,37.20118439226676,40.14632931811458,38.94726562550051,32.300287724893934,25.180733502928327,22.774677396522414,22.452027920226413,19.265648901437295,12.611659919253018,4.703427291154359,-2.566516038912863,-9.407976074834812,-17.184126279494045,-24.719300680709463,-30.11096047804883,-34.64545081414494,-41.20794904501908,-50.27055468178482,-57.68682732970466,-55.87502383129985,-41.10339430571317,-17.56928880075919,7.665645557274605,29.073535494190303,43.186325024287584,48.79754655265291,48.78351137392582,45.831830685892434,40.17845858979238,35.0041353889284,33.95416323556359,33.1582827609305,27.437887269009646,18.528059774452473,9.69167360898322,2.5202504817029143,-3.4917399950463412,-10.3796089751847,-18.589978537254858,-27.524697191320143,-38.28914666038512,-50.568458899932615,-60.86097839638376,-66.03856842561736,-64.97092923016648,-56.853318870419294,-38.365243977996826,-9.664753390663368,18.682872111447306,36.712667936815656,45.95910332726758,49.71553532891047,48.46729437640778,45.44124442492079,42.159978196794235,36.59292090426856,30.622798930568074,27.435412526758384,24.790127619265522,18.51715159804308,9.145412277051882,1.7903727526956452,-4.336373458329175,-13.969889929097965,-25.03102128852784,-31.573376287870268,-35.18141250881595,65.0,105.0,77.0
32.289015290295865,30.37181031583049,24.859328928956636,17.320879909660786,7.943888749520955,-0.9261565465075102,-5.94118290454586,-9.241984469996066,-15.280294512392988,-23.259087638804033,-29.96589245512161,-37.10670008856285,-47.685798661126015,-56.60911852255963,-54.19568905923572,-37.2909857716561,-13.07717210812524,8.900270717394571,23.969454226876014,32.12186078208127,35.31119384423757,34.04937824831534,28.856243441295565,23.928963326239,22.619103214567595,23.535043733515565,24.37859993028027,21.932320650355937,14.503193413530363,5.6938387817918406,-1.6000213072888398,-7.7497363275757225,-13.42071567668926,-20.10776822827459,-29.56237486795058,-39.19904967052109,-45.87210734041146,-50.98757628241053,-53.02081715252609,-45.472642835777194,-26.37601898555861,-4.079526644559898,13.276851396306476,26.93722840433652,38.91561279126772,45.73627760692939,45.6644485387985,41.90327812181879,37.90121194360001,35.537455243922935,33.308176101396214,28.667027417138947,23.49031937472977,18.894300680864117,12.810849211842415,5.1023062514906,-4.43453151757343,-16.175665246397667,-26.976378576869887,-34.607610137346555,-41.105059029286956,-47.491768354770265,-53.88155189921927,-60.382003390329906,-63.72840322480746,-57.311322760868244,-36.75711798600463,-8.452516733865219,15.090636201544056,30.228032846149695,41.56194663309465,49.4292296638871,48.81740900689104,41.38680686975449,36.31392661024634,36.99909007547095,37.17639339022544,31.169668334517254,21.509065777803333,14.081605928646932,9.609194322579578,3.80996650957997,-5.108513192107896,-13.255147520524083,-18.805424298513906,-25.54861264469798,-34.30481958303079,-40.52653501428153,-44.10796744208149,-47.604036584917594,-46.50351204534175,-34.95733153493801,-15.932254874148036,2.6013707963384065,16.61977509921818,27.024857367662193,34.92952857271687,37.581772071933266,33.69642431219463,28.067504427173432,25.51577243814374,26.320554322485798,25.62948602620258,19.607105009581534,11.32682669000583,4.930266990808095,-0.16058602059245264,-5.177961110909775,-11.131689383536823,-18.99987720245719,-27.09754652733573,-33.12718665961548,-39.001048140515486,-45.96980446708454,-49.77238782900037,-44.928902270237046,-28.65741845707467,-4.933543926792105,16.2291520996062,28.339821538759754,34.21583782568925,38.26977470608477,40.37734942412298,37.48521167997223,29.960514052377064,23.961715304661457,22.739651443087112,21.938458928922735,17.626385352870308,10.344084063584457,2.4974965739578288,-4.514351779827473,-11.547057305201378,-19.502246075797707,-26.514455393944388,-31.368845503093596,-36.24467021593921,-43.65055475996078,-52.8972274939758,-58.42505094896479,-52.88068681537362,-34.890650500520906,-10.160459853347804,14.423129191080049,34.021544517152925,45.621948380522674,49.19146663112741,48.20762486125198,44.43659494429468,38.38404432378406,34.29410598300114,34.020165986604674,32.05865242725659,25.01064119872792,15.872444122547847,7.416406920052717,0.7553718962852545,-5.324877323448099,-12.653667860223335,-21.083462826016966,-30.38402810965372,-41.80199686012699,-53.920166072146415,-62.9697398283513,-66.37818751254737,-63.45120447708052,-52.73748259930169,-30.840970744050303,-0.8106509960291065,25.074952263827416,40.053948801985456,47.592729016152866,49.786541743034725,47.602832230947854,44.6005353101816,40.82426988860706,34.698754550303875,29.41069726807504,26.821642567862778,23.468071723599707,15.910226394067283,6.664254306042835,0.14125052824826256,-6.672645054551481,-17.32107849697745,-27.512846104871684,-32.62258181244715,-36.63330114841405,-44.48277821785776,-53.777375677211815,-57.05880868822225,-46.80613440028293,-22.685637490422124,3.474939234539248,18.697616579639124,25.099517988172448,30.75506538647071,35.38452184673464,35.517678758253226,30.78361511008327,24.2725947395933,19.365907018179502,17.339793755404738,16.002829469115305,12.327474002860301,5.173708655870243,-2.596957753214527,-7.615552389549189,-11.56846159718742,-17.527292622603337,-24.160976743549647,-28.794895504245236,-33.79142788613472,-42.74594541879037,-50.20408482392433,-45.00844204491729,-26.56713883037242,-3.863491149543104,17.39903554470582,35.986399080004794,47.886384456830676,47.78154683535749,40.661578322057565,36.905718971654004,36.58590602315873,33.478288308717396,26.377070764111362,19.01359685889394,14.748471168097144,11.436166274700168,4.727357707830067,-4.895967030496406,-14.124894615390241,-21.868974337495548,-29.26023052409862,-36.62606328235158,-44.00333659210283,-51.84581722443534,-59.16355801705891,-62.92673502891443,-59.075569660969805,-45.05584307585988,-22.681048301503196,2.0334171462407986,24.350463040114448,43.15250046374037,53.756267307229905,52.36100619923476,46.198237931138756,42.65838727178321,65.0,105.0,77.0
-55.80573820626333,-61.92822295119525,-63.18947310763804,-52.796533261088435,-28.792112327726574,-0.7515511836199952,20.178210698224404,33.70502578360205,44.40252253000657,50.27091061050782,47.00838212238383,39.31086504854657,36.07211565953517,37.47511699195414,36.12354696834949,28.468101392160577,18.959998902805108,12.634037843476456,8.266021651349535,1.4559707670785775,-7.750145451022766,-15.018714731170917,-20.449728250146872,-28.039656535049822,-36.52554299822203,-41.655651738630056,-45.16977649681718,-48.11326113202629,-44.30383385526058,-29.877400011578818,-10.229245352696351,7.1388502964509195,19.89900272398665,29.613409479590494,36.40898133519128,37.00445828122837,31.975274873916288,26.897266385942316,25.53963035281642,26.550450703842262,24.42541494658398,17.19451676264806,9.230594849565062,3.411791878301845,-1.5939197319303238,-6.7319845454461165,-13.22041500273654,-21.46056352415375,-29.054759986777302,-34.68671244037758,-41.00509740636249,-47.6554152140442,-49.46721858983714,-41.38358924775082,-22.18587367442553,1.901184550187719,20.682696730024865,30.420445667874045,35.485814027288846,39.20003349493993,40.1663583354844,35.585185700355225,27.77118313494349,23.207101125768148,22.728340955550216,21.098544887280276,15.7263014370052,8.037977985997346,0.37803487862781915,-6.460507760600447,-13.790199383473793,-21.735799934132803,-28.10076912445127,-32.628250419682495,-38.07561401922791,-46.28231359265121,-55.230933368672616,-58.19348723723474,-48.79367606337108,-28.11285368526568,-2.780161135279483,20.754798655335552,38.28441795929546,47.354626569708316,49.22387711004756,47.41550659923184,42.81013459310268,36.770249051278704,33.968255511579464,33.9263244567846,30.476245591981687,22.423096490898565,13.280843034287274,5.310291261692694,-0.9568937382667209,-7.279768958527688,-15.021740507378045,-23.62936691464463,-33.44602743894022,-45.39074681257488,-57.003628451561404,-64.5937961470163,-66.1921227063234,-61.30789845599561,-47.64233668380807,-22.554128671205838,7.648314041041555,30.46992875699869,42.80213120104015,48.79134292787047,49.458876505432166,46.70483063586467,43.713068205643374,39.24233741420769,32.889070182770745,28.467271707940487,26.144292115055443,21.748776235072288,13.138108102886846,4.482030848020896,-1.5292797837074625,-9.396855901921516,-20.63986112182697,-29.49319495456752,-33.575825827051446,-38.464739991516836,-47.29834499149527,-55.71823063813875,-55.71929877330342,-40.950453202610554,-14.603471748155352,9.238761665483743,21.006429072800863,26.655433459178642,32.377057995822334,35.97842260534305,34.558837132219544,28.91581930198241,22.571596610799958,18.52493086339585,17.032349570846836,15.28471906851632,10.57746686932139,2.7787809018065928,-4.35665662280105,-8.68846838274665,-13.042563392372701,-19.542065421251316,-25.71353246244558,-29.97607204155561,-35.97351001920933,-45.58705876996521,-50.32611772253786,-40.70037456061261,-20.058997510550277,2.5099354242738383,23.11358230401931,40.4200631759173,49.135146604644945,45.918455900982366,38.971308730057075,36.747161006111526,36.16494367649884,31.724302718188852,24.06807143223267,17.430864705204947,13.928133728634295,9.937105113705732,2.0989115707250248,-7.717665101074954,-16.47883893140689,-23.99533976502738,-31.405362065289207,-38.73124491297342,-46.22333901043318,-54.11221093178901,-60.79313695349415,-62.764123297118616,-56.091183271028925,-39.23483654412968,-15.482361908754134,8.799778604384569,30.228498608745358,47.38712612718297,54.458913467927566,50.59520343086858,44.815074225885446,42.13421233591555,40.729196709472404,39.34309263461623,36.97462757800706,30.62065859878243,19.700736686601697,8.453868340715958,0.5214133776284563,-4.621164151761844,-11.657046573896002,-23.051129164768295,-34.550967318444684,-40.48973823858106,-43.158603205582615,-49.94803070551504,-61.038411219200384,-65.84632539709315,-54.077567691497116,-28.568398080724986,-2.449418799532542,17.919212402547757,35.876401716328346,50.46201794186604,54.04701363171461,47.471485575671366,40.94404922500716,38.188721797410174,35.17419459011101,30.615772269523568,26.338663752260874,21.371080891756584,14.079930352811042,5.6428971479124215,-2.605392086506615,-10.618002313314589,-19.235115814873446,-29.20427116543304,-39.24177506072555,-47.703428328050336,-54.99994872412989,-61.5103672902397,-62.58067902784125,-49.47786682379479,-21.326741063204935,10.374042741292236,33.27635263221776,43.3534485631585,42.4904163154162,37.24260116172686,35.27507889094458,35.787060807377024,34.15668914844638,31.78075184989557,30.927579269801676,29.14511616123118,22.825433719419266,12.229297361040777,0.08402211060237705,-11.565191441213813,-22.101413485937133,-30.61247735512561,-37.46381449839268,-45.35997202172638,65.0,105.0,77.0
