23.62064570072316,-709.6017857571004,-950.3439639963066,-827.8329240530595,-698.2291379094862,-651.3037212232836,-610.1083187614315,-549.0545365135913,-491.06304617566536,-443.655185049243,-399.5847744794366,-355.0498281959459,-312.033775127928,-272.2324521244109,-236.65595592256662,-204.89437115635394,-177.24751949595534,-155.68649358354938,-136.21522662724624,-111.83875295158427,-82.47524531686209,-51.429292826330084,-18.52174399315534,16.646921957953246,53.323984072249004,91.7213704602164,128.24300503285298,156.32994824267803,178.14790939010763,197.7475393032016,211.12627121255858,217.63134473783117,222.1453931950545,224.89205156101855,221.84730322087577,213.65257592687448,204.2972239171555,195.34194789732254,184.0900235704446,166.637679747723,144.6370575486175,122.91218167483916,101.72782772592285,78.32596932576193,52.72422222619065,28.010580368988805,4.10685743188014,-19.757341701656948,-41.47818690782444,-59.8448315796763,-78.8941008012733,-100.52109422626648,-117.53915129896602,-124.27958160862067,-124.41352436606948,-119.80704657990815,-106.34836622118672,-86.48800146934772,-67.56264323415124,-51.21311538611081,-34.020765772145104,-13.609744584567867,5.498230404871483,17.622163350319024,24.83771864461019,31.17959391465438,35.905808517578464,36.24556450930778,34.624421199912895,34.29792733393756,32.54166747173931,27.75403466921694,24.52341247901217,23.4972483033161,19.049207039474616,10.256029606428568,3.503162307806586,-0.9849441195975968,-11.79712335735193,-27.375790966220684,-37.42684339806606,-44.5498705500218,-57.117277767933054,-72.58328936430102,-86.40549958361056,-99.58198343267897,-108.8680276892803,-107.90534397870826,-97.34112334378376,-82.02538358208652,-64.71135573583736,-46.23843021107954,-24.828924830080624,1.8418969155324705,30.53946346379486,55.178227598825195,71.37594413432392,78.34077052233211,81.70408562394626,88.32277409557744,94.47844717078715,93.0813763908055,88.49042122117493,86.66573663467216,86.66808965248669,85.39533075788395,78.51574210610634,63.69740467590379,43.59831358341513,24.572693905409153,11.758543577968412,4.334224152558236,-3.444423503491477,-17.026643552175113,-34.51452996435284,-49.24399772866741,-59.78693174122335,-71.45102063511673,-87.14104858978389,-100.03224981070478,-100.3779225187151,-89.376497059736,-76.27975239265815,-62.7451544210928,-44.958952517113794,-23.494196990067525,-1.5680701164472708,18.056947199468354,34.36728293972725,48.02856887206563,58.78562024092107,65.7420477482842,69.20635472181075,68.24784953298078,62.60415631946819,57.732943579879304,57.21449339349167,55.34004040191932,47.43986592690304,37.74919861647978,29.59262803393168,20.169426759761237,6.286026287036808,-12.181685151039279,-30.699362126263342,-44.422713186955,-55.58690205035058,-69.07305300943793,-85.28125223294732,-100.08637572070873,-108.74333956200324,-110.61151932840235,-106.21919066754144,-93.78727101625036,-73.99666041621644,-50.57875029617077,-24.71972720923082,2.6034384873487166,25.728398609805872,42.744495748413875,58.15618277030781,72.05968152128324,81.81003180063695,89.56504277850279,95.08170610972098,93.37120569532699,87.22748200015994,85.28631082284194,85.96875379358892,80.18739699888668,67.15594647503293,52.453004617700834,39.32288179748217,29.048767137416906,19.92062322430824,6.9760129729829305,-9.210943098910974,-25.026498973149238,-41.109854195225125,-58.12974654586365,-73.5400730571974,-86.17566849724864,-98.66723604838673,-111.45893347665321,-119.23770610433398,-117.15264239890341,-107.25088922696824,-94.79475285870544,-80.60169536066596,-60.03654588148032,-31.851102439426338,-2.233814957723392,20.648706047836185,35.731729402656434,49.23362053802402,63.00991022403699,71.59439625559577,74.26292076882945,77.51367935509015,82.74696979073646,85.60887750505881,85.07259648002297,82.90836646378608,78.13527601513677,69.670412930404,62.269858992728174,58.98495258945207,53.08713838792019,37.58907807032565,15.846684736122647,-3.319984354752523,-17.734448487358858,-31.018292076927565,-43.0723249422215,-52.523027236213984,-63.50902730718195,-80.23300516406272,-98.36100393382381,-108.9045238665165,-110.26806945985507,-107.74734316004407,-102.81398365377123,-91.51025977266632,-73.2550998172896,-51.34989212377788,-26.958133681583696,-2.0543067647943016,19.434845133290796,35.40763659957278,47.14296350897423,58.1936298370297,68.72764559143005,74.90359825372498,76.71497011752915,78.24568155416466,79.90586276777171,79.18747132288254,75.90403891856221,69.63448890677205,60.86989048911286,52.31953311431824,42.7066900071347,28.69948457949481,14.17330520306006,2.897376358346925,-10.136047220926564,-26.45780447401706,-39.38281329684921,-48.67262842471546,-62.050366025204475,54.0,100.0,69.0
9.7762234773045,19.978663343075947,26.684770403781013,32.87138209451283,36.468766621838036,35.75228059293453,34.41072297003943,34.137827636944756,31.335226661354003,26.45335641971331,24.210512578639893,22.787710373011056,16.736206703537444,7.831652250145879,2.31448199686113,-3.1781112848771724,-16.313109781696497,-31.072419434565266,-39.30471136689938,-47.509613371910106,-61.606136879472416,-76.75160686705124,-90.25676360255896,-103.00118800311267,-109.77934572161142,-105.62495288908399,-93.22881363425383,-77.16199626344192,-59.50835294830017,-40.50615843371887,-17.650826248956946,10.206308490888658,38.30963603818337,60.85708766686956,74.21980953479996,79.28780645714139,83.1910196955566,90.59146777928575,94.88220766899217,91.6946983170837,87.6204554021001,86.60314704179132,86.60279368525565,84.17115878414616,75.02650166044218,58.19693586645657,37.68054927796372,20.145391849178065,9.24832531158801,2.4375131021882894,-6.679771501300818,-21.973183518109376,-39.282189012890534,-52.56121839395365,-62.766491088212035,-75.68245997724931,-91.66022076729578,-101.65578570706994,-97.95942034858328,-85.50771973389696,-72.60152714368218,-58.124620271752704,-38.99657480844813,-17.070460080410328,4.434168102115802,23.088222803044257,38.56421985682396,51.486966005164135,61.191914618544615,67.08962936977474,69.47914746814914,66.9563722596686,60.80454084488009,57.2357575588492,57.18218545898838,53.619570182807436,44.54610626966151,35.28137749366726,27.181322437631987,16.696189052125774,1.311331872291447,-17.819387814643424,-35.21180865080319,-47.65277730302411,-59.124238809326705,-73.58850345825098,-89.95924565132067,-103.33318698806046,-109.92054226633044,-110.03668123902276,-103.52403001470128,-88.6642680565527,-67.47595519273622,-43.38232495910577,-16.79824653561213,9.983112882576464,31.107700930911985,47.203976102042276,62.49679544350728,75.29622958562719,84.11316661766354,91.61296123412058,95.44618028971081,91.63589429842708,86.01359116598802,85.63494813989291,85.22647451530149,76.93670170707897,62.86421246510645,48.42976741813929,36.03290884995675,26.518353304344984,16.707273052441966,2.4299325643837557,-13.872312904894649,-29.553775901475483,-45.999810929033615,-62.88123861906929,-77.40410101116778,-89.67080513174585,-102.47723394667538,-114.52965885840777,-119.6988717559841,-114.84923303847026,-103.74174850138742,-91.0277472809488,-75.51636741958731,-52.52194344231875,-23.04107925638303,5.319511063785864,25.587296477424385,39.53006314121937,53.361479832722914,66.25871796556723,72.72952557790484,74.89327954750668,78.99399601796362,83.97458383877273,85.7153552954909,84.58739144521637,81.91394665655982,75.97378615030627,67.12512100136213,61.03032771507074,57.99092697068731,49.665686381558785,31.549179358256243,9.748784947928376,-7.8242136603269135,-21.58066610522468,-34.75117367435399,-45.99933621851123,-55.25443117344821,-67.7508967999082,-85.74613726404263,-102.46886111095573,-110.04552589549014,-109.72681783150848,-106.70305517005606,-100.3640559780187,-86.80560193265107,-67.19948943494661,-44.53695787527967,-19.638520838499215,4.647114441012176,24.638015391589548,39.078113805721394,50.28557529971984,61.43852861958852,71.09524892907203,75.70520341386322,77.0475462617856,78.8386242628762,79.9934364104877,78.48782788315899,74.44338536095364,67.23811176224633,58.31126535109425,49.85377774821979,39.106891716882714,24.233213165275284,10.68130708617186,-0.4112600160951495,-14.745309293521922,-30.804363336889075,-42.12279140372575,-51.85770436438502,-67.05198764445193,-85.10959415097933,-97.30030792471038,-97.36456135085946,-88.0960578539816,-77.79002014792998,-67.14029564986855,-51.98761547531683,-31.61053138866399,-9.552688487959626,8.626611838047687,20.883940893036016,30.53008488766541,41.50895416676717,52.56083235437787,60.760044875068694,64.65931633234993,65.55100851068828,67.19155303644162,68.25698012960751,64.03775905733389,56.04817735750626,49.31958775703778,42.18933793635983,30.83539559615393,16.893266142572795,4.385710491112329,-5.540842148124615,-16.333457831364623,-30.038728363515535,-42.97053952542731,-54.181798518882744,-68.77019025985857,-82.5580798614864,-86.41617006681498,-84.40030649746117,-84.58690836549101,-84.24816915031002,-75.48148338147243,-54.83269098942571,-25.512351290012546,3.6061991407144456,24.47320074372005,37.996981865967115,49.138127624993494,58.90115078232504,64.99835240394522,68.18919229433018,71.06586132170284,71.47495083551941,67.58581539477188,62.93292842200167,59.53018762277339,56.21228071843702,50.99831449526946,42.14472703978302,31.688665263251433,25.61034773283486,22.697032699269382,11.165916392171287,-13.70754156060865,-38.31043624385992,-51.60939259745487,54.0,100.0,69.0
-32.79769761755511,-10.685124938998849,10.180859935546419,27.847870501965264,42.56039890929672,54.67647364293237,63.266764341422146,68.16663188410313,69.32335857414819,65.31390112464454,59.26157204445246,57.10437752711482,56.810504450210814,51.374915813281326,41.6779913463959,32.94772778289163,24.55785051804715,12.79267591604663,-4.013348317112888,-23.297713765903012,-39.24740550008663,-50.80891601510022,-62.9487920313975,-78.29062388737283,-94.37888091360645,-105.9779035452053,-110.56402178179918,-108.92864908919005,-100.0961793222725,-83.00181877668079,-60.744206434482564,-35.9655542544942,-8.815720927040125,16.82832857170169,36.035484087336215,51.6578253088979,66.62384094442646,78.15307529918667,86.35730536074075,93.37672884921305,95.08354681629177,89.73496066240432,85.34614407602915,85.99961665139989,83.73686414053151,73.18673023574993,58.5725832397756,44.57696638972002,33.01573311001666,23.979970417399233,13.056634934638533,-2.2815378659570853,-18.442453407560066,-34.16383116849372,-50.94989207085417,-67.41044251642087,-81.05358524735668,-93.24451871055315,-106.26552460940769,-117.00193353716399,-119.2677957301547,-112.0189959607078,-100.14255826942585,-87.06045389522228,-69.7582003782442,-44.41795483406018,-14.324912653559549,12.127107229105787,29.96090722760204,43.37927089730625,57.45590474083621,68.90171134770019,73.46783871857973,75.75427459223387,80.568633146343,84.88915799938007,85.57674168037342,84.00216078635671,80.63563310595535,73.51418338077505,64.85449375888375,60.11974248399874,56.52326056554434,45.34281646166748,25.187099018912292,4.077594006962702,-11.990927113885965,-25.42419634809871,-38.312866329810156,-48.71055452381904,-58.278930458684,-72.5236037547701,-91.16476803010899,-105.7363495470976,-110.497964760738,-109.00993691355819,-105.41209727243705,-97.26138284213047,-81.58485344137551,-60.91523226140912,-37.5146319780523,-12.364625581690339,10.974202796145912,29.3502253687462,42.46966028531833,53.461090511668694,64.58070635222451,72.99218142561693,76.21800349355982,77.46278297167424,79.38207474166809,79.83554926557936,77.59239242135837,72.69890076004344,64.68562296558007,55.83809804175891,47.196360910725986,35.08776809237721,19.917692283253448,7.461718375199789,-4.0585273198758545,-19.54810987403448,-34.665387690141124,-44.69667759340865,-55.58502017635473,-72.33036675844737,-89.62160355007039,-98.65317572887335,-95.25834500938262,-84.98676162758709,-74.94769929001316,-63.34430736610841,-46.55548854881069,-25.161444610087855,-3.699606819403142,12.713623894701723,23.70728654510562,33.51305024300694,44.85271773044775,55.30770729052098,62.35611970425853,65.04981221011063,65.85827328782827,67.79282136337706,67.68565333060747,61.84962484813421,53.886627952686844,47.539201218364454,39.37432122699993,26.892176172745696,12.987242033985575,1.339395905721381,-8.375561282157735,-20.070478862407207,-34.06793198917134,-46.17145764197043,-57.94434748772296,-73.35389377007645,-84.81022505559989,-85.95787922863661,-84.1219626673214,-84.90719093609405,-82.8588744613803,-70.71814542740113,-46.94605171389128,-16.611005870749125,10.631641529177692,28.89228586515143,41.31464269943665,52.18533119827579,61.11194979765899,66.06260085760192,69.04349286025798,71.62435420462452,70.69871863224354,66.1449109059764,61.838767280190915,58.64664997751265,54.99330202113882,48.84436287179697,39.0306680061187,29.293717744483963,24.837983373017625,20.818000329044256,5.003579425814604,-21.61668235336053,-43.35722052589391,-53.79951913727002,-60.62884283504814,-70.39714647356921,-83.56182332122671,-97.71461839683724,-106.27861105367109,-104.44848107845972,-95.795080588257,-85.36571373123388,-71.75568430217626,-52.490744485316476,-29.620055778832537,-4.722818359390391,20.433721716602594,41.91869351567985,58.192194307403966,68.52970327640654,71.36336630862236,71.32060149084046,75.0233512386078,81.42101781836234,83.75110780973404,79.07001054900797,70.91211315856299,63.7071358209829,58.38765233044664,51.552931838295585,41.568880070753686,32.38043199359182,25.01595090751649,15.023319600981344,1.3289018033336375,-12.123738157837549,-25.36521250684789,-39.84067381733123,-53.01837573462097,-64.2422297329118,-76.97398120112484,-92.75720163377012,-106.42954370334523,-110.13803164268334,-102.33244979485347,-89.4558567828786,-76.76866551601566,-60.09316270136857,-35.951697580881486,-9.351714947120117,13.842089514559449,33.326727185943426,49.42188861922661,58.536233636127236,61.080411497935344,65.03454831053459,71.01206057432987,72.82197466570595,71.754998965057,72.39083562153544,70.87536477500501,61.84765128950165,48.823684167258165,37.766851792269506,27.872889326714464,16.61796231331297,54.0,100.0,69.0
-96.49512069834225,-82.7485457520172,-63.27198673615281,-35.880261472860624,-5.933807166994235,18.13829078855746,33.959455097043076,47.35591166069775,61.3415467143369,70.88970114806271,74.0160732787001,76.89742660045475,82.09628083687636,85.45915849795273,85.26161640378673,83.29186417275375,79.01044472144146,70.88863043524759,62.98306731139796,59.35435432224593,54.36201371445103,40.19676954319854,18.762015704654033,-1.098391374863011,-15.947897099189323,-29.26269497180683,-41.63331589804894,-51.31615729316348,-61.73926473999438,-77.73106247051533,-96.2208179617596,-108.1074214295933,-110.42895481704745,-108.17335417365133,-103.74614930522903,-93.47719159266451,-75.95827690589758,-54.41772787598335,-30.317402072903228,-5.250974395521943,16.87206469496545,33.59419521019686,45.688586597525635,56.69168698816617,67.49542994135221,74.40479373847302,76.57119029136372,77.98035011763497,79.78641390010466,79.44216565595266,76.4898889011462,70.66387642606135,62.07131817348427,53.42834771240523,44.21698820449233,30.7555517511012,15.902252702144578,4.350433089116837,-8.123335876496508,-24.326634372441447,-38.0030250710264,-47.35317346431862,-59.88779462454802,-77.67191911611835,-93.41532521275406,-98.89269226102475,-92.56137478363725,-81.98012946014478,-71.9781601351561,-59.08423982793892,-40.711884567727914,-18.698629949732762,1.6941340407636645,16.314659548830075,26.44051589438236,36.67144209045724,48.11302143281032,57.76497685456493,63.56165712108611,65.27145597790984,66.31600735433526,68.23003954587823,66.57030919435154,59.48218219973681,51.92763481548516,45.5928880829935,36.155978393871166,22.825215971335446,9.299235100278292,-1.512812406537861,-11.405232266886262,-24.044116925016116,-37.88728382527372,-49.30921528916251,-62.12344807958109,-77.59918827130228,-86.07668524227915,-85.27357239882005,-84.1540033230771,-84.99623656372731,-80.584552009539,-64.94168932551337,-38.473723279588455,-7.992947104767796,16.8306479089031,32.82371789633506,44.53908954066821,55.08749384011354,62.94944196188456,66.9653246959489,69.91149048021627,71.86164175452414,69.58275000663608,64.75751374548277,60.85157189707341,57.72540299626077,53.56653909642622,46.345422603853166,35.90096309201122,27.419178909608434,24.172107324538814,17.849753051109836,-2.1879162252839772,-29.033276367468186,-47.34807341363514,-55.71162323485921,-63.05746993078295,-73.89675817429932,-87.7663448475993,-101.10567376802624,-106.81099921134346,-102.34707214204239,-92.89542202428306,-81.9475916893165,-66.74142759106138,-46.13236301854447,-22.6109192135013,2.6818214048043587,27.165243156908794,47.141799493341104,61.8978631240146,70.06889841158547,71.2828250924004,71.86597279468654,76.86811368777465,82.78378855215418,83.05098165973041,76.83704257323937,68.60390829795669,62.062161101865016,56.76062928052494,48.87869318556849,38.64598879077477,30.2147272832445,22.59348207620056,11.291028151591522,-2.705477640591072,-15.841725471824253,-29.48102560446014,-43.908050612410264,-56.3548592821428,-67.59404758811677,-81.3169601662021,-97.30135585488547,-108.77256198009025,-108.8917360634869,-98.7565585714018,-85.79316476757602,-72.66780407287882,-53.798849756317516,-28.176245373519464,-2.188593112649119,19.776924949574408,38.423001291870655,52.94900929967312,59.64042158116306,61.78996038864468,66.84582032944712,72.1090656040357,72.5306434342015,71.7466641613662,72.5243346034637,69.06274795676057,58.15639997781512,45.321856113744715,34.964144604622646,24.74493606327133,13.37062435436857,3.433026218011693,-6.719670392045167,-21.165637512888775,-37.325012442219354,-51.31175657377225,-66.5682746289976,-83.32698547793652,-92.95306582202772,-91.53804749564456,-85.60608983191332,-78.54157488809194,-64.8215128103601,-42.27851089253187,-16.31667049026992,7.054178243464576,26.036751565209435,40.20194949140067,50.09957048673084,57.17418101103251,62.68336780074387,67.00605054206233,68.83147979331302,68.56292720957417,67.40511710024131,63.39710069992272,56.41903848814341,48.17568743582633,38.12869733760889,26.924645023150685,17.826810576271207,10.73594789331879,-0.39546968584329745,-15.624238568025397,-29.217065394728202,-42.02168190176723,-57.04787818697468,-73.30276902553828,-88.49122188822264,-100.76615610176151,-107.03393229915459,-103.78743995289052,-92.8328594731146,-79.10990476525728,-64.14992834738064,-44.64307334977946,-18.832345396646165,8.331941743374708,31.304526391376843,49.01345538477956,61.52647611935364,69.32736372845837,75.85221632625469,82.34810788380739,84.59483020464985,80.8520578580891,77.52353810087364,77.24496456018184,74.53489629036552,65.6074960587708,52.08160531845907,40.107171873667404,31.932416329418373,54.0,100.0,69.0
-64.69992044001688,-82.8455251171785,-96.30887657247372,-98.06786912527295,-89.53555900243988,-79.09500804938217,-68.74835123185478,-54.338093505059355,-34.53831469540739,-12.377479426262706,6.5641434176435505,19.513729971596106,29.211712609073846,39.96561536851664,51.20762212455638,59.896614406579936,64.39036806601928,65.45054000777995,66.90092309660102,68.34805349210495,64.93840100721992,57.10657737997074,50.12591263728258,43.34946094841628,32.581722400473744,18.74706497362108,5.873753587693328,-4.26918398336664,-14.70849062558273,-28.144418202573643,-41.428959074240844,-52.57861553362881,-66.63404600134145,-81.19124672901182,-86.46971916270286,-84.62868339678106,-84.42345678237959,-84.62876151095486,-77.32842341552924,-58.22027274115281,-29.63824733927529,0.10285209471969342,22.228876785455096,36.41764045981326,47.701724107399556,57.76510691960065,64.42494918942127,67.8037730556972,70.73156867002696,71.69591476523094,68.24312303972532,63.47930271881696,59.93804920377923,56.71856812319319,51.87859481289856,43.529124628625546,32.943339184834024,26.074333864354244,23.283843409103813,13.585033658405877,-10.014301550211457,-35.61702837796017,-50.43098459808888,-57.587818882743264,-65.80947972127726,-77.66217603811806,-91.96267350520532,-103.82521763400328,-106.42917846127247,-99.84590859213368,-89.92726239160766,-78.15466107298323,-61.242392282831126,-39.55466850174542,-15.437887143070773,10.032441153786452,33.48782446121987,51.94120702668848,65.0566613539866,70.9629863072996,71.16174987641953,72.84891731232403,78.81132006730083,83.62822175322921,81.77035165744252,74.44520095592858,66.46399992155574,60.55280417572971,54.88301494291061,45.97084686556585,35.92080749133161,28.14754306410437,19.814763855976057,7.309249158500969,-6.615870930379863,-19.615947826245524,-33.693552981302425,-47.77729951319706,-59.565357231303736,-71.18307132058847,-85.89953970868473,-101.47164553856646,-110.10664408304046,-106.73954131801476,-94.97903523200067,-82.19515731860518,-68.0410559955201,-46.881175657525546,-20.391243974277316,4.595091169482086,25.449536920748844,43.21085931698002,55.76214827379408,60.31916016141416,62.83966254371921,68.69141552497435,72.71996506016912,72.14587055682705,71.95008152966055,72.27807557322764,66.55429760232077,54.317295556598744,42.08644156712168,32.16036427906961,21.479277479596465,10.285180852201776,0.7548885313092186,-10.409599390149744,-25.93328261028673,-41.55805751755312,-55.371840799752945,-71.549286113537,-87.23675815344218,-93.5258020524735,-89.92379113895218,-83.84277227323375,-75.51929809817227,-59.08437438929514,-34.7950539549252,-9.149291751474129,13.008249192511716,30.63409515904054,43.43505478721246,52.37667950631916,58.87458997604345,64.09602042022372,67.83851923112984,68.87344987570175,68.35784249863538,66.63903466514496,61.58001423487613,54.16299263283687,45.486061165391014,34.899201923330374,23.935025329559288,15.7963681828994,8.16053992157513,-4.653421862460002,-19.843065117207185,-32.80505475948862,-46.11012698157755,-61.72583529749977,-77.88966889609914,-92.42173744016313,-103.39664692626457,-107.11940144325214,-101.19029411267616,-88.98059885125144,-74.99335921209284,-59.171817920859965,-37.72722168967279,-10.805780618440345,15.523814427388743,36.938787464080775,53.185759733234214,64.15680328559034,71.17829050520209,77.84198435640354,83.66728754114413,83.9518593861366,79.52666110149883,77.29565252252343,76.98132262389586,72.62467193342766,61.95780847798497,48.174439479399936,37.54156842323911,29.40096108665764,17.484918239756283,3.770231361170067,-7.316550259195893,-18.34735825401677,-32.272051117723244,-48.00917336022056,-63.98479360942417,-81.25991731334366,-99.69895851318748,-113.20020224730042,-114.99259315358147,-106.54095572628492,-93.42465072680424,-78.54038196576289,-61.175501048986284,-38.07932876855961,-9.773553401024998,17.10677643431643,36.16889384461191,47.447943747385615,55.79747269694239,63.74510388521436,69.65622741165511,72.66334104928153,74.71484736268525,74.54917893990381,70.07124498132605,65.28400105395549,62.324194981294006,56.97373344490883,46.20739317076514,32.6869523977891,20.210192001640994,8.751050327937989,-3.2676332136073643,-17.31122356022476,-32.94691804796382,-49.10434195705503,-66.16930848344565,-82.49997267537555,-93.44210722528456,-94.8878628314924,-87.14002267512511,-73.75155947736374,-57.58704070488185,-37.81087476995397,-14.137713792993756,9.56671060966732,29.042097659371393,42.43753522704518,51.97547895695714,59.23068264939106,61.72745190205295,59.06709505685102,56.61978813489885,56.67270685824404,54.07086354036854,47.53699545940021,42.3758626406717,39.21617500139777,32.443543053994645,19.864562227613533,54.0,100.0,69.0
-52.840525067544554,-59.611748897219485,-68.87969963990882,-81.65822851190372,-95.97860558141643,-105.71527612529306,-105.23301562640684,-97.1052154722734,-86.84764204355507,-73.8931658977303,-55.330803426561914,-32.79447089696385,-8.126241472684764,17.212783169770915,39.36261235717422,56.320838550159166,67.58924678485735,71.32678505662643,71.2017262846278,74.25496368808395,80.65703488125199,83.86090171585985,80.00931940101546,72.01586172267125,64.52866876895406,59.083949920664516,52.682085439900895,42.95584921121314,33.442241624998175,26.04115943717373,16.627850248993767,3.2163865468181,-10.404419752452847,-23.515718283408134,-37.91699190968256,-51.41643029544248,-62.750716110432386,-75.07286927848284,-90.59831396462572,-105.04257168360351,-110.37320811241348,-103.85315407575344,-91.18084690846679,-78.53107408349405,-62.76266043825137,-39.47834876628199,-12.771509939971786,11.003787291696325,30.892881594748413,47.58279453486013,57.8250108754085,60.82950620568962,64.26713939155879,70.35708481701603,72.87509342819735,71.83659637605675,72.25977987740448,71.4712939928061,63.44269526201897,50.51936671443624,39.08934693355782,29.260044848911544,18.148349530543918,7.393270967630107,-2.062566924344945,-14.528733044282188,-30.689349739443934,-45.57539901951585,-59.69471538210721,-76.54349918350871,-90.29103262496565,-93.2024446777861,-88.17134136801994,-81.94292270310427,-71.76494577012735,-52.64327471930592,-27.216364550262007,-2.3048483420099903,18.58726681738659,34.81578218045239,46.34544718547483,54.450222092977256,60.47754298109136,65.3981427656219,68.41961946232111,68.79206802437359,68.08179031085852,65.55791161212191,59.56955508057161,51.81976560233784,42.61880419612084,31.617065320584178,21.227082866245244,13.845659260688112,5.0720502504848115,-9.12346134089262,-23.805587521576047,-36.43687795202457,-50.42171140494362,-66.44742697381685,-82.33519705789733,-96.07358662212073,-105.41626042540021,-106.35016072771502,-98.06226237549991,-85.01391105887807,-70.75703631407755,-53.692726194886575,-30.303426308084237,-2.848521751402178,22.271792397141237,42.14913407392245,56.90919921637603,66.43124606073111,73.03340534708228,79.80024910791356,84.48111491220527,82.8546566413241,78.45368073719635,77.27069981045985,76.34353526193073,70.155413007106,58.01448208997869,44.58682950650543,35.24083599049665,26.471305680852154,13.406943599171882,0.29606590382744913,-10.305051221153757,-22.059500146034015,-36.73517372997495,-52.604944614124456,-68.75891356474625,-86.62358294989889,-104.4917522374362,-115.04145099719602,-113.33858562310286,-103.04020651996395,-89.25985968571274,-73.91337306079669,-55.19838039995496,-30.230026920290932,-1.4963717770470535,23.557582820671126,40.04899575594844,49.94912371694576,58.15934670773757,65.76590371333855,70.75824167149992,73.29655711264242,75.07389675194248,73.62170036465011,68.48266119602906,64.35450740525626,61.25204533616822,54.40501633477457,42.362479429613906,28.91043293895799,16.856633953579518,5.414837236551526,-7.086522917478198,-21.739736862937402,-37.55597220558345,-53.94063003143474,-71.13405937204178,-86.44587582496646,-94.92426487943415,-93.46023766649218,-83.67764404804296,-69.33063153768683,-52.338627927880495,-31.255673166181847,-7.081168953643415,15.780456743370625,33.50528980821369,45.44090287580098,54.36253366620448,60.57456604161878,61.32619513337292,58.071004812027226,56.52383837782055,56.43962848312797,52.38702493923802,45.707381029104766,41.45367181909217,37.87880327621216,29.28842547566062,15.730552212159424,2.290995807417818,-9.219576718749883,-22.0229404657062,-37.3805387257096,-51.33086586629775,-61.156665847660356,-70.10400582703025,-83.0198302882022,-96.7939781613562,-100.66517622584995,-90.92665740392073,-77.04894432539949,-66.38240824507396,-52.691468473586525,-27.752251128853228,3.860175749629842,30.759347068637,49.12310238068425,62.450119726104596,72.5681003212949,78.62280242612283,81.78784780921987,84.54724098291436,86.19171234813263,84.32737370467342,78.8414292005563,71.77078944022065,65.4656509317897,57.40671318722485,45.66571003792988,34.12045865779283,24.789822453486032,14.545164524929202,1.4446786564213074,-13.595289373316502,-29.702176283719634,-45.30982698313056,-60.21576325064322,-76.29627870694587,-94.50188602444966,-113.27771633641342,-125.61841604262374,-124.50931048006942,-112.14987435378629,-96.34530874897307,-81.11637133296377,-63.241318994865466,-38.56245462677332,-9.035274593214636,18.466679376008702,40.01833435410867,54.93108893274558,63.46814296022987,69.82447270810161,77.31866141015942,82.5571927428295,81.52411866582,76.9502265634259,74.27071398826847,71.93537871757587,64.54588343632138,54.01903652774906,54.0,100.0,69.0
14.85170314941622,4.662141895191638,-5.163127078859789,-19.011000468979702,-35.28614815576036,-49.49449526554036,-64.3331840525823,-81.29462572165504,-92.35174735779565,-92.17943957821038,-86.41048460980933,-79.72514836242219,-67.20197321612494,-45.64394675374729,-19.71258342991975,4.184907200579499,23.778441478891597,38.59130951041319,48.973248225057084,56.34902972057596,62.003922967005686,66.54410842535317,68.75265187270193,68.64417033410653,67.66658948465376,64.14910085684963,57.43352052148298,49.35918498045094,39.58018771075962,28.37561355425585,18.833143172502126,11.781485874432294,1.4425857704740626,-13.603407412243156,-27.544382915373717,-40.213079878044056,-54.92322653098476,-71.15348081737888,-86.59767918290191,-99.3816691346213,-106.70872069456003,-104.76747769188543,-94.54690375203563,-80.98449247916304,-66.30641703794137,-47.63706944349105,-22.50595403871991,4.880347616891765,28.55903172265789,46.944077455830524,60.17337237667418,68.45056512698427,74.94719781642591,81.60664802937977,84.70042866963675,81.50017927271749,77.73300147214307,77.27984671136181,75.22802178423744,67.1540128229029,53.94637053418222,41.4196088112569,33.00385028819203,23.09221324890117,9.349121727975044,-2.914407336053845,-13.412102322832611,-26.043153932653485,-41.291375420662575,-57.19921210657287,-73.699783235297,-92.03464685524004,-108.65912629143133,-115.78471497319521,-110.9669629709714,-99.27065866939785,-84.99001060212755,-69.01906094324667,-48.65624340939014,-22.026633884802344,6.452508794667378,29.242491109351533,43.35511274041985,52.344037387011,60.49432899161501,67.54989867289072,71.63451435583985,73.91206518713705,75.14632043448772,72.33446980412614,67.02413426833712,63.548166614253994,59.83931056443284,51.35968599478602,38.41092870978126,25.280019472069696,13.556288160382117,1.9889266905336869,-11.10461993341995,-26.26006169518634,-42.201007403456366,-58.86986285174665,-75.95805794080887,-89.81046153928935,-95.53742307690193,-91.3277868478972,-79.8431510796078,-64.72335899221264,-46.724679022775256,-24.415461394910462,-0.14176787327805937,21.54644877891315,37.45342987017307,48.21528506549505,56.552322791764155,61.42868730491895,60.54847392053429,57.268998967243114,56.59942093328975,55.81034611383111,50.45304842747833,44.13957010178641,40.62141043867429,36.073197598875495,25.678734737826492,11.63421346275941,-1.144927930574242,-12.621898596400644,-26.304133493850337,-41.7720809108495,-54.562191802961344,-63.56724736420725,-73.3458854862025,-87.3354243313909,-99.37175804848123,-99.01080877825757,-86.79527275042076,-73.67312836052335,-63.2430953012173,-46.72296506145096,-18.781016373163563,12.502146364893482,36.84144389850262,53.32219761682433,65.73682709399345,74.74354215834083,79.71079234603836,82.5693034257971,85.2691688199637,86.05803753795207,83.07523444916241,76.80612837321088,69.88299290483768,63.50899698274311,54.301750442073086,42.097629536392844,31.282575537194514,22.084737449210934,11.035122472555033,-2.74472115971212,-18.192022852050236,-34.33028681246093,-49.61856520668903,-64.66491677775713,-81.33962688175276,-100.05889761234671,-117.92828118728539,-126.77820514752185,-121.77042906161896,-107.61964151669169,-91.91378555607281,-76.47164229203658,-56.86949910658897,-30.256736665406624,-0.596186681469603,25.344770281209634,45.04361256476438,57.943861283148706,65.28347955736534,71.89714597308762,79.3287243785322,82.92248734339839,80.28894829426312,75.85952926336437,73.85077551427528,70.409449776727,61.556019258761815,51.232627171994466,43.51998335708914,36.65024327504751,26.78569747438991,13.878612715494523,2.4271045607439463,-8.195474370007195,-22.588435734566268,-37.925775289232455,-50.76071858875668,-67.64134797525682,-88.00190141744702,-98.18554690230964,-92.99921900311648,-82.33310325505308,-73.80829021282096,-62.38108033069467,-42.111192023594164,-15.858707187410491,9.349795302908486,28.62658859275602,41.30228417490726,49.4889480477541,56.20910880211727,63.1149922783335,64.95750197274589,58.57533900239821,50.77871206565353,47.463910152454275,46.58099458527375,44.589829840800036,39.948991474680525,32.915035718178515,24.941817567767906,15.693780576290582,3.274594019201908,-10.190076014237224,-20.98000092651439,-30.809343888238324,-42.99558612284371,-56.568895436302604,-71.44365509552335,-89.97449898130102,-106.93748890735641,-109.50609685520402,-95.7207776664277,-79.39589844436074,-68.70755353009478,-56.53844259695303,-34.360381628476574,-4.523606288414915,24.03463443710202,45.59843262430664,59.74466126034524,69.58806454248929,77.96299641953335,84.82111175073776,89.16843998011649,90.05926552357506,87.2471004019839,83.32254424053535,79.61231130404731,72.96396084789426,54.0,100.0,69.0
30.610466796245564,19.319653677661222,5.469970953239572,-5.946321428870811,-16.730072814152646,-30.262276939709313,-45.887637442898885,-61.825978232323386,-78.83236593191509,-97.34084872069107,-111.99201566897548,-115.46746831763556,-108.03898344530499,-95.30433773184264,-80.60815728948332,-63.75510414038232,-41.54130462509066,-13.643437258829737,13.890569762147228,34.153877628672944,46.22816127352615,54.70800585042491,62.74995925476509,69.05755129896943,72.35885237290353,74.48511096093182,74.83577028520645,70.81064322976135,65.77956086528043,62.73837456582471,57.98987317957817,47.90723854671581,34.472755998671616,21.78429113557661,10.271394708051892,-1.5706850036370137,-15.313973168223102,-30.830245271762795,-46.906929386404876,-63.86230272152507,-80.52042819495816,-92.47605526179206,-95.284779716916,-88.5841525590984,-75.72559897334025,-59.89960355052724,-40.714029950643045,-17.3986969132134,6.573589422070464,26.801521772098127,40.95189080041659,50.822410686558946,58.46673524608221,61.75367819000834,59.55112080162055,56.753861387385946,56.682964918795385,54.72240928375774,48.44223507843644,42.869141568482476,39.71133937285213,33.71916646701663,21.745312089767282,7.683688619015158,-4.441893244139703,-16.24170696605698,-30.7696731795467,-45.911669191103854,-57.433066239918695,-66.04520346423526,-77.01599758547603,-91.52841911175453,-100.82603203365963,-96.2802633914051,-82.65056158825288,-70.62451985014864,-59.56682611461456,-39.69013625634481,-9.518102110796383,20.484733471658185,42.23654494489397,57.2131593769889,68.74855107272509,76.55868520255862,80.61950375404876,83.37216131111181,85.82853913049249,85.59312207975202,81.53163244545144,74.72200127829348,68.08752031552581,61.286918075137464,50.90309009607017,38.685855066616966,28.608577984447507,19.199800832738294,7.282955966969992,-7.066042101276854,-22.858483770988062,-38.86746305165957,-53.89716848410863,-69.26296517261592,-86.56831597502647,-105.59582019815376,-121.80002488004003,-126.70590134520722,-118.24914873381478,-103.0035497479576,-87.55435058483269,-71.46548108980355,-49.860660223792465,-21.67207022116871,7.489590944600031,31.69480098365145,49.494862657875096,60.455941318215025,67.0633229787526,74.09373907015417,80.99716726125737,82.71310293827354,78.90118520478921,75.04384719847641,73.31175500903491,68.36022684668302,58.44735818500675,48.71269222976815,41.631421736787466,34.22960428967844,23.1973162792667,10.268412600754102,-0.4821138903769917,-11.905594379414666,-27.233946863094662,-41.74534976699952,-54.895943196611896,-73.67829417992093,-92.55730060803512,-98.02128223139474,-89.91281222913312,-79.67628448948514,-71.19387983434825,-57.4778682164312,-34.8307519661418,-8.185006698874547,15.643765437546257,32.89410390522447,44.02043218074781,51.41571051167826,58.29135260487045,64.49028506300387,63.805892655125305,56.05838858368791,49.333117472619115,47.15082510712038,46.220124243955425,43.54841649745704,38.10066697217408,30.66111072167812,22.499233660791806,12.44702286661108,-0.7217976105917854,-13.631370366416212,-23.715158831198465,-34.055977390817645,-46.86942612334926,-60.607803928334185,-76.42228110298015,-95.57436393685725,-109.6287182000664,-106.75723313373629,-90.59377027201975,-75.81955666807981,-65.85489355711199,-51.28928702968127,-26.150736782246142,4.21918354805477,31.094323704972002,50.35005830175577,62.86336967954356,72.10629672136562,80.15419613441591,86.36760476618436,89.83129381498082,89.56578961388095,86.07434745725594,82.31948098984311,78.13820680748333,70.24342196591091,59.522350533957265,49.398833218970516,39.77222220562578,28.650264361413107,16.802405442398744,5.678210937650701,-6.088683459188157,-21.349538801501666,-39.05139785901865,-55.2799587972857,-68.9577025400567,-82.9330438702031,-101.65976511562852,-122.23982640277758,-131.34253759383637,-122.81392648301508,-105.91605912880604,-89.32618199944693,-73.82508394229589,-56.61448746357506,-33.02724106923471,-4.058206352790967,21.6024196699883,38.566235949789466,51.53969475586885,65.68993232204312,77.96545874348962,83.83866566161777,85.01714529363794,86.11220048730841,86.63633165790232,82.07948034923047,73.39303487669525,66.09465516917696,60.853010359716386,51.771707701878775,37.7394046081695,23.979895577485884,12.774785538149962,2.0738527700283775,-11.019247079716491,-29.534601891669848,-50.31053491072166,-67.15800722328278,-82.47257643540507,-99.86617102287539,-110.2768177997197,-102.99607963733686,-82.83170629507364,-65.33179040837076,-55.669121420139135,-42.49051250475339,-17.155594327478717,11.2114306182012,28.42318804993874,36.22908445088848,45.68678888600341,57.48555938307785,64.25277873484681,65.39929860322935,66.03662923537775,68.76046851982407,54.0,100.0,69.0
17.63972274671389,3.941523019370045,-7.699518563834932,-20.13376625120312,-35.304112074024175,-49.709404747009536,-60.02388565976444,-68.74642320391322,-81.06329619091463,-95.29164660962182,-101.01424025875676,-92.74140102988741,-78.73527624948984,-67.73214589470797,-55.08518583573522,-31.70079620983506,-0.2940554566818484,27.69957234888165,47.058945874360816,60.85190472356099,71.44287712303456,78.03959084339778,81.42850093648855,84.18350688983004,86.14479460584205,84.80050315411302,79.7363491725871,72.67991730018996,66.30959016422226,58.717748910799564,47.33118448210735,35.50396971710059,26.000297425129613,16.074847445804743,3.326634557982226,-11.508851141856766,-27.547549827940767,-43.2993928352428,-58.20424774254586,-74.03441882724023,-91.96644479858429,-110.93965943492267,-124.67483888284684,-125.452701008522,-114.16352033444296,-98.42438823027335,-83.17622698023946,-65.96869959589893,-42.25002930353017,-13.004133774058175,15.119080808500849,37.51541294088358,53.35232476069275,62.58053374750899,68.92126367268395,76.32011844078319,82.19174362037128,81.99507967971229,77.53249409750228,74.47641246060743,72.4685834904929,65.83764364359965,55.38110812456806,46.45600279939837,39.71758994961917,31.468946479410874,19.421412751781887,6.907610036850805,-3.44207117554756,-16.02013991104305,-31.77729790009089,-45.364989718336034,-59.618820550268424,-79.79090661963237,-95.88104578065374,-96.62959490092645,-86.7162335139376,-77.25571804033986,-68.10879896790284,-51.75987725328956,-27.21124244792875,-0.7668372471217777,21.356826412686964,36.640619561200644,46.41945935708135,53.31660244432474,60.378529087401944,65.23881410672908,61.992986611715,53.67089093875924,48.32054779022395,46.93091940877935,45.702091903344524,42.262024708868715,36.08053778897722,28.367300499742097,19.90555455005019,8.895726712435248,-4.690934638911118,-16.78465481031497,-26.48288676959873,-37.54631375324088,-50.79089412731713,-64.80935509692185,-81.75850460111648,-100.7894783120366,-110.7797067646958,-102.80617035872476,-85.68173968389861,-72.74416711993769,-62.58610849794063,-45.06782369434758,-17.48480653454047,12.631924098182704,37.48571081205387,54.52000505722418,65.71987953185463,74.54857674487714,82.18779466799879,87.68868578389527,90.17405597257878,88.77751416828426,84.90635184206522,81.31136653020944,76.31460631370307,67.26629257064384,56.44933574139957,46.67377298730741,36.74140311821163,25.20714431741179,13.509507251545294,2.483024693871682,-10.071483615590434,-26.39550895786844,-44.01718097818592,-59.43827893508934,-72.7524172347785,-87.73894262673379,-107.89902918656396,-126.64383249021024,-130.48838491567906,-118.23485706177011,-100.95609903739786,-84.79966190668097,-69.23946086779695,-50.59527741706968,-24.91176738039876,4.117337925580099,27.35130100574126,42.374572192527765,55.49236534769761,69.70476355760083,80.37791489637407,84.43572480213739,85.22023145263755,86.52430435175938,85.96307459257332,79.75908262548982,70.9415591601972,64.58026346237308,58.857714809703275,48.03684880311842,33.51334457232185,20.538488380434448,9.736742249045369,-1.290703135101469,-15.78842964108051,-35.63646808338614,-55.687190578056054,-71.42121965068462,-87.43319819856168,-104.23278299595985,-110.1356743101259,-97.8466592746825,-76.9010646085891,-62.027611021985464,-52.86805430415541,-36.36291693861334,-8.502010138098383,17.629107713047542,31.13579769321067,38.46103338682752,49.18447924404579,60.17850606036192,64.95937708257937,65.42473286713485,66.63299519918797,69.68753612382817,71.25647674721478,67.4761088711071,58.68531776937202,48.950999461073465,39.93194759168835,29.688179258685498,17.353008710548902,3.9580203436019823,-11.281073670329855,-27.60448094136737,-40.81879182603044,-52.68338338350366,-69.6519251589043,-92.63710959027662,-114.5494128821364,-124.66486274203181,-118.26275854028655,-103.49427278798868,-90.36378583437315,-76.1517899926652,-53.93068181384681,-25.158360918143458,3.90280131703965,29.096856032184824,49.0344811318812,65.65840279526715,79.94905894034477,88.99226584636496,92.93567223712361,95.4262839782459,96.06568975792725,92.48591524700902,85.91677630022946,79.20851112723788,72.92967873057529,65.44638443715105,55.5809735224017,43.64483651248739,31.726626733834408,20.564498524981325,7.601941194909721,-8.56786579344401,-26.659022576938796,-45.66783572698177,-65.78368651255887,-85.25287840654434,-103.20136097869846,-122.35989911526212,-139.31885080626813,-142.02452662007335,-127.8937353237093,-107.92367696479499,-89.54859266175883,-70.69281343590967,-47.71926280392529,-19.16902657692813,12.592614559565181,40.564256544497546,60.31346001143371,72.58306436388584,80.36102344510174,86.48003035438269,54.0,100.0,69.0
52.48598591397732,44.412532533627505,37.66864070473517,28.343538752250694,15.60742738430113,3.7967961770853833,-6.61920229624736,-20.466443119482772,-36.06094200499148,-49.00351849480442,-64.98061839562308,-85.56787347474011,-97.79347882060824,-94.29705555407952,-83.6563169192199,-74.91740191573153,-64.3653324656114,-45.30167327274346,-19.441589118907608,6.266439560544065,26.469179476592338,39.92613693135544,48.56386001406103,55.27504435243841,62.32134938682972,65.23043957379087,59.715401642870475,51.59659600856799,47.67018374595821,46.70726761296679,44.990814475196714,40.73197030551723,33.93446121643357,26.035720654812913,17.086890360122368,5.089806530756961,-8.508590436061645,-19.695043432616615,-29.39524106514471,-41.24109445542043,-54.73658924565629,-69.2733498004567,-87.35622566476613,-105.24422934530901,-110.28088390401854,-98.05669664629434,-81.24423570496377,-69.96439149235164,-58.64086622999412,-37.92624150189825,-8.61430719741297,20.567361825181933,43.19331277338834,58.192657057114424,68.39651445206532,76.90904893832978,84.03645463695878,88.7634772180174,90.17521763022242,87.76463689563714,83.80376166059357,80.19504869491145,74.10746879177171,64.13911048707973,53.499034351830886,43.93653859625926,33.5492585302815,21.756926454240705,10.296637244423867,-0.83444370079486,-14.412191918616763,-31.55429926950445,-48.772096387047064,-63.39574608801174,-76.67886602258659,-93.05279741981494,-114.08762559898,-129.70202594263228,-128.18877774609786,-113.29379268288051,-96.13240983331406,-80.3397774890776,-64.40835747565202,-43.9267897082903,-16.470710391699455,11.754781321515491,32.34223964389843,46.05445906406436,59.60162686311006,73.40686465420008,82.18627630997622,84.75536397659103,85.51846047784903,86.79708723944454,84.75564632298713,77.20600228681273,68.74998851863629,63.15774897339784,56.370214902968996,43.96448269335377,29.459334913221976,17.29613665105293,6.682612844756491,-4.943471680757189,-21.0662832767615,-41.75670198308953,-60.61461038789859,-75.74047769914549,-92.56809039276195,-107.65473892139532,-108.34375087910678,-91.92990980351084,-71.59979819567415,-59.3022528351803,-49.381999746231955,-29.146767387551048,-0.010476796032221736,22.84697855886692,33.31067661858626,41.09022384182353,52.725962160946096,62.27754049094151,65.28796289071218,65.543082598187,67.4158816629661,70.49538529614246,70.81102765615249,65.29327367292822,55.80346632272319,46.323433530074496,37.195951524643355,26.294888460963296,13.578355413285607,-0.18995496983613344,-16.06909589406957,-31.84934073176403,-44.08655164772643,-56.86066809456794,-75.85189179663206,-99.54913930905263,-119.10599538423892,-124.38566597574231,-114.26489480700761,-99.3849422466004,-86.7630764470873,-70.67093751697449,-46.02346420106966,-16.545248953517433,11.693272200041486,35.370673556822844,54.05020401489403,70.1159095248831,83.22331083509114,90.48515944229052,93.71147520059485,95.94086582531817,95.48633593691663,90.76110076148092,83.90059907465574,77.40907737209423,70.96531034144947,62.86084527460251,52.27939114901411,40.0959479351199,28.49869292694205,17.131101135626963,3.233506018169135,-13.676535550154195,-32.04765704746625,-51.39134185913337,-71.59352205061907,-90.50406176921996,-108.5289319146451,-127.96666904449884,-142.02548440657736,-139.3175384640578,-122.18579468633243,-102.4163083095215,-84.34975433846839,-64.58080847072812,-40.04624567323433,-10.061279007046403,21.379032623245493,47.149303801195295,64.52375403019012,75.12776148926329,82.25537803618906,87.91615024659968,90.68637138842129,90.07373616599759,88.7039043435854,87.99678549644929,84.6531182619421,77.01505968564506,68.17892398975242,59.263455964169765,48.02320508052025,35.119150072957495,23.404846816058946,11.75541909336258,-5.030677416886053,-27.001574639499125,-47.22331014733072,-62.97678172447182,-80.82674212413804,-105.74554540821107,-129.60336163978533,-136.78830735041183,-121.57708780881889,-96.51401288087861,-76.10158722571599,-59.57093255942281,-36.68596708629583,-5.563742827890686,24.38305161856646,44.68038869520222,55.03285796402946,61.332050454994324,67.6003001220944,73.33675144790938,77.89274865332479,81.34344842081123,82.87582941378355,80.6059735456252,74.12447139816112,63.31282671464088,48.85566919040718,35.19465694534104,22.82035019445235,9.36203025613626,-5.183508886261937,-22.209164350252877,-42.384127297759555,-61.96639566108613,-80.94777976982151,-104.40040635094402,-129.52503744749254,-139.7084811942058,-125.51788796218234,-99.44476800336446,-75.51304511498829,-52.78888830606523,-26.838559147661485,2.1496068256733856,31.679702959012587,55.68059331682121,70.5620314842368,79.45008892627101,87.54342064678279,95.82126634338977,54.0,100.0,69.0
71.53538481142431,60.970688230843486,50.67087158479697,41.11634793763486,30.219387688702152,18.349272586630974,7.133910742987854,-4.365390566330899,-19.093629765493038,-36.70716540965299,-53.28376183612821,-67.2172482914351,-80.87300477097874,-98.85363221726139,-119.84418593711266,-131.2007794747001,-124.71722882507068,-108.23819080197075,-91.44596248721331,-75.89262530922788,-59.18944339962031,-36.604753223872365,-7.944569744920257,18.678669786057785,36.71049196269605,49.7769550049065,63.77896967017106,76.65261538928043,83.43089917796338,84.94101066136265,85.91257608742941,86.78059654596083,83.02924417358813,74.58234803749659,66.86557699815668,61.639433908920196,53.34272008211482,39.71387167739677,25.648585049233017,14.1843182059569,3.5574969497797233,-8.993284922276516,-26.78503725102715,-47.688157550622996,-65.1553396164962,-80.28041366985939,-97.63913699889208,-109.79455292022638,-104.99942346255445,-85.6921441922009,-67.11360162006012,-56.829956103482445,-44.92369450738346,-21.071532897436047,7.878728704508649,26.9004936811692,35.29237700059294,44.15141660874221,56.07061888100917,63.76193493545203,65.38865234880753,65.8330762592036,68.32354681089946,71.06894762529394,69.83833449758774,62.76170423767034,52.95439987650151,43.74435438620005,34.29205440708723,22.741271325020183,9.740395559824671,-4.543840349093187,-20.8690365720661,-35.72824608353046,-47.38938902472975,-61.61204695226438,-82.49603970619904,-106.128473303247,-122.40940284394848,-122.72211207028673,-109.89883460544638,-95.57551620484121,-82.85741516393693,-64.40438418209295,-37.70033751054282,-8.061573331434543,19.09022826429024,41.19808220064174,58.87247417242347,74.3542592126807,85.96304534708545,91.63156079283091,94.44821586917404,96.2276376943359,94.51906714266808,88.85598914344624,81.93960584587501,75.62158210073305,68.85521160838816,60.0586786875937,48.82920814709267,36.617318589062194,25.311676465535356,13.464171789915202,-1.4009050194674948,-18.89712229190123,-37.509811691813645,-57.211860025155275,-77.27371801403184,-95.6530441791697,-114.0502802249057,-133.1748714354118,-143.21385442668603,-135.3332479388764,-116.3276482263606,-97.10768253151508,-78.99541836966534,-58.060321680103044,-31.88498196179782,-0.8016963446753409,29.650760694317587,53.00649272679616,68.15827225733585,77.38836632840258,84.05905460675153,89.10182342444054,90.78046934104285,89.61594164520427,88.50054098362011,87.49224455093464,82.7923145968381,74.44354785848034,65.68958899550408,56.32909949145944,44.31685233805619,31.55165570174932,20.234544158217336,7.6259996939357295,-11.097659698255043,-33.32785948403163,-52.08155276980289,-67.52189886664348,-87.38691234510019,-113.42413897906962,-133.99381357305052,-134.43044229636314,-114.52619029268692,-89.83653389434036,-71.35809702652065,-53.974792540753995,-28.249758228971736,3.708092730160124,31.41888117836599,48.49431585368283,56.98324750873432,63.1193147382679,69.36749244820119,74.76952365920732,79.01155559439987,82.060875228972,82.67537308998526,79.13991117519303,71.48857972253393,59.34755003629178,44.66269800093076,31.62403853070679,19.072261272542093,5.274816933807591,-9.734126736942613,-27.829998163791686,-48.26188382038109,-67.30377258328886,-87.10353013031984,-112.03899031171119,-134.82016224727732,-137.9089057237346,-118.34940941541551,-92.09441006509944,-69.10230057880447,-45.67601975615469,-18.715519452671085,10.835066552510822,39.473039559422574,60.88264934862113,73.50213755940747,81.69444346247151,90.0583810327976,97.61661609799904,99.50084371330719,95.27321335632887,88.9371442146094,83.2947413151533,76.6679067221121,66.05858646585861,53.150046709291715,41.37061169877136,28.940315252591866,12.469846251983775,-5.955923782700288,-23.82850569246976,-41.90212120323325,-59.07237649799864,-75.47121132632473,-95.57891196595435,-120.39695018382943,-142.94577406702334,-151.7995216183679,-139.32733123898709,-113.31699175768573,-87.70597941821624,-67.98378807470513,-50.71543151568251,-28.33543733897442,2.2558505246215503,34.87764134831611,60.237463930237425,76.09090106428759,87.18073780648052,99.06038707681196,110.11184510282389,112.64008770794847,106.88746934016032,100.8465022124463,96.87500762983305,90.51226516394802,79.6850253695994,66.90562690811639,54.89560367535939,40.90535425547975,22.146097430578305,1.985999855356778,-16.703901273051237,-35.56896379134458,-54.977054573185306,-72.23336043788449,-88.14176756249073,-110.96676342085406,-140.21662134461593,-156.09892798745022,-146.15137685704335,-122.84272516363541,-101.19203193885456,-80.48713219870868,-55.0488324424478,-25.740457830579924,4.00897524728801,32.0784666943298,54.84033745700996,70.19907657689913,80.96260430237324,54.0,100.0,69.0
69.268095495492,71.29613304762916,68.33615003165653,60.00124852663641,50.19124891394437,41.15131965411366,31.188353554288753,19.072223293146198,5.812325698895388,-9.11240629443597,-25.53595846578751,-39.27083930327634,-50.92509019162957,-66.97653442051082,-89.41436370129465,-112.08860869201963,-124.29584788826986,-119.88531299233652,-105.48052678285335,-91.98903698397905,-78.42280361798434,-57.389852507750575,-29.138540606168384,0.19459201573527168,26.04647995354678,46.63640964991779,63.54867170851239,78.2767702550058,88.15496757045615,92.55481851980555,95.13777811169538,96.20107418566151,93.19810365447834,86.85238720298214,80.05404983474288,73.79694462327927,66.56755477988244,57.041254568442476,45.288655794394906,33.244450643045184,22.08760227069785,9.519262805193634,-6.26269769133184,-24.19536668218926,-43.06775445497052,-63.080781158328875,-82.77780159346261,-100.79939713051779,-119.72701382291856,-137.62443938959763,-142.77150125196772,-130.39473014163465,-110.53536624863106,-91.92507922950342,-73.3863687957118,-51.09174085938306,-23.27124109593356,8.415084705975035,37.28252509120095,58.16168092309824,71.28773575597965,79.45421908566385,85.75068326682594,89.98573182965411,90.61717072737937,89.18183303654044,88.34630061896983,86.64128874174587,80.60083669954675,71.8689205453581,63.16917304697365,53.13292037676655,40.54812822552618,28.141136605627576,16.983172585265546,2.9197546973832353,-17.492732715479104,-39.30694310248701,-56.598806944939426,-72.4814127379031,-94.5662883898225,-120.67348515114308,-136.5957804454,-130.2478288322816,-107.1169674498212,-83.80418962618556,-66.7390031780998,-47.58540562327883,-19.231398306803815,12.588047293507573,37.50786406285157,51.557889380702,58.773629674682766,64.94011258886687,71.0541027307507,76.10382264699629,80.03892221230944,82.58344219554479,82.10777986158422,77.34168729077197,68.46173596223915,55.13945823199526,40.66468729042526,28.089875732499134,15.199711373357626,1.112626396258567,-14.563541800517598,-33.68075961626013,-53.96781058070723,-72.68055149915635,-93.77373364748722,-119.59732112676792,-138.3523621604849,-134.06243729578887,-110.68451478106934,-85.12953431405037,-62.632345740329455,-38.238948064738665,-10.36768920468335,19.478480447468325,46.62063141987692,65.30813591546757,76.07017113480114,83.99635288274854,92.54046546409279,98.89768206454468,98.76177955011225,93.47235158311248,87.21671997778535,81.6550321644715,74.0478052892374,62.36975121749697,49.586014836968054,38.05670388351459,24.613669572512993,7.158910527519299,-11.164959113195055,-29.01880553582686,-47.04608467990365,-63.737174317181,-80.70116503428189,-102.44741914697727,-127.59525147965472,-147.45238119083302,-150.35776097982213,-132.52410607251787,-105.42797081746096,-81.41661936027246,-63.05903630913023,-45.076456554942546,-20.23209855617783,11.925134542791154,43.23744085864183,65.6626793426384,79.49842508597591,90.39640682878425,102.67740877025106,111.95515606247338,111.5063797278962,104.86947182965893,99.6385804214175,95.47384356009192,87.80165253707928,76.0116581917349,63.36234157603376,51.28424783428198,35.92083942774713,16.245580704435127,-3.546153680195027,-22.04243687970527,-41.21071731033989,-60.30023825941827,-76.694288321117,-93.65781915849817,-119.37574533492119,-147.18918729122782,-155.7201425349761,-139.8914870178977,-116.16136125513518,-95.43013081527145,-73.72414910647464,-46.79981536506163,-17.091940869843896,12.406904692667903,39.392483695016224,59.97476477501331,73.62758163115294,83.57555590775071,90.90944791636565,95.81170550380547,98.46821633825517,97.6059661086038,92.14503348339939,82.45979624961147,72.36412015551603,64.8112839645391,55.555145982164085,40.45578624143786,23.315595983161998,7.518007699490106,-8.880190976465121,-26.933567108645242,-47.25100514935973,-70.91338124891337,-97.68236412339132,-123.42077713037098,-134.93447115837225,-120.6503383725509,-90.72718874634664,-66.34047797598629,-49.694154748004586,-27.889098989404708,-0.782744585580378,19.783569483993936,31.42676901103709,41.46613975431642,53.39049400974799,65.57452951410598,75.94483469260759,81.48555116204669,81.67906521799341,79.66635453062182,76.51721947321094,70.14340386465513,60.188978677096515,48.69241938783906,36.26098123473651,20.775121467804876,3.1115680757305717,-14.203744948509646,-31.809586451344227,-50.06923528399298,-67.60182711045135,-86.35568144789272,-111.07166414768433,-136.4736736101742,-145.6337386007291,-132.4843563487,-112.35431581958393,-96.23347470535599,-76.74469346930552,-46.15806921229025,-8.621811936870055,26.204096839744295,50.81726580695154,65.47673173123621,77.21571971308344,89.45427195415957,99.29491058752285,105.13856988172368,54.0,100.0,69.0
87.28148242317846,90.54088181339999,90.27110452263945,88.83021919229411,88.14230920910592,85.37827087382622,78.17935228759505,69.33314500693808,60.53735404259074,49.6841084226161,36.81045681191494,24.87561373066822,13.491902355496821,-2.391470237723093,-24.012672046628552,-44.83529141407182,-60.95781433072642,-78.03588220932868,-102.1728871035873,-127.06418213501273,-137.20187498537265,-124.57572925024559,-99.77799478218178,-78.40868115631346,-61.93325377903351,-40.322165845941264,-9.89442645602954,20.840753270286108,42.6323021898942,54.036639252398516,60.5210859400653,66.76669679940201,72.64093017797504,77.34800284685153,80.96062802538563,82.85306791970045,81.16442547874209,75.21746620927834,65.02777995297721,50.8326917380564,36.879304133009924,24.506302628283247,11.2231138976177,-3.1598694253985236,-19.71946558019049,-39.63883802737312,-59.47934931686445,-78.26110144470806,-100.95179424635946,-126.61506354213371,-139.79374175442896,-128.51865760247753,-102.94815217696305,-78.49625239784345,-55.960147234230504,-30.499552100606454,-1.832615964534537,27.913173576081995,53.0082671391233,69.04192958743448,78.41002497029856,86.40135317772688,94.8537542150712,99.58648325937261,97.57497973730156,91.60776832269416,85.59181544677385,79.83962804599554,71.04374617369818,58.59268438237146,46.17653318477213,34.57404031233957,19.902622753649904,1.7977791389565119,-16.314918393377827,-34.25413248567529,-52.04965182953894,-68.39548979973509,-86.37889231277168,-109.64941446831517,-134.3768794590174,-150.4964577896236,-147.056428008075,-124.95168431307052,-97.87213845713414,-75.64925213931936,-58.18385961209425,-38.81331513578983,-11.453148916904736,21.52470480687537,50.78591275556316,70.3393346427182,82.66197128511301,93.80027472200213,106.06815368916249,112.89640635872786,109.8250666535467,103.03913403624941,98.54999645974753,93.74430201251768,84.7188366819741,72.27711623489056,59.917790432632344,47.37157267149972,30.531060609030735,10.362301921568447,-8.939654992518651,-27.46414975442617,-46.864914309244575,-65.35526920214866,-81.14436211617026,-100.02001440184654,-128.095222495591,-152.41477330200263,-153.13263372989618,-133.03269410625563,-109.85156862243909,-89.5764911270997,-66.4670782518887,-38.32454679049974,-8.469075589873912,20.616850797475216,46.14319761580515,64.49788836522238,76.77255808880732,85.97347243536133,92.54297133682985,96.84850669186385,98.64111435698307,96.53226033392653,89.67991751796521,79.35566284166768,69.97176434284883,62.6190459279134,51.75874291298039,35.442232046636676,18.64595413118509,2.9423509431771744,-13.928093161597513,-32.508396002539804,-53.72663252325249,-78.38506452588246,-105.6236619199102,-128.96427441790397,-133.50227583394414,-112.59098735706857,-82.49538020286737,-61.273487628790804,-44.342887296435585,-20.100004118161465,6.23590013731472,23.79790253163103,34.18580647902749,44.75219880412015,56.973460675225255,68.87297425815191,78.16305298970502,81.9802793202719,81.18952553085333,78.94315610716636,75.09262432454811,67.56059655945523,56.9373696839163,45.267471574209,32.168638249866646,15.739746643856126,-1.949056995686917,-19.199570842517616,-37.06827766102451,-55.24583997007735,-72.64686159546528,-92.81841387737538,-118.98514924253095,-141.510042166127,-143.73015822556795,-126.53333253646052,-107.34992493335119,-91.4817949275603,-69.07644801766632,-35.61828687206049,2.1384106237349734,34.54275384215154,55.81844380207607,68.85696755152813,80.77542363741026,92.67590828089553,101.41325804047572,105.96399832681591,105.47127157758467,101.98222412121262,98.4107730576686,93.76566045392838,87.3858258131284,77.29620398523247,60.6664588098817,39.94419076225428,21.511486671545907,7.801455662375214,-5.717878236856915,-21.421284902129994,-37.40122824086637,-54.39852323417789,-75.04162035362035,-101.5589771477709,-131.6373281440804,-153.21195672784486,-152.9350967577672,-131.47035645024042,-103.67826943156552,-79.30476396992614,-53.84165158062703,-20.931232237165922,17.717272138377226,52.89367454611505,72.4183271981011,69.56717546763181,51.57141362305182,36.0709305820059,38.58267682292205,55.85655732403797,70.44990407377296,75.34197094081796,77.99837664595276,83.20568203127777,85.00418140693463,77.79792212948368,65.66686243929782,53.90227632008503,41.83003274545188,26.4827443190598,7.380715599905636,-12.765706794052605,-31.873333492493103,-50.563491354274284,-69.98411717241781,-90.50346509737284,-114.1204610359739,-137.91392797755398,-147.60424387744857,-133.7002168120516,-108.43430584201765,-87.26144823303808,-69.52315434178536,-46.94349269010056,-16.624960125957514,17.264197464129325,46.3614022551392,64.05073291105451,73.10577266357284,80.55766399677395,54.0,100.0,69.0
96.84608626386755,99.66330777582723,96.05431829597181,89.76343181656728,84.02122066370738,77.74769963025113,67.69579959935592,54.843447623942566,42.87822805231198,30.801701896256976,14.870395993473204,-3.5268087881347916,-21.451753451952165,-39.49817620400433,-56.89022934461319,-73.18136222221678,-92.56067190044216,-117.00881671810177,-140.46046553552637,-151.81863238493668,-142.0920992240745,-117.00701236273966,-90.79058912362828,-70.32412758053019,-53.14899302301273,-31.818892485938402,-2.15145650041051,30.78778077171261,57.45697967740221,74.39255889320896,85.74492455622608,97.37832330112123,108.98827144875358,112.9183747617183,107.83918626899124,101.4761157473054,97.4369322665142,91.6263738507864,81.32790000522078,68.57888003870951,56.49713184992547,43.050731788375565,24.837633249515818,4.592530506078954,-14.257106942378948,-32.98944146480266,-52.45034192073237,-70.12182191102458,-85.82755248245363,-107.31214547489586,-136.56827654016408,-155.4778985441912,-148.6916415519196,-126.02704793858307,-103.87298225982538,-83.44664418393015,-58.744868539292106,-29.724706958249755,0.09267085115786272,28.547421757152563,52.25083962118509,68.50016799766367,79.6884099044932,88.144921165811,93.99237559815191,97.68667094093851,98.48269914871106,95.05105538321916,86.89512151465522,76.35209242524516,67.81061739221498,60.10270979642486,47.442826403332525,30.426607498317278,14.099146867827656,-1.7559972752473296,-19.107743412924375,-38.30642831985354,-60.497373925917074,-86.10351092446398,-113.31868856069045,-132.88678830169647,-129.7569082463967,-103.74746055039944,-75.19705737782517,-56.61943185112054,-38.228490383532325,-12.09605448542937,12.411756368940779,27.173204117090282,37.01668214252073,48.19624818678581,60.52430227911934,71.96838912156875,79.89075140072124,82.07125367173022,80.60860713082138,78.1019335021696,73.33561432763392,64.7095276932461,53.61539769893095,41.744863040684486,27.754646944154498,10.607461592145611,-6.94756583749123,-24.2616886286687,-42.36555102483519,-60.31583248210571,-77.91484534125463,-99.88081457466288,-126.66764934744543,-144.7090793897262,-140.06326548279128,-120.53022310061473,-102.74385022894936,-86.12987075099491,-60.39918666315299,-24.70779088548833,12.429672136968634,41.88609484118594,60.09775809597741,72.19595726105182,84.36793129683942,95.60368280678837,103.194081253263,106.34118128953757,104.58154295010802,100.94819794196349,97.24360398286125,92.11757915191737,85.02201995684237,73.18314448808876,54.837629752642435,34.12371760447137,17.181504769904965,4.112207847617712,-10.100660904257769,-26.059527091648693,-42.08823785029597,-59.88045664480019,-82.03772944431103,-110.2464720981939,-139.44587165597102,-155.71746573446165,-148.39487479834997,-123.37780340294064,-96.27361042282922,-72.44326767576197,-45.19743309984204,-10.056220829576857,28.767050904532333,60.64441397950477,73.85982559179669,65.25974592623352,45.962758899107065,34.62839352907687,42.77465070357214,61.020706068943156,72.68823351610267,75.91769997291027,79.34432883765774,84.47120358863559,83.83863425611126,74.46622738706307,62.15923947523947,50.58093284710617,37.8302759566386,21.266631024663337,1.5255897622125696,-18.411096233233597,-37.24333867402795,-56.091504473643774,-75.74002300085223,-96.93541846809009,-121.42578043357739,-142.91994408176157,-145.86127405675364,-126.66526139938095,-101.6078680620386,-82.15735963423043,-63.78121790400871,-38.902037733689184,-6.88547016445604,26.573016853791078,52.72678488404169,67.19913931843101,75.24791295306416,82.62014343736854,87.64176247855606,88.92897932228188,89.38553927688035,89.53297266114542,86.71468593142951,79.7219113449687,69.22412508325533,57.150937889823616,46.11618753451107,36.473568215299935,25.478936606051395,11.147057314210933,-6.217579372624507,-26.688400463718878,-49.64501810450305,-71.23475829098832,-90.01236764682687,-109.75121804653689,-126.56943256409613,-125.61215441994926,-103.7153579000902,-77.59275772513273,-60.53339757450682,-44.862418800502006,-20.49161091021004,9.00235777374127,35.423346647629124,53.74219993605436,64.58089978280701,71.86100532081392,77.07840549457838,79.63381688388175,80.25539687113819,82.29739895846025,83.08179692855643,75.10153650108607,61.40016672799395,51.007216606903796,40.75348379832443,25.48904960551895,11.557638540253922,1.6798351728441372,-12.87679868418902,-33.62559736013424,-50.93925294381216,-65.93458553402601,-85.85828744508804,-109.733704238513,-133.33584900622856,-147.69097404601084,-141.40695686088665,-117.13457307697371,-90.26312568210133,-67.30560905321916,-42.95997892525127,-14.911297317485321,14.61578454335315,43.05681677608527,66.86656489731476,82.84138540743494,91.72996329489743,96.9851452435881,54.0,100.0,69.0
82.39683709272005,90.08783156307138,95.2751644654054,98.28512604361877,97.96883112863439,93.15539370031105,83.88758062287148,73.56053460059255,65.762808704024,57.115900342823764,42.723403126733984,25.52266635210744,9.599808144269783,-6.598830379592237,-24.42726268369135,-44.36380633696573,-67.56061616731576,-94.00642118296099,-120.44036763479252,-134.80400622194242,-123.92760227007236,-94.75935902574581,-68.91926486697487,-51.957691505368885,-31.31362546269342,-4.249436552898539,17.664514530052358,30.135990457949134,40.01595577868609,51.74006999061154,64.00471367913222,74.77455988319035,81.09967195180673,81.8545950804371,79.97508640237824,77.07393792124232,71.22923730101172,61.65140238319655,50.25367850099431,38.04748873371855,23.036182621542007,5.467005570004997,-11.913412774911365,-29.408324745652802,-47.65130363500092,-65.30619531734467,-83.57420319997742,-107.45829290418384,-133.63942701678272,-145.8319373840787,-135.0794355374077,-114.82738330917365,-98.3064366625317,-79.93199403849316,-50.82514398562554,-13.678081899933776,22.046387059832266,48.22084225343286,63.85843612009686,75.60627012510415,87.88732226093032,98.20654770751277,104.61498338596334,106.27123390729811,103.54744894554327,99.93994498621082,95.93573317667094,90.33223611545331,82.25703045863706,68.47867252942972,48.79370616015266,28.66516043295676,13.221266710786344,0.28124760492892903,-14.646588026563363,-30.66925499691665,-46.92360515148066,-65.72480492520282,-89.58467341720052,-119.08807935005396,-146.15924672975615,-156.12457705828595,-142.29958118075282,-115.19878002165687,-89.23641401407293,-65.26998583447316,-35.831813436718505,1.1679058928830668,39.24988603343425,66.78058084977548,73.3733465806632,60.00860359547811,41.056531666965526,34.97949759913587,47.86606504324968,65.50969813884053,74.14140820230621,76.57510651878907,80.90506744362575,85.21778777163554,81.86638251841525,70.9175986196105,58.75348370323695,47.16633160253673,33.485957721391806,15.766353826385034,-4.330323952623756,-23.94559922804813,-42.61915579999333,-61.692178038645295,-81.60242512115481,-103.70003938618993,-128.56961767364942,-146.28848909693707,-142.09876638510772,-119.19544564593433,-95.376601616206,-77.15449503949421,-57.44125433421885,-30.225582356881656,2.9999642841559777,35.24414369116711,58.037586888291365,69.80936799246733,77.40147009217984,84.47883268668865,88.30189521489585,89.02735292613153,89.56078954813667,89.12810262858251,85.11554362776964,76.99212767558339,65.77495573831534,53.770545239895725,43.26884239805625,33.58182693709539,21.68499085990447,6.424190960309083,-11.790028241048883,-33.18564672561365,-56.21351755090793,-76.82339576126131,-95.4921325216468,-115.49974956597738,-128.69440114775597,-120.96131313434765,-95.67534692162477,-71.70741163935475,-56.52801623842854,-38.788993419666134,-12.112108465165866,17.25835558526778,41.64093924680086,57.472080781006994,66.91261710491112,73.59469411050031,78.1191433213526,79.87720869204287,80.61133939543457,83.02962489534342,81.83261341842541,71.25391105120282,57.9032158362008,48.4532031885583,36.74193988458458,20.95681411925316,8.543070303088577,-1.63781022949168,-18.632530198229176,-39.26465675451784,-55.09718863210389,-71.07489672689717,-92.5287427932828,-116.81842275978178,-139.02764274580832,-148.25802163351733,-135.63621590867393,-109.01745495153837,-83.37213172973131,-60.660829675427586,-35.16587229618624,-6.4208118683577196,23.075068335926513,50.593150463258986,72.34825544133425,85.99417787516302,93.47987307085992,98.18406616895017,101.18542776441498,101.71435173953276,100.46905950945782,98.66201944696434,95.36116480319781,88.12300924618101,77.41063989194373,67.10882442193879,57.15795994613517,43.36580774210457,25.013062273780847,5.382382814946874,-14.748019791124008,-37.46485550499893,-60.32967934980544,-77.37591810830945,-89.89835529872627,-106.7574722415995,-131.79045670785055,-153.7488116574353,-155.32528155052583,-134.93618024264845,-109.38021716950131,-90.76583807572352,-74.13865370426146,-50.44266027809341,-18.68959428764842,13.624326599712214,38.598461214025136,55.59354262977044,69.2341984349087,83.34656061550031,95.64193336356354,102.97973296508626,106.00115283468746,105.32527736750636,101.58496564360603,96.32686928171124,89.53785002383913,80.50972520640032,68.89514183049837,55.53789389929688,40.95604952982936,26.48760359162781,13.061591282703635,-3.532565532217424,-24.062272456077604,-43.179500996433134,-60.73928390607028,-80.14010631213917,-100.95155584617366,-122.1566008190768,-140.044199461869,-143.81590564665328,-126.18307135744102,-97.27344852963914,-74.55106364183351,-58.84637055758449,-37.920195549562074,-8.861275472689904,19.533199778609376,41.73718145312677,54.0,100.0,69.0
105.63777152484732,105.8002379354202,102.47218925991956,98.90989781152045,94.48198702417926,88.36986247561978,78.99156717020965,63.23694955912821,42.7113467898821,23.6588309125891,9.489992381674053,-3.769806291879758,-19.277662812582935,-35.269729460103,-51.977592186226154,-71.9921249917846,-97.67073935214947,-127.77961941751244,-151.39206151669413,-154.40979599868393,-135.06478985680369,-107.23040774430056,-82.42499908683061,-57.591939644614165,-25.77571205739856,12.51529368077056,48.851495717927996,71.08725040988269,71.12509722918432,54.258370035945944,37.30558294384505,37.08191013787982,53.34234191385436,69.11059476943717,75.03969990264817,77.4779584015306,82.51072263413619,85.25781057853911,79.20689999125585,67.31456268641998,55.42521064564857,43.57122679903711,28.775711088470608,10.058319807504974,-10.125633497862651,-29.386977028748518,-48.04080776133006,-67.35425459852695,-87.63922360447425,-110.77830771237039,-135.17346801798428,-147.6818392254882,-136.65110827279634,-111.75507699857785,-89.71519421024911,-72.00732625950917,-50.418969722112955,-21.015088569759723,12.821332817691944,43.07604645279619,62.356190887527326,72.10243793854667,79.56914407413794,86.03291867573049,88.67966583834504,89.14383638214166,89.66902675694895,88.40433068081664,83.16539837884275,73.99458988398052,62.25795338760564,50.53850998471931,40.50912713896823,30.4868466015291,17.59964245571186,1.4632573681996173,-17.639073010294123,-39.84767790894007,-62.54158584619715,-82.21351560463746,-101.179220063369,-120.74194087236596,-128.92966713503282,-114.71865783994699,-87.83753600416783,-66.71833436888599,-52.249542780604145,-31.87024490033058,-3.5114325228249204,25.073174895393265,47.0996748689338,60.65841312404132,69.04260740998431,75.15465407069843,78.91363772998396,80.01164042265546,81.18317722233716,83.47151856071804,79.68960850429788,67.168683720937,54.859853141360155,45.66150615906995,32.30315460822836,16.782890233027175,5.794784698980083,-5.639889341517836,-24.74384515086243,-44.36774218230887,-59.28054364921504,-76.74211509201285,-99.42771902760056,-123.78695912430243,-143.63239730779236,-146.86678712534453,-128.63528103875828,-101.10003951512263,-76.78115677769709,-53.727550062667966,-27.08612035356752,2.129178149201239,31.380888354666897,57.641131305585084,77.1168505574323,88.6249277015264,95.01511767161051,99.25780392267144,101.60425209732027,101.46075439673983,99.9966710158417,97.96563316272942,93.75609610518575,85.22445308338203,74.26123691660952,64.3716969738886,53.71360681636151,38.414680412751956,19.33910915343206,-0.2899329358282509,-21.00873516728159,-44.3442678330456,-66.00589159023872,-81.12997330891663,-93.92802460290032,-113.34431728082794,-139.29065819047375,-156.81902854898482,-151.1553955304493,-127.22781917086071,-103.23902129001517,-86.2334664886026,-68.2576653264494,-41.88410253734978,-8.970079991199162,21.773263811809304,44.18108154133424,59.62607560539698,73.24889445751188,87.29109916992444,98.2970716138376,104.2337262925466,106.1913815525654,104.48281726371958,100.18666278400262,94.55442906595665,87.19212875728034,77.4001544983875,65.17112439705755,51.4406060119961,36.64588286510428,22.610517186863955,8.801053413207237,-9.267258414647879,-29.91447367765996,-48.217953463040075,-66.11204335422777,-86.0715374328896,-107.07979527134485,-128.03011410073546,-143.13476991572588,-140.8453032893245,-118.11989510874918,-89.59346647013282,-69.79476983585006,-53.78015359138473,-30.07654503675759,-0.1675192648254105,26.59109987176644,47.165821873553085,63.904968578639604,78.28392838885395,88.19966314072582,89.39603267057095,82.54741682280171,77.1018656976824,79.3360945980125,80.74295023166724,71.13408878256882,57.95347742355641,50.497652884468586,41.96116923128505,27.16693172838179,11.92974447159671,-1.1548967828847696,-16.662119078941362,-34.65988690832542,-51.2583994933469,-68.56389976615834,-91.59023150195289,-116.6492651334314,-130.33736721598945,-121.86262456522334,-96.93997121441267,-72.7247151607653,-54.468534084616145,-32.74685123285571,-2.9169219499593115,26.966805846448192,47.92220799386065,58.963135006619645,64.76955209836369,70.9080608471116,79.7508895999138,88.39210028008821,89.95471533045475,84.61238313065277,79.46465076059445,74.62943725110448,64.66164861602532,49.78453533706311,34.613107007405084,20.023114928326212,4.591609565327318,-11.299332458366102,-27.565989286516622,-45.02964391685682,-62.19233917735818,-80.61048516133188,-106.13128858198925,-134.28576573952967,-147.74065753522737,-135.61204170426407,-108.7729062326588,-86.28988843661458,-69.68964795997611,-47.91617376740861,-18.426128705492225,14.588895227942501,45.992024593652765,69.80124649641083,84.02981431126945,54.0,100.0,69.0
81.68773488191138,87.22091962829411,88.87353433660945,89.30213043958697,89.62638955441912,87.33088049467511,80.88133077786031,70.7713053949056,58.74763775069606,47.47428605194263,37.76104426172228,27.126907379592584,13.242235158161469,-3.7367633554268,-23.770714949427276,-46.564844238411894,-68.56434111044211,-87.53872366163391,-107.03676857992964,-125.03474427564275,-127.12590024994242,-107.34589245101348,-80.62706775797488,-62.396954055064064,-47.3730019308228,-24.21742649932049,5.091218424593125,32.311032756530906,51.80894398537193,63.419766578791844,71.00754693794238,76.52046253895328,79.45960402768668,80.15372817752606,81.92930200242483,83.37166234462273,76.7105305489152,63.15453270039552,52.177790390697616,42.42542505813966,27.642733931805363,13.09114504920984,3.0391387475662315,-10.422152611232141,-30.878107560093184,-48.95600971887773,-63.73670331892693,-82.8886278288186,-106.46520465757705,-130.4443142681634,-146.79953178802936,-143.54388073449093,-120.85604446759426,-93.57871026933906,-70.30612148496014,-46.44094996685943,-18.789840567359025,10.684774912896414,39.44617709787521,64.1052110374445,81.18680743225198,90.83026359225143,96.39292723196625,100.18001611980462,101.79759278926613,101.10111644825842,99.4942722839748,97.09599960865314,91.7562191153995,82.10602011558451,71.248802406456,61.586630751539545,49.841410994438185,33.12732004767052,13.654621486544547,-6.041021813962254,-27.540597153606587,-51.093247215503695,-71.06168388107426,-84.6510581755645,-98.57385547043408,-120.59335933216065,-146.09439974429444,-157.79916468303162,-145.35355772752422,-119.61246467187232,-97.7961106274073,-81.60600635626075,-61.60707917016212,-32.728226300043175,0.5475187504878376,29.168126477515276,49.158219498287906,63.5250147637175,77.35022595792786,90.96410477379523,100.50124098209393,105.17150260645006,106.06462565207994,103.42186563939676,98.69346560431774,92.63596833023179,84.64093391786118,74.07674413574303,61.332448443997095,47.236449947116135,32.41372693793688,18.798166445785476,4.126323221153455,-15.248409167671172,-35.50138329211437,-53.22737428858632,-71.68840643937305,-92.07875409629902,-113.23558570726297,-133.471661400322,-144.71560814789183,-136.02427956259564,-109.56919161394097,-82.80635662139458,-65.40058651437043,-47.961061322609034,-21.654396127131864,8.201136519333096,33.09696967678681,52.28325439402636,68.3160372608469,81.7956759153736,89.58465417327841,87.95300171116574,80.32937521075526,77.05356364340544,80.48328382722897,79.13342471567651,67.02341710542305,55.257849866433396,48.61950193025347,38.19412230130547,22.501470434418295,8.082523831394296,-5.213862584805414,-21.807347353998217,-39.661450205404634,-55.917493679380634,-74.54854750041909,-99.10358878593517,-122.43825132731283,-130.30103141996756,-115.61749980916034,-89.24578295745093,-67.12158462115805,-49.00820422141468,-24.792844746763205,6.226982485711341,34.13626294522726,51.99256734402341,60.90455278205961,66.32378040136238,73.19297375626694,82.56500808291106,89.79321553801952,88.81878199269757,82.88075340340941,78.28918673913547,72.42677235644683,60.66439746867536,45.285220461042094,30.416936369129274,15.667482808664067,0.007882492801572577,-15.911290100959251,-32.50697055914087,-50.09741609050444,-67.1102288252409,-87.12972367998599,-114.62603634809392,-140.5014730176094,-146.8048442454062,-128.4230280737114,-101.30004433647136,-81.36944810791603,-64.2877388523654,-40.02666557202356,-9.05715932596386,24.112017137613,53.848225256695024,74.84335218985237,86.68273148036641,93.09752764379294,97.74575303221057,100.9194882646202,102.48717476660933,103.75084042802757,100.56471504972713,89.74464650826488,78.82120781178669,72.36614165292701,63.09215873789326,45.159316371122706,24.297714160768123,8.05369900392963,-7.146401572667221,-26.706999085618655,-47.1260442473817,-66.50691622854865,-87.80249108596914,-112.48070016189993,-140.3570478422547,-165.5150819622465,-173.59016661894276,-156.18169307172076,-126.0037117441992,-100.16838295388541,-79.54467250455767,-54.689215846096836,-20.934539291606626,14.436349360322456,42.74129685590391,64.32324765026789,81.42037608357082,94.03228036233273,102.51159684442813,107.7076259172689,110.64765047521924,111.47180374779228,110.17376870414893,108.09244210421146,103.97261902703582,94.32544974614429,79.78281826566514,65.8713409934193,55.46143449035179,44.295210354428455,27.127781097481368,4.012033720618923,-20.9485493760897,-44.411070827403634,-65.64786227220347,-85.97969528709018,-107.70010521751503,-130.55047438659446,-142.37860743563726,-129.58878265156292,-102.59064252004926,-86.93342385128798,-91.46190968603914,-99.02363631881705,-87.34626761550815,-50.277852840872164,-3.1778741227164136,54.0,100.0,69.0
97.64591383267506,100.9166309772228,101.7824215310642,100.67753889132908,98.94265592455446,95.97960483602601,89.35526326709697,78.89147505791912,68.38753895640843,58.62112473397431,45.512206550445214,27.606809199424987,7.98983045626341,-11.9499087734151,-34.299929767646724,-57.52159103403586,-75.50751622904485,-88.188798711656,-103.98609097488898,-128.2367188154749,-151.6976638120009,-156.59585802759025,-138.3910782341947,-112.4580314815826,-92.90132636043067,-76.62016121226901,-54.14731903075966,-23.16874673351399,9.633128558065952,35.7938090894291,53.64908862785629,67.41705688055094,81.47023931279598,94.26469936659603,102.28568146658475,105.8088846265855,105.62609957559583,102.19444896770756,97.09996846273368,90.55567569941076,81.86658001300924,70.56698956505986,57.3903498833365,42.94802948868286,28.32085181051519,14.917441930853636,-1.0129313088506007,-21.298576893492612,-40.8097949322229,-58.33042669705986,-77.44068705895566,-98.14071046122773,-119.36657210931368,-138.19650878127598,-144.53611548043753,-129.59031620427825,-101.05604676550274,-76.9605047144327,-60.988478491182306,-41.284148877310166,-12.916904506111207,16.085584321088437,39.11015870923294,57.15030193945299,72.54328587938723,84.84188623622775,90.13106439185613,85.94681263933731,78.53395876437807,77.68247892473151,81.19345478095958,76.46607678618915,63.005484473737035,53.11624217359757,46.345068764718846,33.920374077584086,18.00726020535416,4.367058990449896,-9.612439534971042,-27.064109971161646,-44.468629604610314,-60.773082975287885,-81.11283756481647,-106.5683763639037,-126.89082499212024,-128.2420348785696,-108.35087836442018,-82.04413461909259,-61.928553655624796,-42.957765521496924,-16.1857092862942,15.078745803524429,40.40808692611716,55.28816199751119,62.55904036942056,68.02594306147944,75.72500571032616,85.22438537678998,90.42690011770857,87.24008289809984,81.34551969375082,77.01915611809343,69.67180193753897,56.351446600802376,40.87207580059302,26.230391448764507,11.21893349417194,-4.586387087091066,-20.574861148827704,-37.560407959756105,-55.069113830309774,-72.25843029040568,-94.38321711102954,-123.05983608539897,-144.98794212728558,-143.64310573431285,-120.50021153813788,-94.60308120446456,-76.72112492562566,-58.18806484274933,-31.5647482458935,0.503953668613678,33.35146273691506,60.93561867190781,79.09297991124136,88.88326738334624,94.54443343622134,98.86428778654671,101.46458560470884,102.91719205571682,103.60837035664953,98.05246382782857,86.1657572105241,76.64937001660687,70.42033216999695,58.75824545063503,38.96823632992975,19.060716628912672,3.931619070805202,-12.367658255634733,-32.752632717469595,-52.72021812593091,-72.35446158913383,-94.5601541665267,-120.29268773130184,-148.42395870428416,-170.29578005159303,-171.0110035464834,-147.82854168414806,-117.70628847776267,-94.03645439726705,-73.20789600815817,-45.7388829375754,-10.36129438874631,23.478412470926116,49.51886966710452,69.70184820904667,85.53178534976799,96.87019815099387,104.30763854999798,108.75069729587626,111.13223837271296,111.26233016643344,109.61977853794995,107.27828478869172,101.84601710542631,90.43578768764857,75.43631445403356,62.581788413672896,52.60169910394161,40.07143628492633,20.908872410914363,-3.2014240181116813,-27.96494125415062,-50.74528294896653,-71.52498877191076,-92.00592229897832,-114.43667515109857,-135.94348927575774,-141.309995062062,-122.1301620871015,-95.96271364481272,-86.5411687800646,-94.46056044678245,-98.3133371122511,-78.93497569434103,-36.622257820050216,8.912940736519475,39.68653339039611,57.953909045556784,71.709894092878,82.74203166678754,92.23218692432103,98.69046987028186,98.66139554007668,91.70289259418011,81.36666901521278,72.64332526526898,64.92979051476664,52.71646285900708,36.237052593604446,20.72351322578544,4.767219517334179,-15.299889585258665,-36.794471245404324,-57.72586162896718,-82.28620118330608,-110.86042509030734,-133.52199111598887,-135.49849619039523,-113.28254417329188,-83.07379208688326,-59.81444746865022,-39.88785055693375,-15.173923640023917,15.197905293802021,45.964344815399016,67.65888312704338,78.20178981086185,85.58767394276916,94.63016534157595,100.098390871467,97.22097700726886,90.21213021044207,84.69892510555329,81.16276752493259,74.01354284868054,59.962129111822854,42.63829760564219,26.110652298626935,11.583692404404514,-2.3880101086627983,-20.35221352490975,-43.53042628760521,-65.44175414030991,-83.07680542952154,-103.86793770471391,-133.09999594614976,-162.6817399855921,-172.78118325110438,-153.52431800930583,-119.79096760874265,-91.44169673257908,-72.2819620457464,-52.02423267794062,-21.421382920844813,16.878479647145102,52.92532734438722,77.97991047357925,91.63429075378394,54.0,100.0,69.0
44.70577577572869,61.8143181601036,76.5397024024861,87.29910153458336,89.81763915202215,83.6343650687235,77.38111201835704,78.76879011645697,81.11559378439873,72.94877529243882,59.41083829968906,51.30470581024675,43.492043610670216,29.32964866421563,13.782118203444188,0.6247142930808928,-14.365631503966934,-32.291924758231836,-49.12993057754307,-65.99386752818211,-88.19362744919098,-113.63267206818591,-129.68115270408182,-124.26962037029047,-100.56679862301898,-75.50753633157206,-56.85516544205115,-36.15453579556461,-7.149722818537962,23.38080203095527,45.75894533233323,57.928153978973775,64.07740973833712,69.94175253374445,78.45329624365965,87.5168024864177,90.27254454689925,85.44874320342592,80.02217328639543,75.47648645901397,66.3606331056207,51.86971457936074,36.566669390665815,21.999664804255037,6.695065063214814,-9.180258556214971,-25.33191580626903,-42.67296446318266,-59.95176553132973,-77.83959132167962,-102.3051657984627,-130.9619592787061,-147.39333997813307,-138.521083407796,-112.41420345486245,-88.74138461306727,-71.98986636726471,-51.32813595105274,-22.65395966186654,10.149218409414363,42.13752126342291,67.19751027839023,82.62061674417306,90.75170816175748,95.90678521096811,99.82881366111079,101.90152651535523,103.34986934372347,102.89888695475133,94.92852619784989,82.85466859571679,74.83411786625965,67.9676853918288,53.65798001992777,32.791757676149935,14.320547642119305,-0.3192412364223522,-18.00243582756377,-38.709079560346915,-58.26995931257573,-78.4371775950047,-101.6151901315005,-128.3589207553618,-156.02939445862077,-173.22568495412276,-166.26832107516864,-138.93660934952365,-110.08214094361179,-88.17698376007615,-66.25770321276974,-36.03758158609653,0.051134167630993155,31.799505907439563,55.823549072930014,74.7298005067048,89.25794880343096,99.38353494250254,105.85009213218706,109.63436678411043,111.42248556313731,110.89408856279624,109.03945491705286,106.21200289462811,99.17918855150629,86.2162477398544,71.30999446202898,59.58050824471568,49.517030854168794,35.24867818138239,14.259917325717748,-10.455400224273372,-34.79673097946039,-56.901999606917215,-77.37202219523297,-98.215639549555,-121.21106239286296,-139.94755191774723,-137.98092933063828,-114.03935737931137,-90.91444950065721,-87.76037813227416,-97.09325925067326,-95.52775591244048,-68.46319775309891,-22.70461990147527,19.596065222219895,45.78801646200016,62.23558149160843,75.13679899781502,85.61661861986703,94.58006257028761,99.4482125353633,97.27613557546422,88.82054084721916,78.54370914986335,70.545230378381,62.042575138782944,48.14148492744463,31.545417864724133,16.396418189453975,-0.6030975729741825,-21.58403534691214,-42.778559590142805,-64.25813930524325,-90.37399213418622,-118.68006993351156,-136.7547757793702,-131.14956892169033,-104.41820298495303,-75.4761020457473,-54.17848484504413,-33.40980328334856,-6.864247405825724,24.44723201968602,53.51160818717342,71.59945510240631,80.261243755794,88.10343293867008,96.93786326597613,100.08451115560807,95.31106144184682,88.3162599890124,83.6414398330798,79.75427541975235,70.59879838793802,55.05803842614604,37.68177408766036,21.711776380345466,7.647451885273916,-6.95818232958292,-26.698363366641807,-50.327775368050624,-70.79505170309325,-88.33661455980426,-111.51253226146424,-142.36271018111336,-168.48913594985322,-169.9814983983608,-144.21685983692777,-110.51195442225237,-85.25197794894203,-67.12309420618668,-44.36202266906996,-10.761720922868593,27.994970027520115,61.52963206542693,82.81612321061071,94.56903919572315,104.14300391321424,111.68582207386592,116.45588032046452,119.2774851864307,118.14351063410938,112.99521806638921,105.6651028574692,95.24832362122274,80.0828237840339,63.06394059405609,48.8579108739313,35.61106466540975,16.720133392480363,-7.12793431363879,-29.659919975724428,-50.60207756582358,-73.07332167221392,-95.47443296466189,-117.04554237432754,-141.122362750553,-164.21840155783974,-170.25904030147845,-151.3921638048264,-121.17796375324322,-94.16994322115778,-70.05175256326092,-42.53324646505653,-8.514870028514391,27.751709283314195,58.32318899009776,80.74891036599102,95.65554265763106,103.67050277254616,107.58536565308947,105.58539877668987,97.16523433954534,88.6068000194454,83.66808954516343,79.69830264507453,70.93791732809859,56.57077532832967,43.0035071108604,32.44819307412845,18.242848546211416,-0.6784913122315133,-18.052372536675374,-33.20833486918394,-47.464563734584374,-61.76360431826341,-81.56187758847138,-109.65136881987188,-137.85275565799142,-148.63889514969387,-132.1354903544679,-99.35590914785135,-69.85461428220808,-48.77940300596977,-25.21207623786213,6.295321289682663,35.31694499216338,54.30594233460498,69.16311073254865,54.0,100.0,69.0
85.52330955196554,92.39356992096805,97.18791381122293,100.61626669232682,102.29968851167631,103.67969076082856,101.47723342676233,91.41773031776046,79.97981035967409,73.16192271925549,64.81431151768375,47.941310350989795,26.881029830018797,9.974551244618276,-4.893475616040923,-23.925204737169384,-44.5072287456993,-63.87667981481756,-84.78346076798016,-108.97984661573585,-136.5704484586896,-162.79472590016627,-174.00393240701737,-159.69738743454897,-130.01348535624393,-103.15385116781586,-82.32004853474486,-58.53393074306594,-25.778821878913906,10.034294587539462,39.432499870082125,61.72551174522734,79.39552045751869,92.6087214596024,101.59143058765065,107.16748196160388,110.36485169353764,111.5041373284836,110.41672607069432,108.41257154692889,104.78210116088363,95.97309592092702,81.82112316863923,67.50480623253782,56.7501670620058,46.05435970451323,29.822395424367862,7.295903461311477,-17.662059697396074,-41.424644944757276,-62.913761128028455,-83.24566035219092,-104.65375093086413,-127.73642792174941,-142.10334052040216,-132.6238407102423,-106.0466898734566,-87.74010590482352,-90.13539837838425,-98.74442741452852,-90.4645439271622,-56.309284762504205,-9.15011951266221,28.772487001737797,51.10343604293265,66.26398403297871,78.34579188281562,88.4008844962445,96.58598805357411,99.59030427449404,95.3413075250284,85.7811952599571,75.96957998443396,68.42542405214041,58.637068820862304,43.32638714556116,27.047666813609297,11.90106457242019,-6.363286124930299,-27.84798870558876,-48.74587508854033,-71.23121520258258,-98.71795242409476,-125.6632011765351,-137.89456992320402,-124.89763557262921,-95.44951753997005,-68.65750355141962,-48.55923955206261,-26.398626365421105,1.878615922062229,33.53772253267009,60.05473560062524,74.6981014268413,82.30799891188522,90.77467991233821,98.73043731474888,99.34172419741793,93.23443274453851,86.65255562563995,82.69297260746946,77.86197669570497,66.60534465489945,50.01926081887637,32.85934332256751,17.48862631570172,3.6920895900413138,-12.003385629927127,-33.42367170837146,-56.80104677931443,-75.82994742094304,-94.12295665218821,-119.89471918901377,-151.30872847150357,-172.10408026431676,-164.7333261437848,-134.28076170619966,-102.07133695274798,-79.73341179831803,-61.531413656539996,-35.704115391705514,0.3557369827981959,38.654568760488914,69.03958009270215,86.81196925187585,97.39900703336741,106.64916446024041,113.27191259022138,117.52768865686619,119.43712671399382,116.97815162433537,111.06588332183159,103.09426063228476,91.32628942014674,75.11695791424222,58.566634232951586,45.2437519905082,30.910585738177524,10.05703385570615,-13.960762822601996,-35.68837196713726,-56.92090102707555,-79.68439144253279,-101.6769464668245,-123.63219633155111,-148.4517275068162,-168.47203531208817,-167.0951047135626,-142.95053893351192,-112.79682269931344,-87.18413719487022,-62.69131883449789,-33.34268422454659,2.106534663072329,37.4236640898783,65.58978882655431,85.84622717278687,98.55498897462782,105.17790778439404,107.79293301628661,103.6003155621129,94.41711317451559,86.81210131496769,82.67551597050891,77.86064346695824,67.16235347054638,52.26175722486001,39.85305848668657,29.009094746329517,12.99104505294668,-6.040410514286951,-22.545051448162777,-37.43910431976905,-51.420884474120164,-66.64898678710549,-88.9379016920556,-118.47883860021398,-143.529868657278,-146.58261591273356,-123.41457205781207,-89.8534405029647,-63.217542081075266,-42.782865019576185,-16.684739181242232,15.541360006643131,41.75574839779409,58.63638378411135,73.6250249610556,88.6600244253885,98.63073835310489,101.0214411800681,97.57144235477772,93.1323361879422,90.67984164357877,86.86096376528381,78.29540299263314,67.44043853067707,55.82447056613049,40.25851009150503,20.56396205490612,1.516782495308671,-16.512108099665475,-36.69338919676321,-58.357646336815584,-79.02111211423748,-97.70900292730045,-116.67480612460581,-140.60322629664455,-164.46727356499133,-168.82365576458264,-144.85113393166347,-109.43110661568697,-81.47240516927585,-60.704365052853,-34.99267082104591,0.6107831998708904,37.9388215649781,66.78518839274538,86.48926097851508,100.66741928602772,108.60100816473233,111.19724194611837,114.7858620131807,120.94413037879441,122.9525462647661,115.89083226533445,104.13863233381169,93.41506119548518,82.73909353588596,70.4076008671852,54.50673190204485,33.07806158537085,10.61605519621427,-8.000281192879923,-25.461069512030768,-47.48576627296465,-72.7465130988928,-93.2178248658053,-109.98046197246188,-134.395567065144,-166.3585698074766,-184.35613047943696,-168.94818337407963,-132.0414524863655,-101.25386355133213,-81.53972056390876,-59.501978315837974,-29.056178433054374,6.3017048263887965,38.93913369218608,54.0,100.0,69.0
3.4998631302976317,36.52994338312566,55.88108439697346,70.04846423263638,81.38422073710062,91.06396926694731,98.14632959411394,99.09881454628768,92.9388394807586,82.7348516722565,73.64646772666701,66.10995915863464,54.69692410576294,38.45610094872552,22.703149135047767,7.1053395956940175,-12.432329675202723,-34.00203834745356,-54.83527358906911,-78.68969172332578,-107.08120009537625,-131.4039173016044,-136.7782375675688,-117.18341670788415,-86.8349975285759,-62.49583515418403,-42.71216408884546,-18.838693205921476,10.947788312745532,42.195212485794244,65.50811357526706,77.1878617473698,84.50232461058216,93.45060858543725,99.84248908846666,97.99680519254738,91.14474840709873,85.25582338651704,81.69263598204742,75.37509797143318,62.14131585064153,44.95659602669327,28.19961339898324,13.419515808758725,-0.40875856299437874,-17.591707818224837,-40.33901023208697,-62.82622935667913,-80.76388080662703,-100.61197071035679,-128.85021564456665,-159.39977012184465,-173.18305153144308,-157.4348147674642,-124.28518019975193,-94.5792989845125,-74.60547192275041,-55.22754979793161,-26.11617522682746,11.670453326479011,48.62114796065191,75.41309951349031,90.20507356617811,100.19066075084152,108.90422211752657,114.66491809949508,118.42762672243664,119.20170692666781,115.52029359349675,108.99502659329083,100.19851594836993,86.99399208615856,70.12061763528781,54.40641013855719,41.55823987921349,25.587753723666566,3.112636176269129,-20.533140154807825,-41.67881737392523,-63.41124792218182,-86.20123160396221,-107.84749048529864,-130.53797135102073,-155.47051545839648,-170.81459551619778,-161.88212824107376,-134.0708757156934,-104.90481604574832,-80.29684947816261,-54.896133059489394,-23.583135216141088,12.724008313909472,46.43953831959028,72.2002047604427,90.30748102055512,100.92713047998342,106.41119777116124,107.38422879310203,101.15840198632706,91.8432696770487,85.34770336232765,81.63876742364108,75.47897749834152,62.98774739185605,48.22651977955343,36.8903655669174,25.05186932442185,7.460955075347182,-11.12270385677353,-26.92291882543917,-41.584750063751834,-55.441070136117006,-72.16612932377545,-97.004244852219,-126.98570118841452,-147.27359735313598,-142.1813952805636,-113.81429028321568,-81.07370893802567,-57.18672657175973,-36.21807155203806,-7.535245171234723,24.20180866770205,47.32569980981297,62.86441356395678,78.14935107664449,92.27110106604826,100.09170704103957,100.45225512240705,96.15447769534764,92.25820137671472,89.96263993053772,84.85572645056246,75.2230894548492,64.25328502758973,51.87870929665314,34.80733315154628,14.825288509088313,-3.633411799515938,-22.063679033924082,-42.91826461139735,-64.5168174997669,-84.60300853685843,-102.9462751324622,-122.96934908645909,-148.20580444957614,-168.61369049927566,-164.45565854060808,-134.70426314219017,-100.19796223484451,-75.21711064140797,-54.26931578806933,-25.564085436937457,11.776170761637154,47.381005540706454,73.22062292726743,91.10041560922153,103.68865282576877,109.66577275407634,111.87274178573229,116.49569995686451,122.31532147269196,121.81920242552671,112.62221508594725,100.8703287204084,90.44684325245777,79.3803319625307,66.33171864835055,48.82280150952416,26.372226379997198,4.811997163779303,-12.882164636878967,-31.20512301416595,-54.78800402935187,-79.41407284037983,-97.98884562231167,-115.83053776087617,-143.47661088815332,-174.22508618950798,-183.5050677106306,-159.17214805492358,-121.68888489722852,-94.93094271497239,-75.94555750106878,-51.51565674669817,-19.077225092129584,16.428099192639024,46.59795459236267,65.86715048597695,79.63231869785898,94.52633100414499,107.26796902801573,111.91967646197787,108.6387273914331,103.35683313819644,100.66366962375616,97.6109974663869,88.94194993176933,75.38856917097934,59.82080303869613,43.76359887657284,29.64011118769271,16.810769730715506,-0.004723572953980293,-21.25650678452572,-42.452731066108235,-61.30263678614635,-80.34618425854147,-104.53722707185186,-131.82409741825026,-149.32091688767744,-142.12593043089547,-111.21650822170412,-76.66374108990266,-51.82649885616456,-32.54451314833146,-10.250425648059156,16.182222328271568,41.26543743659746,59.07841490815795,69.52320826586948,77.72382005190359,85.48672918131517,89.36030558020275,89.77577648372953,90.15552109259298,90.05967682534131,86.37407969567522,77.01543558054307,62.298508571601594,47.260690949687586,35.92633082103285,23.39370193021988,1.308173293890542,-29.43132647708762,-58.366955356335936,-76.57283261218545,-86.5648570625556,-98.54801765804223,-121.7097138133597,-150.3051878470092,-161.7950550287901,-144.28819381343004,-114.10027398112824,-90.32815120859365,-71.14634643180261,-47.85840909948958,-19.128026089098665,13.040309590127963,44.386757560197395,54.0,100.0,69.0
93.23663696475101,102.92312691299425,110.8726110870536,115.91805950808552,119.08112418427473,118.56535824937549,113.83397709716418,106.76254389641868,96.90944871134226,82.32227368995905,65.23930259021283,50.55614474442456,37.58948209236074,19.64583467750583,-3.9131053495341783,-26.8325406533599,-47.75091632001275,-70.01455525088946,-92.5802835574468,-114.10050733976918,-137.7387144894828,-161.72791912677275,-170.9627522010264,-154.99728321382955,-125.18584787914486,-97.47214413812081,-73.33334350546194,-46.56891433212367,-13.34995009398217,23.104873805487717,54.73930482146043,78.19132747954589,94.116288404062,102.88157061539343,107.31209678564983,106.30453489404894,98.4489921588089,89.55139298825964,84.15400322727277,80.39029896096498,72.50489802677848,58.60345238647879,44.5633724936675,33.90071807273963,20.51699393341869,1.8671706483022878,-15.921386941255799,-31.236669351223757,-45.62932013565525,-59.683481384708486,-78.4182637613228,-105.58970330080713,-134.6998554667953,-148.76384127245564,-135.70722147683244,-103.89361865106662,-73.18579259257557,-51.43714396833961,-28.878567377229007,1.9290968835037785,32.027341163177965,52.21491092679571,67.14736137813588,82.60661165221218,95.31793907653315,100.90873364001199,99.47197714839909,94.79972221141392,91.5662843276293,88.98653986111246,82.42776639610335,72.07043911756713,60.980478789067455,47.49536500717229,29.08611277905053,9.272338964316273,-8.777878207392828,-27.85520512392349,-49.204526090892905,-70.53634609515295,-90.01546776275472,-108.30553351732877,-129.8035027088984,-155.50184416770236,-170.5577982051694,-157.774525087161,-124.22525224687335,-91.91124407532381,-69.34270053485983,-47.09840506481052,-15.328981169930973,22.77628263355103,55.92499430857118,78.99143281071449,95.31289904616474,106.1195840844164,110.38080860460597,112.81309505788596,118.35569619518749,123.11897038066346,119.88707680502439,109.16370977537049,97.7661457757723,87.40282850385879,75.8735613633047,61.87577674241187,42.66392639041451,19.7683057610802,-0.610065360762337,-17.812775320417234,-37.46012193651727,-62.210997816214515,-85.46871531189116,-102.64842894157523,-122.63212272783497,-152.9640444963779,-180.21486587503128,-179.57969730619777,-148.27556274808708,-112.46231633613071,-89.320696332621,-69.79590018554663,-42.82302738432197,-8.816419429013099,26.099598267462753,53.25167914239742,69.9800359379414,83.77791999342503,98.7536534602687,109.58069761856041,111.59147640145713,107.0121727190999,102.28734727264825,100.11423688875468,95.77565175865709,85.37239122960275,71.02386742632432,55.14623163765926,39.38465418145177,26.01309866971329,12.543319727729651,-5.866396060055249,-27.568285405781698,-48.12631116581292,-66.54982595930643,-86.67684179859326,-112.50202933761753,-138.63122024304778,-150.20572367881687,-134.93766512405668,-100.65843017211911,-68.40975329610441,-46.12975109519472,-26.638351427673754,-2.872877720401905,23.882326477242746,47.31020532782886,62.66851489293834,71.8991754017187,80.13546871131692,87.119477710704,89.66479458850587,89.80793732907648,90.31160622041678,89.48325966725398,84.30962392276537,73.17814040678866,57.692285355196,43.63387105375202,32.85529681586234,18.197958207141003,-7.031541828696467,-38.52975304314902,-64.84838066587443,-79.92796812437649,-89.305224566303,-103.92905431242583,-130.23794795585385,-156.41443492577315,-159.45987628401173,-135.72540278885296,-106.26410108071966,-84.78136924366765,-65.04377150469776,-40.033381645453744,-10.081425207104244,22.488009353093428,52.27227661458313,73.86406914599493,89.16512922856657,101.15150981255857,110.61586309319989,116.58572200112846,117.5886483809784,115.02578645073096,110.5380693021072,105.43223386892387,98.35304305894496,85.57204829208675,67.88003928303829,51.66031078521915,37.43191363125448,20.12339107508411,-0.08464482348924901,-19.65467056932215,-40.57325884790762,-65.11935641125932,-87.81556307914636,-105.71601012283074,-126.07620724088325,-151.9708304455106,-169.70563247378885,-158.75710075419042,-122.50129810438577,-89.20172366339317,-71.13821598360138,-54.14902622214505,-25.31239945127269,10.103779313322582,39.315586499918204,58.32418141689168,72.93555569196283,85.74262866048315,94.53358787096136,99.9966429904529,103.2054463223803,102.44323289180046,96.57921010196871,87.12463592538936,75.84618194518598,63.66177117274189,51.953703443802546,40.1293177711879,23.7210567842337,0.7054828983236849,-23.67088710791956,-44.70367005523714,-63.252124071055604,-82.31726336938482,-106.60770413670319,-132.29007316161184,-141.80869752731024,-122.82209628195272,-88.51050052556332,-61.93963707595885,-45.683063059703706,-26.27056121289799,1.8568560859715837,30.946142921067228,51.26950553399092,54.0,100.0,69.0
71.55450356213503,86.83377968410832,97.7359934083768,101.1159763125719,98.20922443743036,93.60932756069128,90.96354633786832,87.63278668283486,79.65782538014268,68.90151269772176,57.517479044327686,42.64482073091637,23.25006772404335,3.924542694564648,-14.029454881356891,-33.864016283506075,-55.48301602038888,-76.38588145852141,-95.29817174524848,-113.94117066743101,-137.11945603816355,-161.9465716351727,-169.97682603362108,-149.24473030629224,-113.9658072759884,-84.5727189517026,-63.49232569045439,-39.031104831327745,-4.5026004798175805,33.30941282550916,63.557372725504365,84.22724053058505,99.09033365985253,107.94848663383209,110.93801046075164,114.08723885524294,120.17729860789834,123.19273911651621,117.27525944744774,105.70002590827987,94.77674680984194,84.2412499019208,72.18557594239739,56.95122256876278,36.151924096016224,13.423606060662186,-5.7184155440816395,-22.966133150882794,-44.22143803295046,-69.50043963036487,-90.89685527786942,-107.54537551890813,-130.46206856382176,-162.29465204482037,-183.7117166319114,-172.85113534436402,-137.0886840070878,-104.51023178877587,-84.0052859751442,-62.92804445984986,-33.51946627740026,1.546653669842721,35.08369189565723,58.94558624046917,73.87996810710602,88.10258426725288,102.62124389008476,111.10715889086298,110.6802075103857,105.40010424325227,101.49383343060079,99.37464412390423,93.3805086496617,81.48062903297988,66.54018786894628,50.465107574261125,35.24537845285766,22.403732209080452,7.802568173984647,-12.020046897756728,-33.75793336232757,-53.58675201231231,-71.92933191405663,-93.55596971430649,-120.56100986051608,-144.21834825902147,-148.69506949826408,-126.05130469720108,-90.38827994404123,-61.09767928252123,-40.65644542785604,-20.310109776740674,4.78652854556701,31.295765813841204,52.62937586334714,65.71985562262572,74.2387874311539,82.4708247035466,88.32893412278031,89.76604660336679,89.9093650331056,90.36192332550394,88.53359960949159,81.73087886857627,68.9371792102551,53.233718128690576,40.3543209784894,29.46072806550943,12.030824541466512,-15.946356280162771,-47.15637501348662,-70.30246118576603,-82.77557044092539,-92.50005032870388,-110.42407660614576,-138.85710348553616,-160.44217261098063,-154.68445461212002,-126.75831210115591,-99.25914319236242,-79.36530554202096,-58.43849210493357,-31.797478832984474,-0.7902982278411074,31.713523308646067,59.403484286913596,78.73674338265093,92.91826548725851,104.13345836178684,112.80934089141455,117.36305336859502,117.13095504094646,113.85764885058724,109.10742195186279,103.75020375082464,95.3701644496218,80.70642609813157,62.821467380583485,47.56711839992283,32.89622205534189,14.391365480681342,-5.848850201639757,-25.345631981122356,-47.40172988467019,-72.20017766025003,-93.29237781184658,-110.9594917878348,-133.25248779741673,-158.93885134584906,-170.04831076461022,-149.7970914354308,-111.4064017837258,-82.72752057797463,-66.97434463326711,-47.14343916364984,-15.157106262660092,19.61317032220721,45.68968805984054,62.72177464052617,76.91011238864486,88.74579676198113,96.35186842940374,101.19540055036846,103.48907883448545,101.25101100036825,94.11122637200998,84.01355725053918,72.36503661491153,60.17776080858908,48.696468112250486,36.076608202608796,17.636265641500945,-6.522562322448635,-30.119649001387117,-50.22934025659119,-68.49205384122325,-88.68244296054701,-114.46783578454281,-137.60426852919915,-139.18691309451148,-113.33227438098285,-79.39296479790711,-56.70928848939206,-40.934619512176724,-18.890926051294816,10.6962370544965,37.92429271291447,55.38927870232845,67.23819477869894,77.40899759792966,83.39736223480537,87.47046889137121,91.9847729977031,92.73278306793257,86.72084967249842,76.88224701205631,66.66287986902314,57.09658086624512,45.61464389234826,29.593854120961282,10.582592818340812,-8.170975607278395,-24.44644615791267,-40.96397706036278,-61.502394895225095,-84.71081272478243,-108.84702461788972,-133.96000320787613,-156.2298371092543,-162.94369978218245,-143.82701385103587,-110.64013039720682,-82.79856009314811,-62.202443292219726,-38.582270087160545,-5.536462390010298,32.24088187017191,63.8990630694682,84.59175336133922,98.07711929917109,108.49044786933128,115.78974402710313,119.35793616064942,120.14800930873459,118.62595851193367,112.32988567808376,100.52808228045792,89.0633958941055,79.49762500845809,66.176992300875,46.6001470126509,24.582896886387807,4.321356457511157,-13.261720153692398,-30.607809420526024,-50.948264827118585,-73.40295602686913,-94.28888131142796,-113.04065080869854,-135.81730671296617,-163.32114507164877,-175.6530731730291,-155.46432235361107,-119.48551864558695,-93.8245185724296,-75.5718853280176,-47.91431747323576,-10.722112878649131,25.110850085623795,53.63645425077647,54.0,100.0,69.0
43.19037045342841,63.828672924087165,77.78617150708227,92.5098118128126,105.95263761340338,111.83882452863043,109.34640352301054,103.94568995055002,100.90325683488317,98.27582799988069,90.45246855551136,77.3526690161439,61.95918644755082,45.848083440939824,31.358517837971696,18.642469273501032,2.5659017094690766,-18.330758224480682,-39.75975874564507,-58.887809407718315,-77.59624729273938,-100.96771833237898,-128.3929326976713,-148.16324442914248,-144.73830011945972,-116.04014230648593,-80.79269945403328,-54.6022735759541,-35.15242910364219,-13.525399014178927,12.585121300763035,38.25270468410558,57.20731195666963,68.38243828011788,76.61363918191974,84.60501138451723,89.12054225855532,89.77559291997106,90.07208992781608,90.21617106939307,87.16110567440477,78.62316534583343,64.4249916994105,49.062141979477076,37.305036226180135,25.485031221084025,4.897534325291916,-25.164314579235835,-55.03944849801902,-74.79113387883912,-85.37407660491452,-96.42581868428938,-117.95408815968466,-146.94279999266774,-161.98126276041907,-147.91549020933098,-117.9695724571427,-93.00987337384777,-73.81246697634309,-51.31207229104201,-23.20099297401044,8.661644526067226,40.519275132703264,65.77325418436975,83.20353955302377,96.42804474974447,106.92312218305779,114.65052435816465,117.71963356490964,116.42696657793506,112.56416052300348,107.65429321726836,101.82729094481515,91.81143496681482,75.54180662321917,58.05554965457082,43.540769574967875,27.98014763702812,8.511303378864552,-11.493791258382366,-31.275912585961287,-54.52492473520457,-78.91259248989239,-98.41189164880441,-116.661469648859,-140.84011798764942,-164.70501241181137,-167.5281437904273,-139.19854821715887,-101.33688691324005,-77.48296541215512,-62.389142125615074,-38.98519313285137,-4.76302540694654,28.310255403014803,51.25421163808962,66.9414574562761,80.70479957874932,91.35853399726597,97.95551940384601,102.20007498538041,103.38073599446713,99.62927624567368,91.40549910309899,80.77559879148723,68.83208744729927,56.775416270269744,45.37225308043096,31.501592836572687,11.01865104986392,-13.66852690396947,-36.24508433452196,-55.59347607331563,-73.87560580981355,-95.60513315871836,-122.20165248841478,-141.0261533106534,-134.06942551670582,-103.16862930408726,-71.41441015958651,-52.11202294024376,-35.562999657935784,-10.800592380812997,19.322391581256923,43.98572923812458,59.04824430126006,70.42926779058608,79.61515654900504,84.5418227246312,88.826718357148,92.8296890189711,91.64957968369447,84.07492595802938,73.8735478531056,63.871003127303695,54.15810384422446,41.4539132503116,24.271673378292626,4.989262920923729,-13.12281762990424,-28.956085753878078,-46.45432754904512,-68.06597467930831,-91.5883500774751,-116.03346869225825,-141.07663371509088,-160.4889577752547,-160.02167787611685,-134.66912781274604,-101.55624312008467,-76.4880612307036,-56.147874085525764,-30.01495895035347,5.360463504822011,42.43043541692742,70.94697982391034,88.97565622773953,101.33329210983923,110.98124641344862,117.17954766162227,119.81888956292767,119.98860073975523,117.45866602075401,109.30481447204924,96.91479214434338,86.30038523084862,76.28216651395911,61.08245146776987,40.24957885297802,18.44534191496545,-0.988860652373402,-18.12006446939968,-36.118015728446416,-57.371027794605126,-79.74391241197935,-99.76005602435481,-118.87377758776414,-143.76962314525233,-169.6651985884429,-173.10438362428897,-145.24895898195808,-110.4893144824134,-88.62842314418549,-68.97467327335444,-37.67491923920341,0.16974684585690486,34.21786598620182,60.221736574861794,77.50681990965833,89.77754458685995,99.79777070440717,104.23748659997185,101.58281700716985,95.35156604398311,89.90109290944469,86.10234436019229,80.77525305857985,71.68232016475679,60.08328957213627,48.45786656468353,35.08555360340629,15.688266961225736,-8.141012759150932,-31.170368159408355,-52.118397246363905,-73.52482654820871,-98.65702743689616,-125.45407609440225,-141.30589695369588,-131.81469278067433,-101.13370884737292,-70.7965864692531,-51.90065513894695,-35.30695411433595,-8.747146378500043,27.308793874736615,59.55057801492262,74.90754362787013,76.1664856010218,79.14498184703343,89.81569705213806,98.00963304191886,96.0426198926565,88.13681689687971,81.07418153028905,74.91032969730217,64.24003069476669,49.064387303358885,35.24946466347927,22.032850172435037,3.843975515640412,-17.787830537551898,-38.16987931867818,-58.81260866106131,-81.93441522694152,-105.20239971854438,-129.0089348215122,-156.85208698533555,-179.7605242621627,-176.58126863826277,-144.75485441357128,-107.79387628645839,-81.64431580921733,-59.31357809481899,-28.82249467291119,8.622686555541142,44.69054307007164,74.24205553181808,94.86836187437027,106.84116675107802,54.0,100.0,69.0
48.726862824634715,71.44967854232154,87.34832194588114,99.71001428491364,109.50600460046144,116.07739904290719,117.70484954372486,115.51096248362222,111.1887176656043,106.15448842574936,99.5518064039388,87.66601049655014,70.28167757261663,53.6126362828771,39.412667631939215,22.680555879970225,2.6122746422727348,-17.07460565430453,-37.55024774365904,-61.78370285412398,-85.12834640086272,-103.39406609411513,-122.9600242707367,-148.51996318240285,-168.65420140751345,-162.13706058563733,-127.79442681347132,-92.67827646982856,-73.0485100442365,-56.98940014604162,-29.81309932613175,5.505231308898451,36.066337265045185,56.19724047836691,71.06362010847691,84.23032362656781,93.60570585330244,99.38850968117193,102.95709700738742,102.84218082880105,97.62013034071039,88.51199586924781,77.42452255439255,65.28763537638052,53.46010447994613,41.855010486616905,26.32172703028347,4.014031191898168,-20.58510223918489,-42.089407073452534,-60.847330140256695,-79.55646811848366,-103.04456660333703,-129.3432273673616,-142.14375215168351,-126.77780910028363,-93.01752744318297,-64.66523256521755,-47.73720857221356,-29.397997364956645,-2.2040532332948595,27.441872370385905,49.154398684804264,62.45119986887799,73.47323116094837,81.39818655380546,85.66858132830575,90.20426585825872,93.20996833998518,89.98932839834465,81.22682055668722,70.89304524944754,61.13597583909485,50.95280608740983,36.88895659389016,18.77175286888563,-0.49806381873235606,-17.836556923231818,-33.61983460343021,-52.33078077145635,-74.77009251445533,-98.53464339210136,-123.30799471643726,-147.79662043426487,-163.03251283193623,-154.83178995070068,-124.8824874179509,-93.30179564490099,-70.6133771357568,-49.55662294208967,-20.594051319563413,16.420716695282614,51.83788423692356,77.06906751143728,92.9062823973073,104.39515503360532,113.17265371178208,118.26328057234416,120.0800207595381,119.63444053554255,115.78753507194331,105.87673187128885,93.51793814609482,83.62236350553792,72.58831041386925,55.47732163344313,33.835398726491796,12.525804352766741,-6.082611710198106,-23.054065845086,-41.93814822111606,-63.89734502625134,-85.85442382821503,-105.10174986628503,-125.26531283868542,-151.9780248381942,-174.0274293407471,-167.66080528779986,-134.50166787379385,-102.83119873342888,-83.62385187497668,-61.23950121586841,-26.866854894851183,10.68874573071189,42.641826510096244,66.04119839012937,81.3253414537823,92.97473633512776,101.83535082624589,104.10648638230283,99.93865049956082,93.55346605724976,88.73703671866703,84.87496705444794,78.54850445330855,68.45404232469816,56.68884393338261,44.988085225461155,30.190317384711395,9.006281206881393,-15.033471864060452,-37.37378393634057,-58.090175670569785,-80.32446093606714,-106.58287218012474,-131.93152797854546,-141.48253500766853,-124.29701554102782,-91.41413748790306,-64.27555963059339,-47.5398139370586,-28.94463310094414,1.1156600179188338,37.75132880038539,65.99167665866915,76.09530797345784,76.21267530313001,81.69284944611843,93.00847545591063,98.4793152879614,94.00889495465269,85.83953705494199,79.41329484596655,72.48467227593399,60.0645194231281,44.7618030313941,31.646780414812586,17.406486203626404,-2.3212211544539785,-23.86812421352259,-43.922781040027516,-65.28616928979478,-88.75798413257075,-111.82809030636773,-136.6573116344261,-164.87829962726633,-182.27557603108255,-169.5613234574034,-133.4497429783611,-99.07759374924295,-75.46440768066284,-51.578309615590875,-18.350406236076555,19.499045297159157,54.03011048846866,81.18298984257598,99.10044946601582,109.12976493007517,114.6449945563764,118.76070135448184,121.91200692199304,121.92579279871988,119.33846361557715,114.52013533171048,106.19809268393894,96.07723416614834,85.18564048556419,69.98962753151497,51.03800494695819,32.59388773201545,14.64647857840873,-5.626942288339629,-28.82454001156935,-54.33503783384268,-79.49004014025039,-100.8770005661779,-121.78101513749709,-149.3549042411958,-177.61228507586296,-184.98095903955362,-159.8308345778494,-120.53717327998363,-89.98841394343556,-66.83789084632676,-39.434472957003855,-6.787351721847979,25.48702029838082,53.91192288538286,75.4215353339203,87.86049707229388,93.8764240728578,98.84954832506402,103.53220923986515,102.90803458084356,95.54929043045823,88.11056263558525,85.35718591542714,80.04440165499935,64.26389208683278,43.731994614454365,27.76029206116741,14.352328069605699,-4.193409654111884,-28.854702550573876,-53.01618970980226,-71.4163445787449,-89.33406771819142,-115.08783807943433,-141.7229836769024,-149.67879796142782,-130.12154553839946,-98.04033390240131,-71.63216412874144,-49.01726598751909,-21.379431817286395,10.046935479564787,40.23804228106302,64.9747598660497,80.46673352274006,88.15471380175394,54.0,100.0,69.0
