3.5612340235779163,-704.4337534081573,-903.0045867430365,-761.9902623611008,-641.4314504372253,-605.2095359039876,-566.0752014084294,-501.71903977495026,-441.16194529680166,-393.1683354318485,-348.4639643051375,-305.7872298044473,-269.34140041459256,-239.70721992598618,-214.31588506498497,-189.7548776292542,-165.87064624164918,-145.06433115739196,-121.23814686114117,-82.31609562225198,-29.39151889940286,22.50071846783819,63.419132591051,96.99208581268466,128.94337926562008,154.0091597497394,165.56296346694353,170.10459746738775,177.18035217646315,184.8993177933951,187.33267620675122,184.6722082526744,176.7214107888356,163.37565516985052,149.36615457672525,135.82602943327024,119.46300926798078,100.11820209907239,79.77184506431904,57.40497272914251,32.10559161198385,5.445273182070634,-18.915156137046086,-31.24262319206554,-23.0453327413491,-0.8878524547859444,20.168335773350286,33.87300820882577,43.87722570422823,49.97033563614562,47.667448235028324,40.16957791441814,34.43952257706769,31.095479341344916,26.18047785391276,17.313886919620167,6.332527951533696,-3.740197856298743,-11.27905239881127,-17.7571873350093,-28.083172786670094,-44.944118989538865,-62.947115113075625,-76.60019218171489,-87.3241518885348,-98.36347840802443,-112.41254151333689,-126.1846309369544,-125.97281677585283,-103.7918042145943,-71.25444477559553,-43.533427922301286,-22.328865634123037,-2.5541099288049742,15.614183363218366,26.60837523519488,29.016849224481234,27.799052845383383,29.250128541399608,35.62314672421055,41.681435046022756,41.86469037269021,37.01707935744242,30.71391959146373,25.308620273128074,20.053136356259834,11.930629526693703,2.0294633919802343,-5.22770094200211,-12.70515659706833,-25.722613799534837,-40.975769994482256,-53.05043859902156,-60.78855210586057,-61.46560354745692,-45.9085785731492,-13.494506422049978,19.154399706645542,37.988157774164286,44.60082115991355,46.11966339139833,45.69449740966627,44.98093937228184,47.011576987868374,51.8537578392518,55.93725887384619,56.28114356780048,51.742822295380556,42.58749932373627,30.106093067102023,16.669708632282486,4.20293590476134,-6.234057108005939,-15.40357122400481,-27.12051144344855,-43.420737494829275,-61.391461119840706,-77.8725293966453,-88.41482314117037,-83.75153401404053,-59.77263037860265,-27.080392235792086,-0.7725169323802279,15.939443610075964,28.80944004405205,38.08396537514631,39.92966434264211,36.00139316249294,33.711388102420415,36.48005100024597,41.127068742889556,43.250267944761845,39.827315602152154,31.505831082667623,22.237228790978047,13.63264137141942,4.336100322190403,-5.244039835811167,-14.481806919848417,-23.29538365501673,-32.096022804165514,-44.817853532024245,-63.11060258596057,-81.71672083216147,-91.05759074819011,-81.18103672516212,-52.61659243347681,-19.944334089200634,3.113171483302535,15.911770485631592,25.396565479551914,35.06508724282615,42.19870853222922,45.48723006489929,48.14260763545997,51.34112987036014,51.348123663744744,47.176612886924985,41.88712011782198,37.05102026367799,31.011233707473348,21.994369169582654,11.241364871941592,0.6093779186795862,-9.876935525713277,-20.914982155008868,-32.24589779720777,-44.21220866534987,-59.852510944012806,-78.6908501595973,-89.83715976629028,-80.41035125284594,-53.48727282637274,-24.862478441981544,-1.64581494446915,19.006199259045616,35.37353887372433,42.35787872455485,41.76213856939199,40.22796488212856,42.24322001735826,47.05478034906847,49.407879698652174,46.835487109756976,42.698046759161436,38.93300315127498,32.42387392238545,21.74444879242443,10.014313912035842,-0.8945776159896879,-11.193356440287964,-21.678395734475338,-32.465636618506146,-43.78835924321902,-57.83210482860792,-72.84111482074117,-80.18052244722001,-70.93620926138867,-44.86946172798468,-12.273808533639066,12.935327573467731,25.878145839825653,32.656224397710055,36.32784035224349,36.392991429913955,36.86333293404926,38.20473621366916,35.882635950379985,31.96943468141876,32.37125040693705,33.76256354168842,27.69987009364181,16.059163149402735,5.743250883812065,-3.670517292787216,-14.281560149722953,-25.06040874780459,-34.06741350283371,-44.154634898786995,-58.647611537851596,-72.61263838408334,-76.8796500101389,-64.70359564203335,-38.4718933685654,-9.435693384522288,11.964117337271853,24.169851976749882,31.78625111315161,36.61305905756797,36.066835788766355,32.52280999776323,34.54389198456112,42.809915966876886,49.50812047662965,50.55794350262992,45.59379508135185,36.944062868588325,29.454582563624253,22.511364659149383,10.782663434294397,-5.142662336049683,-19.450947015019473,-29.60422005239757,-38.981588182906314,-52.91270025801973,-70.81384164426544,-85.51012034925449,-86.50611941931523,-67.61824388165356,-35.62302872779647,74.0,122.0,86.0
-67.3822573552433,-79.84776319130192,-90.34177609159559,-102.0586581271052,-116.87509903999121,-128.24418212030068,-121.64678921470814,-94.61678030362968,-62.40082621707005,-36.962392801024755,-16.622804118648713,3.0742230679847227,19.748387733972088,28.040008544595153,28.749625209251313,27.708112760616846,30.695404411270783,37.74356988721401,42.4216472735673,40.82060553786684,35.203771261742354,29.01707192679374,23.908279602816684,18.086119580022892,9.030342236705613,-0.40950418881280204,-7.028043846098177,-15.876091952066172,-30.201240727626885,-44.91505479387386,-55.730283863413824,-62.03547760221156,-59.02912753198255,-37.76907219648062,-3.196839992958781,26.214292565889085,40.80972142841232,45.33387892426333,46.15021566422131,45.39123713399553,45.179866052763984,48.25368790922593,53.27392968285468,56.510581923603915,55.47239745458379,49.54411520747502,39.22527735798334,26.219844847674416,12.905001445556891,0.9573484313586716,-8.8900843945465,-18.338052390834996,-31.420085882137545,-48.61689428954889,-66.41490970692884,-81.87485687082689,-89.04679492840833,-78.61547179823334,-50.46215220811194,-18.382325803868028,4.816990110598566,19.8637535399279,32.04779126646645,39.468117962032665,39.100367449974755,34.863557096353816,34.05354089996912,37.835127181660035,42.17521012971538,42.89269694028741,37.77663296747893,28.759573655123084,19.736884071714737,11.045612786198015,1.5434842608512618,-7.94256381303124,-17.095798978930638,-25.728431058104864,-35.16718214706603,-49.64838892548643,-68.81512010397508,-85.86577736893955,-90.46204173798309,-74.39464697778119,-42.805016807312924,-12.005622914723638,7.595725988784394,18.69836063439171,28.21610847709248,37.547419560683295,43.45410114938068,46.15440315607435,49.12871575639839,51.83311760580115,50.4647471763245,45.62774656119637,40.46635875499579,35.54985885462499,28.71170052098231,18.96262952306995,8.114670801188446,-2.393153379644235,-13.001077978924243,-24.18899750467342,-35.5396856164178,-48.21852092258187,-65.24166460833759,-83.40121801574381,-89.5002604890497,-73.78266433525344,-44.77404542450616,-17.67163381964974,4.492486951276062,24.445546379659934,38.44947507234505,42.68575189580006,41.13926286695227,40.36399935286098,43.53382996707842,48.224775789568135,49.09415990889142,45.609692188896254,41.64662611276719,37.502225682458175,29.67669157391731,18.311821197142113,6.774532619251233,-3.9087083283846127,-14.16420190718109,-24.798836855298227,-35.59297610289158,-47.50772738302658,-62.341900269161016,-76.23204558568024,-79.43643000234329,-64.85438138017385,-35.47199098312403,-3.7442563433630496,17.777765780469576,28.163026308171453,34.10679832723392,36.61124472992814,36.295825262338305,37.368100084685295,38.009195516415495,34.605882678596814,31.53841467512562,33.11016996442907,32.95350844756684,24.538619202906727,12.809587938415735,3.082991339143952,-6.60981494607038,-17.48461117865512,-27.85119269147253,-36.611810438840386,-47.94735630053691,-63.12600298236002,-75.24094544799803,-75.16795897807832,-58.17320038506426,-29.79746817380769,-2.2038225979142614,16.26851743446508,26.645360494947344,33.551351173599656,37.090663835114654,34.98988283103876,32.242340236414094,36.597050963506916,45.211473269236734,50.4364888489134,49.71508540513021,43.26014539218759,34.51264391420495,27.6352307345484,19.766429266925382,6.368694400874651,-9.664741586248947,-22.76842900283213,-32.12349798580547,-42.4069707060226,-57.89932510321231,-75.82168344806918,-87.6654708451004,-83.05798311194002,-59.10553607538891,-26.062093697029518,1.9643007648949424,20.090969592006374,31.205191855723193,37.857810800516226,40.6424060859755,39.781604129306885,38.26884911857509,39.437438717029686,43.514897911424775,46.6899813384294,45.195090767702176,38.960457188820854,29.853569312734063,20.2050526875395,10.772132092109949,-0.5840607070626078,-14.133836674800685,-27.23181810419575,-38.89572790507873,-50.198613657490085,-62.7888278236705,-76.90221629541158,-83.59621313983752,-70.61629308798753,-41.93387403970407,-14.844178011274321,3.108323077444555,18.490491933883753,32.596154236092964,39.2370673038398,38.432494268110695,36.27464994417048,37.64789486438369,41.42943906788789,42.81472933160008,39.494275091598176,35.036297694928514,31.792348743113596,26.262776286638115,16.195979897348295,5.556657652741563,-2.64488399103825,-11.55205478936874,-24.141164004191396,-39.01041771396638,-54.472886860422015,-69.78853909281278,-80.07738293091188,-76.62787242238477,-54.470312106620035,-21.84238914981278,5.803760770905441,22.330490222062405,32.83360325656221,40.7167046639487,43.06864630055022,39.71842141246472,38.129366778372216,41.64899774205365,44.25039810482751,42.267020519206845,38.296364397727444,74.0,122.0,86.0
34.89305981069794,40.147346509370536,37.91747431079191,34.065389846162844,34.81509872164669,39.233015564552225,42.91030642629201,42.01769739674315,35.38191736098544,26.045491349064037,17.275837113448272,8.368242489918018,-1.2379413334120135,-10.614206654545981,-19.66151876239205,-28.193505042859883,-38.70013745260672,-54.91490959434687,-74.36434669202141,-88.97291481671806,-88.04090982553504,-66.22350994507549,-33.109366822577215,-5.1027268112332616,11.342906834764788,21.39782580132459,31.059784896584087,39.710211100243775,44.413716074518554,46.87881202163807,50.124225765399174,51.94167342337587,49.27414799228191,44.07387503159733,39.08739292600115,33.879176829940015,26.144200390269944,15.844508007123418,5.0332405460948095,-5.406796342405618,-16.181801721992223,-27.466954052959224,-38.92082268499205,-52.630604713511445,-70.80864609454974,-87.087450884523,-87.19382097301546,-65.99421980856,-36.329336949962396,-10.934819404665893,10.511850052481691,29.388856416865394,40.642214942780974,42.51846200870352,40.60477557649077,40.86789612138547,44.9791023681458,49.034461393258496,48.380181314100696,44.37587731742328,40.61417434555249,35.730686940386455,26.60579971211758,14.892433504821296,3.6102278495429445,-6.880967328657859,-17.179559151192322,-27.921959497660875,-38.79987087973638,-51.514838095708846,-66.81975506855888,-78.71193501364519,-77.13584765509293,-57.468780480466904,-25.873397482543396,3.8428682364783144,21.62585285851142,30.14298050904714,35.26832731245675,36.61488756994422,36.3739371123467,37.85658678602166,37.40113440997336,33.353120145750836,31.59082632061476,33.70690701507286,31.351899335127367,21.10448848408444,9.796471673324707,0.4056430379285412,-9.664864854596335,-20.65106355142962,-30.451976826449584,-39.39736486761804,-52.12581135253685,-67.35872140857259,-76.82778863906373,-71.9659322310628,-50.64517278993673,-21.21630442385091,4.193701742558646,19.872430631617192,28.86979769143074,35.06227459466585,37.03394715461708,33.82769117102667,32.64870843569957,39.04017712301186,47.278102125915126,50.86078192750265,48.369756878292634,40.71888688438328,32.302369323402885,25.74684060011377,16.49389139575242,1.7188649857032212,-13.90623632289434,-25.73223718336485,-34.71858341378018,-46.32540300860045,-63.122347001055296,-80.34227599641198,-88.3967350894039,-77.89530650312935,-49.80371183810032,-16.997008955060235,8.146855058337687,23.871020231518145,33.52170017237161,39.08038323281711,40.68932269730307,39.23390241973734,38.239530904605026,40.42263306268256,44.74780579690694,46.807520576974284,43.81256607459967,36.52649699781789,27.02397510588502,17.52224213397526,7.782680638991906,-4.371196651676144,-18.072591192239305,-30.71389873451632,-42.14271651727479,-53.608823120161524,-66.88014963908395,-80.25050210534269,-82.1199186123218,-63.237575901473505,-33.25224414831334,-8.87634631058055,7.50174218635633,22.966349345322325,35.462382939851715,39.55416328356109,37.644058135909205,36.2400787721758,38.67862049081923,42.29059815793108,42.26468499508978,38.11029674808794,34.04201824727314,30.644538315461496,23.736455458873646,12.940027155710702,2.979059529099064,-4.93444805608836,-14.803120848786802,-28.326181513233553,-43.421084028152464,-59.02433810595955,-73.62334313683638,-80.88710260077688,-72.06615105914375,-45.425355156072946,-12.783465757750353,11.610949568159086,25.69567583889452,35.43073320641348,42.13177527905543,42.449430721628175,38.7187890232917,38.780952659308134,42.808700948032104,44.10450797598228,41.15807964674186,37.18061443371895,32.584763027538656,24.236489066103445,12.389402631185785,0.4569476087059955,-10.375365022792343,-21.204502332632664,-33.801163057031665,-48.29207601490139,-63.0670320294401,-75.2354979903166,-76.35916859476038,-58.36431944867384,-27.145731225287268,1.5099399313356605,17.17458308556736,22.737605069696166,26.203421979349486,30.001430896343482,31.32980679970846,29.178653204382755,27.723566328949232,30.549198280924436,34.25326408090155,32.91401681149485,25.471888115966927,15.25922814667079,6.297908793926568,-0.40297309981859425,-8.004423086226888,-20.686412582447552,-36.99539177686325,-52.42437089353324,-65.29196510721191,-70.51647174015682,-59.68600189242129,-33.08236194304978,-3.9446864378331323,15.359690303616471,25.04397724956964,30.505285558670785,33.57386793636499,34.68168587648075,35.58280840703467,37.713253423770794,40.42296800970444,40.38556061286762,35.76999002887145,28.639791327095335,21.47385101698069,13.866405640802084,2.82848759562554,-11.816154756346952,-25.47896994366477,-36.08648634842331,-48.58038271532172,-66.10381373467617,-79.62397557777672,-73.97726527528395,-46.8154098390219,-14.26718567196655,8.442367625911766,21.420794604962975,74.0,122.0,86.0
23.309659451805274,11.535295724414986,0.512970545231034,-9.83223618341465,-20.248272579668278,-31.03292417898127,-42.16361558564697,-55.790065958635765,-71.04698579069009,-80.02657009864647,-73.2498783000096,-49.029808164373506,-16.455087132089517,10.330158904667162,24.677285641324335,31.90910538666296,36.07936652542811,36.4687566829673,36.66586243269977,38.16472287714057,36.4250437675368,32.322318177925794,32.0597929874177,33.885786095108834,28.999464874911478,17.626233061197606,6.9897121270388585,-2.3573581428561026,-12.810840009353544,-23.707164457075557,-32.93121066691002,-42.553681676232294,-56.563304546934795,-71.11021702405323,-77.17842871038235,-67.30884216863707,-42.41441018194776,-13.018345216539572,9.710906254665593,22.915728521399778,30.90599866554125,36.22366166100289,36.469642126010925,32.84421514483145,33.78761237679703,41.63116574420547,48.91367833661267,50.77271165794026,46.562744227989576,38.1203432762151,30.314767165174676,23.61787928662685,12.693595975620838,-2.9941205784416454,-17.790859572462224,-28.423231927352283,-37.55340502603375,-50.732617997338195,-68.40959686325726,-84.10689425492794,-87.50193151507635,-71.17412565631837,-40.11211718762696,-8.659800429068145,13.512931561180825,27.15914669688023,35.50959762219262,39.97006875057969,40.45560665443073,38.73234798066506,38.5014518488204,41.614381077936244,45.77705809747731,46.4759481340404,42.06626840375744,33.9031596098304,24.213142976819164,14.839258039927213,4.563011507244367,-8.30198974975448,-21.89855555126335,-34.08910072200484,-45.387648459822366,-57.18218597222947,-71.06674213716006,-82.63313530863527,-78.75398128959476,-54.87806115441004,-25.158887798139332,-3.6567223521022547,11.91324373869906,27.218187805006007,37.55694634996797,39.344958456258,36.921357328835725,36.57205255148271,39.8230353141621,42.815783361154175,41.32807864447035,36.765149084546245,33.14638895183481,29.170504866859826,20.84109674425369,9.783742037346471,0.6188184549037068,-7.411929503670547,-18.390325977230717,-32.62706757574649,-47.8741369906147,-63.5300964062286,-76.86783457325035,-80.30969670836316,-65.9094858961091,-35.858965455185164,-4.5131585860425885,16.497847770047418,28.742250836049795,37.81630399746802,42.96638495761079,41.43859485852337,38.10329461731905,39.822294635909955,43.68747850153112,43.57095429630774,39.98537338842583,36.04847558133634,30.65124588376553,21.033776269772503,8.824090476960059,-2.7548509985782923,-13.430593670925484,-24.601788121104896,-37.85454009633453,-52.608538016597706,-67.08841437166589,-77.2035145751039,-73.18295308433939,-50.06210092166319,-17.918547117391824,7.486177089473203,19.432637882423663,23.704441109928357,27.338881388830192,30.78438446614284,30.95999315394097,28.437446465688105,28.105600315363233,31.83281473781699,34.54662234370534,31.29598067434527,22.607247954779833,12.414536757581025,4.198019380617521,-2.286886330932672,-11.060601132917613,-25.261537034636856,-41.65026833201721,-56.49781176760903,-67.97870916277743,-69.2989413082438,-53.21826336668082,-24.19070026109376,2.8701105321109743,18.889045187364417,26.889569240838146,31.64160388412406,34.03450642087595,34.87792617239912,36.04391780255163,38.55047207131682,40.8530945916912,39.48636998225236,33.830819149298556,26.516788513261538,19.436506459582624,11.14670294814619,-1.181452006518271,-16.08620522973304,-28.748631865000952,-39.20267826634814,-53.26509852214991,-71.124453420526,-80.4649737334489,-67.88083880593332,-37.053966406317244,-6.415399580571809,12.883817885267794,24.370294297266497,33.397948239216696,38.287672066000894,37.452737422326756,36.57759584088058,39.964423385560806,43.723498149058514,43.60192499626378,40.122422524363174,34.28386800860839,24.432352639910974,10.990260732289851,-1.9442344859725043,-12.342107905882457,-21.82794660924279,-33.25377061323388,-47.8684483469768,-64.73152310942359,-78.37011458120057,-79.2441405670678,-63.26922280608173,-36.62590894172806,-9.926114546667252,11.01266923070605,28.05815743146729,41.7388514491474,47.487992222149366,46.50491269819119,46.158131264443554,47.761080773811,46.252278608717454,41.57887327672716,38.62547581248979,36.27779679354755,28.225681975194554,14.863243193975837,0.9452915542316033,-12.624531295314958,-25.884910256127164,-37.31745815310221,-48.99576483636885,-65.63881771767997,-84.39686966215933,-90.56396663241124,-72.89654896812206,-40.89045712146931,-14.155716262020402,1.433272837288027,15.188169482336772,30.680074782355273,40.51268437572975,42.3252577517159,41.130279447680465,41.19724583484394,45.07181554335636,50.123811391104056,49.1900686409249,39.51384512908955,26.942823572470648,17.785352231152363,11.179718208141345,3.4158822293060904,-6.64953723913702,74.0,122.0,86.0
-30.426042483319716,-1.1814417802357027,18.161074280257417,30.017873695832975,37.18758757724353,40.510686755645466,40.02202104518919,38.36835984996851,39.072820156449716,42.91323296423442,46.4908655375379,45.697986255574854,40.00396069368116,31.149428946335092,21.455937237225804,12.086260695643709,1.0946932522253803,-12.295088418894409,-25.58233306371949,-37.39017276929825,-48.664717671583595,-60.967521101607886,-75.14163508533717,-83.66627190519988,-73.563039055625,-46.03559002633031,-17.890176644686374,1.0441850489871363,16.40477226307894,31.03566249338173,38.87490600853833,38.77125946078379,36.40949090400441,37.242704542333115,40.95201675424021,42.919628423422154,40.11233459432466,35.545182994536304,32.245569768232784,27.282885958081465,17.692957111760037,6.8320287253281045,-1.6194681080807918,-10.169900161748158,-22.27116043036098,-36.987916112414766,-52.37981794061555,-67.87784444328858,-79.29756148182994,-78.17016634720548,-58.34900732014994,-26.20624431675754,2.786186730854115,20.628336694341115,31.58028135378867,39.89481565821138,43.176286977836945,40.25466787395086,37.99658321018867,41.066349111856454,44.17298756272583,42.73061033800978,38.8206910479406,34.80931684885949,28.326571159831218,17.601669233871615,5.341185214372366,-5.88688025931921,-16.519662755333854,-28.19377681259712,-42.03831506523935,-56.9090761522057,-70.8016177667335,-77.96115639236876,-68.29190675493807,-40.96866634209687,-9.320207427906713,12.240614570338058,21.049067096568628,24.669821759839355,28.486698876698338,31.26291855770146,30.328996488652574,27.900733642945895,28.885536934871638,33.02671884849667,34.299357373810395,29.2023109759254,19.61906995578728,9.762564882714372,2.269864385991505,-4.361997562251515,-14.628439214478558,-30.016859701094045,-46.15009344458084,-60.33778650593377,-69.82865886070257,-66.53987086923362,-45.58570167103999,-15.511872582200912,8.665867363986177,21.745776331913184,28.50055683884738,32.57503396675008,34.35675185545543,35.107631283329624,36.63373032205351,39.38962944283996,40.953085561298515,38.203706433013465,31.759666443347896,24.438924417448327,17.312249730716115,8.055005823749706,-5.436767413144306,-20.130504706169873,-31.78188652057316,-42.66148075212586,-58.365499548257176,-75.44962801977212,-79.34542415074591,-60.14300462624927,-27.37418634314322,0.37477978716051374,16.667152919963854,27.177692550743078,35.42229976523633,38.502013207065716,36.86711164691145,37.16291467997737,41.286885661247275,44.13821727408599,42.85235798883217,38.71393510363721,31.931007848804434,20.75993164896095,7.031779860067835,-5.192258915810778,-15.045186475523408,-24.82990719961558,-37.147499373562454,-52.62948513745569,-69.40827246776388,-80.30904517334059,-76.2596464817392,-56.20202758066368,-28.496461982032596,-3.2633413129337407,16.183028946440334,32.53060850507992,44.36353174901568,47.58611669849623,46.078741469899946,46.622124344967936,47.81726372446647,45.01482574565206,40.407084024268386,38.174673262689815,34.70955205473674,24.67928370620644,10.769309248168582,-2.967270317059675,-16.555310892995653,-29.397925041130765,-40.43422175189438,-53.18374021819319,-71.3125060156711,-88.25432615596208,-87.91342507816015,-64.22171740344328,-31.954186094276395,-8.786302665990045,5.156543513416167,19.71936366389449,34.42620229829166,41.68679390819324,42.0599996673494,40.86858778215278,41.90069648043009,46.70557595763732,50.756441448128705,47.167116764274674,35.80609224740125,23.836108524695856,15.810407631939134,9.145343774305319,0.7751083241829656,-10.14827052686907,-24.780767352577513,-41.49223634266257,-57.66655567972199,-73.00507564090086,-80.27065069245828,-66.85861498020276,-37.503268373363504,-12.14712121903918,3.3543964214277464,18.882996465184696,35.204765394263056,42.80900653366941,42.28903396950917,42.68913922464608,44.91307114920083,44.455648306196714,42.944775613252155,42.00618596713675,36.413654317410455,25.59539198232737,16.137417177101135,8.77600321408416,-2.008386885218008,-17.460696078805462,-32.80773362084266,-43.53058233488987,-53.57352606952523,-69.54864892970383,-85.01274331604753,-83.33203294025915,-59.00623494197385,-24.880391575603106,1.6845095964269783,15.194132016330233,22.642420673225637,31.046428890178444,38.88780148831981,41.24505133642078,39.208616390595765,38.059461217195214,39.661221319461966,41.33357317231846,40.105157123794854,32.84540160731697,20.76585647731695,10.00320770168608,1.770193890176053,-7.434852439025891,-19.239947359145933,-32.7677289743618,-47.52277296858584,-63.751073913961505,-78.83757584710229,-84.13173171860342,-70.44242897995191,-41.27429994682682,-11.05920293398514,11.18269147379766,26.06431275263987,37.15315798926335,44.67378937769421,46.616472639766116,74.0,122.0,86.0
37.6929166312037,33.355284581959104,25.6104047556195,14.043688300794539,1.9716616878092352,-8.965950903815518,-19.695691831548494,-31.98783444285684,-46.307348750775525,-61.14936936234292,-74.00314189610374,-77.24271493512944,-61.81662241102652,-31.510066646261457,-1.651967997052773,15.851297276316103,22.2589202136099,25.700745699538018,29.559867359125903,31.390714461255392,29.549721407754213,27.68883136583368,29.977931492218513,33.95576035307897,33.48124165242715,26.719668443144027,16.61849972890544,7.337772994062572,0.43729838835392465,-6.758866646559089,-18.679729538800885,-34.80740121920831,-50.48358492717366,-63.837331761425936,-70.59387466927998,-62.20085458915764,-37.13868443814705,-7.408674634594902,13.460521538025912,24.093144213078457,29.915990289287507,33.30358660701232,34.58977449059032,35.41006824579663,37.34854253330199,40.1374614024501,40.66083414545147,36.598163091610424,29.62705233098133,22.404838164500347,15.011954660870451,4.565931222165009,-9.80497203941133,-23.867701319514648,-34.71746679443014,-46.59182769991714,-63.67149207878233,-78.6451105358571,-76.1454483272598,-51.20137694847732,-18.218121967032424,6.117916606676691,19.992678863267,29.853288515185806,36.98644310806661,38.26505796015019,36.48462796881033,38.12717290268647,42.477066622035906,44.17456225815034,41.87562225284252,37.107101299249315,29.17863773862763,16.85590911688568,3.226603304550433,-8.220855916473296,-17.740261664600148,-28.06047026685973,-41.314666898559004,-57.53999140579243,-73.61558705767669,-80.93742281575886,-71.87120964495038,-48.48412157625909,-20.62555612237316,2.8658940829794033,21.13453569999646,36.65700334466386,46.19652803308428,47.264494826521116,45.896179463976466,47.166597986091155,47.47801586413249,43.607457220227154,39.50256256934884,37.63864677973652,32.517913362913596,20.804991289915304,6.729625959887452,-6.879447619085146,-20.434282485331053,-32.718508136016865,-43.68715926176443,-57.89457781462013,-76.97174489328977,-90.59619927302208,-83.14828009380065,-54.80963530535809,-23.920825487670037,-4.2655258131902745,9.025518420609137,24.324273286741914,37.47013463879713,42.25699576797505,41.683282007735315,40.79678228929922,42.96976297805401,48.296295292927674,50.70049706313829,44.435228041682215,32.07102365358847,21.11869769181566,13.944720606386074,6.946791321383245,-2.065557937194511,-13.982154527890145,-29.559462248470684,-46.24150748541569,-62.267441006476616,-76.55870589649817,-78.81184545500105,-59.17529188461992,-29.036498758755155,-7.002782765563538,7.457656392658208,23.9251442172812,38.58528972775652,43.08735307626972,42.03604080804464,43.37361531451533,45.133260037094004,43.92177856566306,42.76570529228073,41.10751379142903,33.56362429086753,22.48832460768248,14.018564936070288,6.2077391720356845,-6.119978947652547,-22.198394866970784,-36.39722647210461,-46.115980793859286,-57.52170433319447,-74.78016900743272,-86.90997476368904,-78.34452250551301,-49.29878007025883,-15.876630285212853,6.77080355350412,17.538639459842447,24.86805569444399,33.626877582982026,40.23300057316198,40.88715332909526,38.583454490008386,38.31561398126326,40.278894465554224,41.41115692347576,38.729196849763056,29.58676982564509,17.31609278905447,7.495653940984984,-0.6478252479557975,-10.594444782170191,-23.021563848625835,-36.888728084670454,-52.079762335413236,-68.49204036418337,-81.88006414729806,-82.30383944405607,-63.032284696729896,-32.03764960319686,-3.708732738896919,16.076723929423935,29.543307679795806,39.81155652843489,45.79685573185329,46.49610731762286,47.39145142652408,52.40593872519857,56.6957169971194,56.3509935987444,51.33515159184003,41.34658656136436,28.258017877483372,16.41862880198049,8.426455301017995,2.420324005284098,-6.477166908691684,-19.71775984924358,-35.93270648914075,-55.04500953269992,-75.09274904353933,-91.52602916888274,-96.96384040669408,-82.07926432780307,-49.68037119554373,-17.640334424528483,3.399962291295302,19.46444345022095,36.016697035244476,46.83357012706392,46.86130044752392,42.72545421500262,43.623766145105456,47.323010646696915,47.37760155205025,44.40901252931932,40.86699485467709,35.81764788923754,28.295433386533738,18.80763768633262,7.464131836545618,-7.160974852216969,-23.587350926261234,-36.10022640979959,-45.83233845155323,-59.24786125176744,-78.13869059385318,-96.32448576358091,-99.95379210379782,-79.83327457954124,-44.428103882333524,-10.010526795067653,15.218676867061177,32.979844744324616,46.82340219775604,54.76877329890644,54.67509164998372,50.74039953569714,48.61007822524474,50.18576785256006,51.981597064880994,49.450887660740975,43.54279764420424,35.49681148104349,25.12740429912487,14.895839492189697,5.4724553318900595,-5.1100676197224475,74.0,122.0,86.0
23.03147681196343,32.34126797483626,38.00787398914448,37.738211069962674,36.45178849345884,39.35359705060404,43.40703326108457,43.85588757076828,40.71413482666384,35.246238577607016,26.017903613050418,12.842984086360278,-0.3668707102955341,-11.071606550323606,-20.507150130686163,-31.551863887209034,-45.744075071379214,-62.48485818746506,-77.08905053236322,-80.12241534416496,-66.23253258682644,-40.399453239144016,-13.18325699121329,8.530128085035706,25.914890727722067,40.280922592082106,47.24508667197315,46.747964629607885,46.01144472541845,47.62433613550417,46.72545633559868,42.19181011638451,38.85773233307357,36.81058698781325,29.70832069507945,16.754067030340376,2.758132600483013,-10.808612073935402,-24.20148401265077,-35.88576383081946,-47.22816845244961,-63.101874324167824,-82.23057548922756,-91.05539887135595,-76.49626795411474,-45.22269442821491,-16.97880520609397,-0.2983037919300031,13.174706614411699,28.76187371536809,39.73176417867233,42.37782423233715,41.29206316193573,40.99537607678425,44.35508427269145,49.6420364692861,49.85567650156565,41.155034015025464,28.496228845520424,18.76722540644968,12.07169376590643,4.571363873597769,-5.140487427019262,-18.156055789879105,-34.4208688791269,-50.9140065017728,-66.80664568721764,-79.12448605251265,-75.34432867444276,-50.554541802902115,-21.41456668587496,-2.5608677270276825,11.85334966356026,28.854686861528016,40.99987606989786,42.87792763121741,42.07398889053454,44.10130849992899,45.0384366512623,43.428552260897575,42.5953627615611,39.64374332099391,30.386683795272454,19.671825771710612,11.978925778012327,3.2114106634128503,-10.57927029824971,-26.761366874776165,-39.53793940267135,-48.84952084031075,-62.08288683371994,-79.6242512326148,-86.95403253542682,-71.53156213918662,-39.23425336478048,-7.881374247101021,10.796427555348432,19.627806316928652,27.28042559147172,36.02872002208048,41.023560191740216,40.26790529185975,38.1699104127755,38.78011068050121,40.81864875041365,41.18162643256381,36.76144194760342,26.046539301008483,14.127534249528187,5.14618350640311,-3.2422096396568754,-13.97325650190185,-26.913681017916954,-41.11662435263419,-56.76657010328024,-73.0274022974805,-83.82737288788455,-78.7122364784264,-54.59698851618658,-23.097186215048804,2.874290474503445,20.436731171197042,32.79374561292061,42.11595272111904,46.418593195774015,46.40119719721302,48.50598927518956,54.00942537821471,57.09461466704341,55.38594133707528,48.955499405431986,37.7029010014685,24.5270213449205,13.701890582262743,6.690384345618512,0.32741185939566575,-9.930315696135517,-24.113107257978637,-41.17616626559006,-60.91187097807397,-80.45633657154244,-94.67192636921847,-95.01087027055613,-73.86718758638715,-39.57333368723517,-10.45985163144105,8.098524274871615,24.297981058253225,40.13427297181096,47.87796122197522,45.57300230315691,42.312327039961254,44.767489205797716,47.82803132413031,46.66714105293037,43.434849869390696,39.64099234973204,33.89168423590682,25.72320118823802,15.763678250014559,3.632466976515424,-11.967181777837972,-27.76979320458934,-38.8985022581783,-49.11954700259793,-64.24621887430499,-83.97620271556636,-99.53291269578054,-96.55464203497692,-70.42181136335287,-33.79670079338645,-1.7108321910323683,20.90201595750919,37.35202013977267,49.91826196355023,55.49335560651326,53.64290353274852,49.766079074229914,48.73218251277144,50.950606655767565,51.754211571918894,47.96936242599548,41.47241001885383,32.67377932032665,22.039281149393585,12.171514023749868,2.5965053772651165,-8.445228527064817,-19.7391979652677,-29.449764318541362,-40.46422734168111,-57.58231645576546,-77.75933017332908,-86.78781541863553,-71.71246504862225,-39.17860125381955,-8.01681166166804,13.22098908398687,26.127046007998526,32.173096601205614,33.0810671261038,32.41729801373614,32.937297925466105,34.43853977314409,36.430865089758846,38.353684459265345,37.716355323860896,32.88441393563218,24.427540354998293,14.060990027369373,2.1420554082637353,-10.298279881732205,-21.147784291317294,-30.979127030245486,-42.98067631166215,-58.86865687148843,-74.99975979249454,-82.99508053160761,-75.31554310271612,-51.724401455940956,-21.12779624264309,4.543231609824577,20.80213471886508,31.569891672830433,39.31160830025485,43.23793396269005,44.30116202847842,45.68921971980792,48.48630474294058,50.56001288970016,48.54862491986545,42.229307475215236,34.58603333783855,26.589266585928243,17.59097266365032,7.724075183325554,-2.8341122666381358,-13.60933709268971,-24.823935158008986,-38.4755259246575,-55.29486391014801,-73.26503691809391,-85.26431828676006,-79.86397847584537,-54.0545724753759,-21.144339941356197,3.393742156973454,16.426239542187698,25.560883553532342,35.94339451818152,74.0,122.0,86.0
-8.495169564253723,-22.63376530770189,-39.27468323049316,-55.540191183987254,-71.14139560055638,-80.2990441896748,-69.93528896597148,-41.590642773597175,-14.830055897247561,1.5096255022510299,16.59900812648289,33.356015839984956,42.44142761598837,42.470011862138136,42.43195534451758,44.71019904426177,44.6800372411536,43.063319528621996,42.26507221284294,37.56661070561745,27.094477957516233,17.18430675689192,9.84151594931439,-0.254490681269502,-15.265130362840912,-30.996639077235567,-42.32231968977169,-51.960718022669106,-67.12901191752188,-83.60133722976823,-84.95525080564077,-63.22431426241106,-29.297112697663827,-1.0548423217851424,13.95975029864521,21.67151142658626,29.841811422176434,38.09001559303132,41.28339204538279,39.53939414259524,38.0288550551378,39.37090893615505,41.21540182801892,40.554823580446836,34.20419036688532,22.417922016632637,11.23862885190636,2.8450459946193174,-6.057283315248886,-17.541100529892084,-30.899742131924175,-45.46953058136209,-61.54125886360417,-77.1474537245523,-84.39839643428377,-73.41213455663325,-45.54318450284112,-14.701030498095303,8.71904538456491,24.367985153298772,35.83149256419807,43.98082648074272,46.62310488681366,46.527352675826386,49.96927722497598,55.367722428981594,57.07955522568984,54.037249555291986,46.14439352550207,33.88935329809076,21.012617683218906,11.336578823928251,5.0243384359801055,-2.1353326820255103,-13.712499170638182,-28.73672816782353,-46.66782658175133,-66.77221714113921,-85.39974771500933,-96.6732322898622,-91.1364342292338,-64.4725202772842,-30.008186667401944,-4.271134198276255,12.660676532366322,29.18498189113781,43.52615857414796,47.993172571918976,44.221947743466636,42.48182958266265,45.94896237488119,47.91882494935632,45.797691341480245,42.43863497672784,38.23954719850564,31.756222161050356,23.008506665613524,12.552778826985124,-0.5262288517474796,-16.816177560287784,-31.478266600810453,-41.61402497551683,-52.86036779237532,-69.68350270318426,-89.51833873745308,-101.12536821297202,-91.08297102785313,-60.12739897307186,-23.62197874986758,5.7384127890231245,26.08032881927113,41.452603955020145,52.40350224287977,55.5496393750124,52.451319927848246,49.05677806253021,49.16806785632584,51.58625278918504,51.095205495017474,46.284994280833956,39.21025415897134,29.670568420153828,19.047792504140492,9.480415809805883,-0.4272954881324555,-11.809981696868132,-22.690971992222092,-32.24354721014119,-44.69190422778798,-63.54989557504186,-82.29902955418656,-85.06920808561223,-63.27639809692527,-29.347674701741347,-0.8600027359932824,17.70383669043532,28.54302146870785,32.82671664953884,32.88277143805984,32.402485276816535,33.322121088932256,34.950675930924724,37.084525447678764,38.54150945988392,36.772781711566715,30.729750888269795,21.584761837773396,10.776023092048167,-1.5044792288502549,-13.644564565176346,-23.974007460771123,-34.079159512868095,-47.21097366578185,-63.82130340662816,-78.55270862601118,-82.58382106522961,-69.88774509272018,-43.04836424046385,-12.784611551260902,10.112597614340748,24.271429283719296,34.134194565603266,40.86407645637611,43.70576583840002,44.55170351342962,46.39470666312716,49.31602933973407,50.50594246977334,47.04712367521444,40.04681385547606,32.345331685314214,24.101035295823255,14.814879409127112,4.737061741845795,-5.954972049380651,-16.730544402740545,-28.438190846127448,-43.03961113753024,-60.55499983384348,-77.83248651505285,-85.93425543439135,-74.17026134402836,-44.45609068478286,-12.768704882849018,8.112548277947505,19.07733127284751,28.444465301638736,38.818164792802094,45.01751082408948,43.172476678251,38.59692644896536,39.04752797290565,42.935586802956095,42.08054379428561,33.971859021002494,25.507308421492663,20.502142717087587,14.81063145861047,4.941301077712096,-7.500181330128068,-20.11743317404575,-34.14260044032007,-49.424929993354816,-64.86760727785793,-80.11229264248401,-89.52447232293673,-83.26833013658062,-58.30001775816125,-25.160877477036987,2.0602263222344583,19.628744034531593,32.030254410815424,41.02954593784357,43.73197444995187,40.61794602532916,37.35245559428098,39.31567262179708,44.9816119815207,47.78657852769775,44.29806282495703,36.50660587997761,25.88968878770973,13.977561406567203,3.5243670184620735,-6.546852931899533,-17.670165470699253,-29.49707488913477,-43.71238360935776,-60.44521297065109,-72.94518806868345,-71.507269584403,-53.210912394097264,-25.234380037965987,3.2259139672171964,25.814482413084846,39.5597156856843,43.44019481258277,38.94938658818661,33.50137134700431,32.9367888611718,35.39559106077437,37.70683137260864,39.09005977361483,37.977729752366116,31.200476618698524,19.18803140568657,5.9590973480202,-5.71921975941546,-15.480863346381167,-26.096266891372668,74.0,122.0,86.0
46.56111821281371,47.01992645089379,51.627840354238714,56.370132738624314,56.66893321611783,52.28533292674333,42.93858170949184,30.02440690794686,17.790963028616634,9.285512081578073,3.2859607497903824,-5.01227976846402,-17.76743594997385,-33.60299992957238,-52.366565656963544,-72.51569877473936,-89.76308662933874,-97.25092132689319,-85.34867289031938,-54.402255176887536,-21.307860643228924,1.1149177647170294,17.283829963971346,33.937198567447666,46.01686284484641,47.3477538742967,43.10001748584959,43.172073593954934,46.95970886439905,47.623320626880265,44.85392715572285,41.38532888135375,36.63214419616859,29.428055843694242,20.16324800987882,9.12933043201343,-5.004729930724176,-21.519231681771423,-34.72848009945566,-44.44209897087699,-57.11174989496643,-75.43340584568102,-94.40328078609,-100.80239027864923,-83.75003898806861,-49.401818111458226,-14.122986331244125,12.39196567222692,30.87381692665238,45.22370304779111,54.19125807260069,55.05096043973586,51.25572737351839,48.670697335953676,49.834707491913015,51.94297382267754,50.04583153404059,44.44235824921794,36.72323530946765,26.566685587667205,16.179485533227734,6.7565357688523395,-3.6022254313598308,-15.125056046521312,-25.48919946001176,-35.2791427470804,-49.52833145790166,-69.58468421426325,-85.46055698212618,-81.12804533386158,-53.793654076206046,-20.08637563435566,5.430206781430557,21.55998501691794,30.399167283644775,33.11640540351456,32.6516594413186,32.529033190380254,33.75405306683473,35.51405855498887,37.69481586980749,38.447023598418795,35.455882827378666,28.3136114617504,18.618271993735952,7.35277751535428,-5.141899229182793,-16.813466952718343,-26.768321448198428,-37.4503006001017,-51.77477917903506,-68.64257954770605,-81.19480449735295,-80.71404127395718,-63.22201733207267,-34.08093124180768,-5.133271656127357,14.909599538702103,27.417197937996384,36.45051932521523,42.06880464371556,43.9965725623476,44.91036378470563,47.2090528931862,50.00552971798822,50.029956345348005,45.23607661393474,37.83241713654078,30.060379162340634,21.51816836373537,11.977332235372124,1.6917505035137144,-9.07216588526568,-19.917763166852072,-32.31118685178828,-47.862649790245435,-65.83821817971435,-81.6592228689206,-84.85239282721085,-66.86583769407711,-34.72343036565923,-5.397196226342072,11.946252848742589,21.64611079465641,31.471839573868063,41.33579040027653,45.26319480959331,41.699783126831846,38.062002165429995,40.14921232123906,43.50098316248158,40.285741513369196,31.212234850685284,23.795795582464677,19.17072848514394,12.407570861493756,1.4486097674606688,-11.124130337387527,-23.957082169537557,-38.513643231967585,-53.85787839085536,-69.39682331351578,-83.85995567072797,-89.69771896096633,-77.75192056060285,-48.85167445284291,-16.271584898546415,7.988060274807144,23.532837139247587,35.083896938045356,42.5572850958302,43.24658822656678,39.38117362213893,37.285690573471456,40.83650579370473,46.36203267227663,47.39738249657656,42.37230731047063,33.71296690132547,22.43477861043961,10.768247695345016,0.6967353660850183,-9.673418786960086,-20.989031384622244,-33.25209635371567,-48.451080705131396,-64.94125108317009,-74.30300314870296,-67.77854754474187,-45.678958618023536,-16.718018891487635,10.549210635748492,30.753281928604597,41.7202188781731,42.77734177056656,37.07353995937875,32.801422725549614,33.52179719669232,36.14395957402657,38.220413994000225,39.16736620550991,36.69570479673781,28.106375867318395,15.324869001355392,2.3566696777449834,-8.666272838421865,-18.307969990951662,-29.640373000005866,-42.46917928594586,-54.818600656816315,-68.22906552403417,-78.06109168754871,-72.58305564791017,-48.77782680808656,-18.120152449183767,5.1039197377152234,17.8121615476923,24.512532346257718,27.64265801386712,30.11848236200675,33.545026754045736,35.37209922990919,35.04859326639525,34.46742377064924,34.28538849093499,31.857286094156823,24.706626197969143,15.58809758659097,7.709711049007631,-0.7213377703790933,-12.650246390875717,-27.037250435074487,-41.06235809591784,-56.142194728442576,-71.99469642298396,-77.18852080690937,-60.49665414184463,-28.690099863689436,1.3497329249535872,21.701214526039152,34.69256418469229,41.33305680123367,41.53488311947642,40.10961300255405,40.47053548720974,42.01507591846268,43.716423727550044,43.95420876704925,41.44159486190651,35.636070117982605,27.18372411840923,17.435164377203442,6.512004256232735,-6.364112147840721,-20.536305215393753,-33.52268359995025,-44.61296749983684,-58.280908539337304,-77.07658601544793,-90.10411763198721,-82.44175938205608,-56.13077766061405,-25.261308157332625,0.6570994090813829,19.146627567404025,32.3029821444367,40.36090932594643,40.568002976231895,35.88503939823355,34.37831952928731,74.0,122.0,86.0
-6.899300389140989,-18.320045888010384,-28.200000803912165,-38.7112554621547,-54.93269886355736,-75.32661977366398,-86.83988320220152,-75.10575277247845,-43.80827099862283,-11.620683073218684,10.929469351505128,24.82013414652753,31.726014469182218,33.13586627273698,32.468354705059575,32.78452868077904,34.21575301194701,36.13207839315473,38.187369628241065,38.02770082807724,33.77469512391226,25.69193880847853,15.529042398288292,3.807558569323568,-8.700724458161933,-19.812812737620302,-29.61959720703137,-41.15252092021548,-56.59403035918615,-73.11710264101181,-82.71886704760158,-77.35534772743331,-55.537336222905836,-25.148194939392795,1.6902985843885872,19.063585149238442,30.311332946375874,38.48164794549274,42.93870228235497,44.20610548190112,45.40959050183665,48.082345592250654,50.45745028103082,49.11374065457394,43.210117011390686,35.61184188930339,27.70459179520745,18.848065966050992,9.080294646074494,-1.399137651920557,-12.17825442186612,-23.233923349826608,-36.46468104505675,-52.908387971434415,-70.99000995827525,-84.43040200111194,-81.87814941562686,-58.305308645652694,-25.289861119823467,0.873289446484768,15.117857953830809,24.290335172263063,34.54791463654085,43.32545093429516,44.80732982443533,40.23424711718495,38.08757088072313,41.383165918284774,43.449963492065585,37.94226311509881,28.65077471318509,22.36416338626728,17.633533788877354,9.617107347411839,-2.1676105213554573,-14.738784210946934,-27.97249925283079,-42.94074487167966,-58.30432721846241,-73.8888404555005,-86.90513953205112,-88.3152555289565,-70.72079449946821,-39.10858479215537,-8.170596149649487,13.154393840694294,27.14720624487634,37.819265317253446,43.47675731218754,42.35163986258001,38.305993446563164,37.752041124466565,42.541027931696924,47.328232050529905,46.469336731767044,40.166182371956914,30.685623761813446,18.943421572500903,7.732491898645546,-2.1748323501585793,-12.885252214757362,-24.362597003140444,-37.279147770542274,-53.35044670243257,-68.84792084363801,-74.2667421554249,-62.685665601856975,-37.58526983794018,-8.363342202296216,17.259148216756607,34.91619264138967,43.03144276092564,41.50000605381336,35.358830321593956,32.57097331643392,34.25264609077786,36.83024537270214,38.65573799129016,38.96859377294761,34.86179853494566,24.649137811699163,11.46294324921573,-1.0698154127894068,-11.470768187850409,-21.307027595192082,-33.32983257935829,-46.05790983024212,-58.55677362062225,-71.94247387565761,-78.47821509333252,-67.30738059395968,-39.89140126306493,-10.239251283002517,9.673879106695471,20.206663690892555,25.700206071881333,28.262162239230754,31.085150101301927,34.344889981986285,35.42598651083817,34.82759975449427,34.42933381405468,33.98743093366015,30.263308678168645,22.051512908853272,13.180095184332167,5.491624525110479,-3.7532291818407173,-16.716274809664643,-31.156815783046895,-45.171108033693216,-60.92835541120898,-75.30118857750571,-74.70471039449332,-52.11590230702237,-19.199905611052134,8.214054477068899,26.068779630560215,37.331224534794536,41.92064452233619,41.035793941808805,40.01966406225198,40.844453426155475,42.54329854491455,44.01751753563081,43.54098768259138,40.108034891750094,33.39772694949118,24.46440532558491,14.432271056447583,3.0117770435988076,-10.418934806330352,-24.52091085300311,-36.82002951952026,-48.020269816192275,-63.372821228655546,-82.23447828495993,-90.34015137349458,-76.17728823818047,-47.10121385052045,-17.042727744510408,6.72383640978118,23.380694873874628,35.28558230547808,41.27135286391069,39.36525059693181,34.83693089605237,35.12131487167558,39.986146886124615,43.155361707112256,41.59834023533823,35.80703296810171,25.46070702807179,12.172903051913567,0.5851069209534079,-7.822829125529092,-15.938287184310928,-26.645196137251432,-41.39976987410661,-59.373244261682586,-74.13672322613866,-73.59190839630568,-52.25568218497397,-21.16986138615902,4.11089958776041,19.544532978138257,29.799364615111955,37.2544002544592,40.200064535444945,37.9291593177689,33.932352755514536,32.71145192481914,34.2229572578037,34.675268298432634,31.610028447821374,26.06931432020851,19.441696020885374,11.537276226469476,2.3102800752519554,-7.844324116427479,-18.519540023325824,-30.637992821479333,-46.86681630288948,-65.30860714966809,-77.39993946110293,-75.34314908908311,-56.1415864905522,-25.365105526915944,3.3125527256740233,21.125156185865094,30.276383959019377,35.716582235346365,38.94299606775973,39.666502987853434,39.080919736821166,39.112049595836915,40.53019323854715,40.66247184297452,35.942063980070806,25.506771152801853,10.9664782257351,-4.322786399717817,-16.16468118649021,-25.009987953328533,-34.45425402995866,-44.90952958021675,-57.335067887565856,-71.57091087985226,-74.97865132860663,-56.00900075083104,74.0,122.0,86.0
37.52615120914782,44.65236792358704,43.782048014367064,39.018504607161475,38.64254436606475,42.514457473201034,42.68136522436431,35.258413098798194,26.41433901552236,21.0834723526989,15.78610399284899,6.482204644599035,-5.820179924658074,-18.397251812116256,-32.161870072009435,-47.380095066679125,-62.786753703817865,-78.21921156326374,-88.97404391915873,-85.25451879762507,-62.441619083995135,-29.47080912504481,-0.960177824927866,17.700272573626947,30.538575149021714,40.132942471565904,43.78457887126371,41.19416170198797,37.55366397360801,38.722625600001315,44.2463332503832,47.773073422727414,45.07460290789229,37.71543740233422,27.44379790288466,15.514475385024822,4.833447733696578,-5.1413026503450086,-16.151818809691513,-27.84005872161033,-41.61293114892809,-58.24659749005565,-71.89802142975623,-72.72924691563775,-56.425202322102734,-29.16576381315714,-0.3304292473123824,23.282731978880584,38.282369897832915,43.49808265032287,39.806074100436554,33.98609891833871,32.74618750529191,35.03615766101775,37.44636291492826,38.986250692209055,38.39490917802642,32.475112389525684,20.946219330319106,7.669856696159931,-4.298479767955054,-14.21150195051284,-24.531187715772713,-37.07337645904371,-49.59098317303096,-62.4518546977501,-75.11288079960356,-77.32075394619355,-60.58150368580901,-30.83357067286013,-3.2746267741513355,13.441096382009976,22.209529677200244,26.62063987477067,28.929721473206794,32.11517532927516,34.93017130683609,35.3328115998003,34.63627649876754,34.41477829079154,33.4024128394981,28.24702772493941,19.3627809281602,10.906243932348085,3.140419177438297,-7.134715514124972,-20.903207623682913,-35.19814777341067,-49.46129137864198,-65.69421339484565,-77.31139102820796,-70.2334984958919,-42.84657520710262,-10.268485832085808,14.230064099304101,29.92452354983009,39.40340200840848,42.00731384242257,40.56200656899346,40.102331487950565,41.28646208624297,43.062958515003096,44.14486165804859,42.88186657974356,38.487612670495395,30.973894369095138,21.66453022621858,11.318232892453162,-0.673148085415727,-14.539849391435666,-28.334386619060112,-39.981754701816044,-51.811627501672675,-68.8740290784511,-86.4786878028608,-88.55905904259545,-68.63070938178463,-38.04877638702989,-9.386687611351832,12.1670043902586,27.254058087597294,37.78601077454,41.46020597093894,37.92477841158485,34.251953766745565,36.29576196562379,41.33419538261245,43.17650550265267,40.35670729127832,33.296625791639734,21.733572731772384,8.473811808105753,-2.0876861636840918,-10.04301264321044,-18.67506311087649,-30.467065679318747,-46.4038481511018,-64.449243910081,-76.07308673582594,-69.37097416131805,-43.48553266886259,-12.81473282038664,9.429557460252624,22.829698616586555,32.273221287767214,38.668378103724585,40.003741022622165,36.714610399335896,33.183711098075754,33.00730765399514,34.63634523489355,34.15951610351289,30.17190012375184,24.253068643291044,17.308552688816576,8.991119342808112,-0.5488864548942703,-10.881769611759646,-21.75763389800466,-34.83443154065666,-52.26656956529217,-69.87866894350321,-78.49287316195752,-71.52350736766451,-47.90618285625126,-16.257785358303522,9.644638224649032,24.401957955488573,32.089983956286886,36.8934257160946,39.391646062136246,39.54735599149874,38.944054120885816,39.43157124931538,40.88254916279924,39.90260329496878,33.46925723625756,21.623814085737774,6.4167901224656605,-8.20715524460055,-18.854298504385564,-27.587562736429167,-37.40205817396965,-48.169317335492444,-61.54937953123631,-74.47498684732344,-71.77402684543267,-47.34423532145103,-15.828979832642215,8.13740580737517,23.719155226532564,35.12813805988916,42.408346956502406,43.67950950780713,40.311048116540945,38.165225987903966,40.023260222075564,43.021317058490524,43.13064817199715,37.92128840891599,28.032376935322052,16.61903200083862,3.94164653814385,-11.147782400250899,-24.805823285196585,-34.885174980900075,-47.739847649460685,-66.28020469019776,-80.67946130827434,-78.0387272049814,-56.74021542406291,-27.39105395977819,-1.9988421367592388,16.319328060667928,29.339864730228967,36.184014259394395,36.13657744592429,33.58086250243853,33.3342490455549,35.450604429931296,37.962294437781054,38.78826424698087,34.82617468674684,24.38283186273292,12.130233198621472,4.34391317169474,-1.641779421172243,-12.727630618659724,-27.02916774760763,-38.910120110273226,-51.28269142897949,-68.15892146790567,-81.0824573492205,-74.32994253543906,-46.34890875925903,-13.612675629893399,11.304791179430705,27.341337237618518,36.52596301835279,41.39484095556653,43.80904036117245,43.721578204913314,42.836228018898524,43.307984510120704,44.02268135865405,42.72268188926161,37.994609293246285,30.249504272181774,21.83085393058285,13.186738242526086,74.0,122.0,86.0
-27.98344159023885,-40.78481301410039,-53.14652841512445,-66.4219949204452,-77.39804459857008,-74.47025047486777,-52.699858905243964,-22.01005141518413,2.6884467983306157,16.556791052859808,23.86182099657556,27.346895207272343,29.71212630052189,33.11823126525135,35.2834603353421,35.14882793345188,34.50468282603444,34.354022236111206,32.44284049783566,25.882513757495698,16.74890638252538,8.713955253030589,0.5640422802547375,-10.845197183815626,-25.111539329581706,-39.204894624919156,-53.98298682005634,-70.148362192916,-77.66121475828463,-63.935008141761216,-33.16531923123462,-2.1151335438738155,19.495074686452416,33.30037195022008,40.86628149580737,41.73524633591971,40.213001552706054,40.32796823262645,41.77721563155872,43.53166491938822,44.0657919637029,41.959925081290116,36.59379628857289,28.40613347877248,18.78838901981834,8.065743698102363,-4.533270049817187,-18.658474652817983,-31.93626738530446,-43.12634787573911,-56.111262632233796,-74.52356954589261,-89.35016761585109,-84.7948858324291,-60.20374773872802,-29.211991756373816,-2.3606750537975976,17.05555067525076,30.791246167946994,39.70104819343444,40.98078752280578,36.48522664647192,34.21017473182503,37.74913523792711,42.367588762128825,42.8000550138836,38.77359391558692,30.384550709554794,17.848080535923955,5.038130787047612,-4.520333944447971,-12.329551731514645,-21.68359928989656,-34.65089954089817,-51.630579640991975,-69.02677423585406,-76.39815333617437,-63.426636426405764,-34.330779066428086,-5.266716451840796,13.976574073492781,25.821894152972792,34.514784918738535,39.63989815285264,39.3900549339134,35.48447392528564,32.75671857762982,33.46984881439812,34.85445271397078,33.32541332478993,28.58161657598437,22.36276937628548,15.053009227730005,6.343067048113951,-3.47535113295966,-13.951537273108956,-25.166077736417417,-39.44539138758752,-57.72259619394348,-73.6696815918951,-78.2576481131873,-66.24229243194969,-38.954466424225394,-7.699953431398063,14.974989811971188,27.096405537691986,33.69126175220419,37.882081878255406,39.62832679172651,39.36474768517184,38.90923603337159,39.85983820161714,41.02736704691251,38.66276720283283,30.535274326976722,17.445803797500332,1.913265736476797,-11.71114383999335,-21.37805225083931,-30.291575253761184,-40.40117235825024,-51.669311048552544,-65.84513661221769,-76.0039061023105,-66.58234782630011,-38.10107425478637,-7.84127441519859,13.278950342213577,27.35414776698812,37.74436697304276,43.44233873249686,42.96329279907368,39.314175635630264,38.34346480070097,40.96547604346079,43.49870937239394,42.2161069361385,35.41594457121272,24.784363093719055,13.183680387586918,-0.23358102465132194,-15.493994659415346,-27.921940294221955,-37.97359435884721,-52.7170667432446,-71.5330858531256,-82.02179040293606,-73.50242996282552,-48.4588976231206,-19.313487992588446,3.9378051485550176,20.598263817410484,32.051081166068364,36.78340769625373,35.37256905480197,33.18354589600947,33.787329413197924,36.22040180487714,38.48626699850365,38.289603040627256,32.406033099397874,20.67228895319177,9.326082086317081,2.787926860190369,-4.17913826648887,-16.859708397608728,-30.767051923827687,-42.12672428528104,-55.77780727388912,-73.02102021582793,-81.66510328779454,-67.89118454999966,-36.55889655296904,-5.420586637622592,16.768280664862576,30.599868652808393,38.25295604702627,42.33088926096725,44.02897598316475,43.40587646649586,42.825252878502425,43.592897717625966,43.941185939359336,41.734796422590776,35.98468903997286,27.780086817661935,19.467538827928358,10.200500975548099,-2.2963084877302236,-14.892120717254787,-25.41065854635707,-37.50326980602047,-54.52207421989746,-73.66656338534077,-86.46833531547664,-83.30458798517182,-60.2490983145219,-27.733129762740464,-2.0376507418944105,13.325687524331455,26.503707183579557,39.81731751393887,46.90068826674908,45.98354232424271,43.06742853272693,43.066665057919245,45.359116198304896,47.31814385092801,45.10051299497025,36.16232820446272,24.220174095433453,15.281080643906545,7.53604812703674,-5.7426080522256795,-23.76533406303917,-39.14944837291911,-50.76352625215263,-65.86394534283137,-84.17654433450326,-91.11414488476686,-76.27660580984606,-47.88502903883459,-19.670990083707242,3.2837784741183667,21.312967373795505,34.581479549734716,41.888918751969626,42.6677365389847,40.68577661450878,40.7775900767472,40.063090279992394,34.87040900818178,31.868175784184523,33.702535417616275,31.586833066961663,20.992427572139828,8.490657918296145,-1.695281901671611,-12.512942658633683,-24.180127734291872,-34.33641445634957,-46.085876136852264,-63.07923860140732,-75.66042031108358,-67.9511365511047,-40.543656181178726,-10.394778165024718,9.955591540615261,24.053836776414485,36.65930817520076,74.0,122.0,86.0
34.7178331393166,39.29518619541838,43.00440639349998,42.05727810733774,36.83072181195392,27.091738506934043,13.942436405471748,1.9163552289713572,-6.798532321892561,-14.755531946904046,-25.002204284718932,-39.1922453156713,-56.944987147061916,-72.77948448171537,-74.91221735375508,-56.04111653786284,-25.235311201949443,1.3652713691232987,17.901599882444504,28.59018233438251,36.46879434305599,40.13458391902706,38.44517601704882,34.37291949725829,32.656837238166105,33.99248387457846,34.80320548066585,32.20717878276428,26.881807520462164,20.38664369351106,12.6739873064694,3.6024961991310485,-6.455716854002647,-17.06308451022783,-28.834511426710392,-44.4493810736251,-63.003118061090575,-76.48067937380475,-76.60220098308035,-59.606168919950186,-29.65891684728488,0.05450713736492632,19.375775990477727,29.351326307779704,35.11593143884111,38.65998655614268,39.68704323887552,39.165305024755455,39.012952348142846,40.32699110898923,40.86510611392446,36.917283842218346,27.18171080987528,13.045085976749094,-2.4169046515419708,-14.836831309942172,-23.85495609815855,-33.11813842814437,-43.46316219474939,-55.47491585986239,-69.90005999787033,-75.76078310201217,-59.66726963642307,-28.77119421410339,-0.7201793793161992,17.83469619262909,30.718627803318228,39.97212663426167,43.92654778136763,41.95481527815143,38.58467972619267,38.853804405599135,41.89624646309241,43.64498399831101,40.81773375402249,32.57587588476115,21.492859316880626,9.592481806876343,-4.613338640006782,-19.560629653827398,-30.77681466515171,-41.515699464168726,-58.12941469324185,-76.0758895017768,-81.678085458186,-67.51479927425169,-39.854416850158195,-11.805736543188985,9.31592402500129,24.471981327654,34.18657106382209,36.82600662831759,34.56133322384684,33.05598953533995,34.39447196032921,36.97609977122099,38.81679853498338,37.297765898303254,29.442681583380907,17.00355122041911,7.007057246292495,1.1984339209666526,-7.283482960960786,-21.08522752340964,-34.212370231767025,-45.560472270007466,-60.68194286207775,-77.18856377558772,-80.22654878118603,-59.88308046091916,-26.875284175334514,1.961957925630545,21.532665953378842,33.3370053746074,39.69184255410906,43.08217189544214,44.02880181662225,43.10399412996128,42.95188723615432,43.842790200115815,43.63855886129979,40.43754044290313,33.756659123357515,25.327052969834217,17.045060921094297,6.888712701389243,-6.14032992273687,-18.060230855092104,-28.525292936199797,-41.89048250874724,-60.14641766573783,-78.45011295976643,-87.5750318842614,-78.51802356137392,-51.03791797628042,-19.105441649841556,3.179407111152227,17.01705751675066,30.55130772625706,42.77578588244146,47.276631576420264,45.027831994940186,42.70924629920557,43.5981971077697,46.102396991277274,47.29316671048991,43.18530340505729,32.699194344341265,21.206500394039118,13.241869994872115,4.446376110992862,-10.76226718236976,-28.75571053055777,-42.63545352294904,-54.476615301977105,-71.27906880748638,-88.11457310526725,-89.03109010051182,-68.77043952280336,-39.30486091216853,-12.479496789711623,8.966169810542809,25.6633651320129,37.38214505029689,42.714276078074704,42.10350652911679,40.43838395483231,40.9728468093854,38.88952474488745,33.39924653988453,32.16359483126813,33.934944012734206,29.247147359643744,17.206952930474145,5.379364878176055,-4.623300641158846,-15.93392222048644,-27.272316418014352,-37.28077292568709,-50.56449680961826,-67.96115241913377,-75.93850605250863,-61.463140852143965,-31.28498196572401,-3.3943877142393166,14.275537574813375,27.958559688505396,39.24407706123743,41.23559961635266,36.58103974658397,35.91078100697478,40.84462839333217,44.61013144872466,42.650498707046395,35.98908488053552,27.29085068736798,18.40729141221181,9.838149954109683,2.3114985725079418,-6.49190211174637,-21.02908762484892,-39.28653545500521,-55.643672029368965,-68.00221832789084,-74.3291331559266,-67.3485759851624,-43.54968937229093,-12.804452208028154,11.139671391305423,24.719663141102618,31.079516617342485,31.630158689884524,28.97440991242057,28.53708880450573,33.24814420748537,40.40947849813597,44.128678343942795,39.54188990827993,27.03068391191124,14.517509052411471,9.146876428746102,4.797639176431561,-7.682267183934956,-25.572628791980016,-40.29626487496386,-50.76235551540837,-63.887080920067056,-78.41717692938992,-78.98214136646524,-55.38440446564573,-21.058120766809893,5.014729656655903,21.48548282112715,33.69957611754416,39.66559369794752,37.977047752417214,34.045474714558544,32.80552907860042,34.18925889146655,36.22348532864081,36.504423344116006,33.58306574014769,27.686478988451206,18.44276970430467,6.248365195493595,-6.188380847276976,-17.2454115437945,-27.36714692211835,-39.245216639312076,-55.09750896758706,74.0,122.0,86.0
-51.44201690279823,-19.774330030119163,5.52908654949858,21.94394466643561,33.80656877080448,41.753130508496874,43.87146691861875,40.82421123900607,38.20911985037984,39.615354033061834,42.711247471273325,43.39427354671494,38.939956658633555,29.501246277079144,18.16938753366526,5.7826357278147045,-9.091057370590969,-23.245075483258184,-33.562120992654926,-45.63508839721792,-63.72712871534651,-79.53736485160375,-79.58430269858253,-60.34995515170412,-31.264857474123435,-4.943335757768406,14.20955718831383,27.913021341548404,35.70028312297896,36.42754092394417,33.846882717153264,33.19188922185204,35.10329297067771,37.673386622726525,38.87648705075233,35.743135900451726,26.04820433363731,13.580064475044924,5.112405652938032,-0.6492904369372761,-10.912648555143411,-25.20638280018298,-37.44817033410195,-49.37079085314683,-65.80467511315206,-80.20253320016829,-76.66687400108886,-50.77528467599745,-17.64726647565466,8.53640839925109,25.64843872696809,35.613162220418324,40.902369080468326,43.630457679977155,43.84770820949611,42.89066841604897,43.18141196217364,43.99838769674797,43.076974572672086,38.83290257207432,31.377200083963103,22.923392993933028,14.460703111728064,3.2851192076362037,-9.85535179560323,-21.06971088087657,-31.899300097500255,-46.73847213038023,-65.80129128217496,-82.47131228613671,-87.10873406975833,-72.0795120838537,-41.45078964296548,-11.408941732959505,7.637626132081429,20.765917514789383,34.53467605982849,45.02216813576472,47.04752420283679,44.096082263227814,42.657557553561396,44.26419947934839,46.749857614051415,46.80869172647764,40.68221714751349,29.155968617572054,18.56334785941223,11.144738929731464,0.7429397721328355,-16.04286782148861,-33.32725397347877,-45.90348596762492,-58.69982990994125,-76.79227022367719,-90.63781014239643,-85.04207215235046,-60.509951054715906,-31.01938581367779,-5.753742662743178,14.261187498691793,29.60852091144237,39.638016570434,43.00652968194133,41.45583584716424,40.453043240892974,40.916359058170954,37.34449300025119,32.36752780267827,32.7801719164081,33.55308260595844,26.22019668646084,13.500454755863062,2.4592927309088326,-7.707610706996955,-19.35904663402366,-30.197282956967918,-40.51786461330557,-55.509327243583776,-72.06098070389328,-74.18077783916833,-53.58324887247498,-22.29535822152242,2.63118710781593,18.31077431696924,31.74860314391168,40.962517256998524,40.08985354273764,35.645142043803716,37.00535528578025,42.36201737507326,44.67447127949641,41.081660765253055,33.583052357137554,24.69960952305618,15.880323238237668,7.54371712927762,0.14535704405128,-10.03720364269916,-26.18557782238415,-44.387369662759255,-59.63436630521454,-70.68741453444837,-74.04399602730909,-62.01145301104279,-34.68856569179853,-4.783578530131718,16.002472147304758,27.19394078622834,31.793480108659956,30.974183784380603,28.38987827177521,29.38901016416001,35.30024803793864,42.109428196847475,43.772953435371825,36.52758709117055,22.936302162108007,12.227097092318271,8.331402737765757,2.152687522436039,-12.68597560111567,-30.4346594505096,-43.49452113882255,-54.033453062975475,-68.43000683161323,-80.81812088006733,-74.50092692492782,-45.52868692840008,-12.248690264078837,10.438374807181164,25.40731527249211,36.25365995646343,39.82596504634888,36.75930502518862,33.33673744825205,33.013631356275674,34.80997686079383,36.58890277969126,35.9947628726679,32.17535671417828,25.39474167665965,15.124157304551398,2.5621782053780837,-9.539975006130165,-20.193399103402314,-30.454722623198805,-43.448145837705,-60.003041603653415,-73.59037928258866,-74.58138165875424,-58.687837044464885,-29.754090944564492,1.1838751531369942,22.746699616455096,33.967331884583665,41.825579825503716,47.03808149865611,46.65422866387059,45.46994292099388,47.72971024698571,47.6946476957696,42.32390593500968,35.79178480527233,30.89534822927319,28.0562518288076,23.320118454734693,10.880222570928723,-7.302128767259003,-21.508939069282356,-29.689369823330754,-42.97373712898844,-66.41933732204203,-87.3114720933074,-92.69731811875408,-79.69045146183568,-51.56921569618289,-18.319080515536108,6.903233767288614,19.889093146368275,27.927030926886573,34.793206244824056,36.65465263778534,34.95024506773324,35.546501316119816,37.56465553093013,36.94302771578053,34.56367215830356,31.846960446728428,25.908504080390237,16.785532148787887,6.346527166554387,-5.415494891201178,-17.58886283258523,-28.635047527131317,-40.32825969616111,-56.86799254807645,-74.97103540553677,-81.1740810262729,-66.5667427620863,-37.21047666209025,-6.740490392572374,16.32153774730261,33.082839333839054,45.96767703088165,51.22348839401644,47.02292105301474,41.62261071420641,42.57987400012864,46.360960859850316,45.3126613630741,74.0,122.0,86.0
11.617201099982386,-0.514719711338749,-13.35776931324999,-24.028542169346586,-35.63639786304115,-51.99272024539562,-71.27063627907029,-85.48566588825996,-84.91683434184118,-64.23904023444067,-31.958485508665298,-4.756547020491953,11.595304103455563,24.660325565935203,38.252038063758945,46.48693849885044,46.38349322140922,43.33345601417265,42.88354839886896,45.00708388160624,47.20387378944883,45.77703909919438,37.677839527990876,25.72196329347383,16.25898687817351,8.774572503974468,-3.570680163561239,-21.36187934608951,-37.41822323484462,-49.181760437807206,-63.48587040445634,-82.00281988574991,-91.40809015617461,-79.36893297553523,-51.887682311986815,-23.146015346064797,0.5289416066566528,19.175819838637885,33.119809024883885,41.31455643670852,42.85389663499262,40.88556941084993,40.658525688296145,40.44463073502634,35.63876196708761,31.894910690393708,33.4541232652145,32.39772600356496,22.708096520548704,10.010295521860229,-0.3800715616712628,-10.963538515249025,-22.693716106163773,-33.0280538061061,-44.20543616168729,-60.698252369048596,-74.89732290888462,-70.36514658389476,-44.77690826479627,-13.950811308045983,7.802069065264438,22.24582591730813,35.227809997187194,41.72326235542053,38.62431532673941,35.292270840574226,38.46527511894069,43.59117875355042,44.207487119486686,39.19038363426869,31.065361666231784,22.127769330612836,13.379496301068848,5.369281785920298,-2.254815243500634,-14.141454075161533,-31.519153769824023,-49.20385675440082,-63.29299407078501,-72.77482390955501,-72.41735405867783,-55.29586710076178,-25.62072392911299,2.379901989348523,20.048768855622512,29.14194324070549,32.031023860568446,30.154865221902316,28.13593590775197,30.688738967721697,37.44075809648024,43.36529435499824,42.63244032460256,32.92531803493558,19.117020699600868,10.621494730047312,7.296251816085848,-1.313377730977042,-17.946003413917307,-34.82463206691873,-46.44157676058585,-57.72417223107304,-72.89897086973917,-81.5656890901465,-67.93961833543484,-35.35184781241404,-4.476661174937691,15.230889555554304,29.048758846040396,38.16360098854251,39.38307321926928,35.540882476698364,32.91966951924794,33.40099178602074,35.43379773642308,36.74357323182245,35.205568761349106,30.53337774731079,22.796022272362645,11.59972247869603,-1.0678960868375218,-12.760713240733908,-23.089217531329986,-33.78369072216035,-48.006113241505176,-64.68532343656014,-75.5091360433891,-71.7095330623608,-51.2911335071119,-20.424389071190788,8.682527129249934,26.764752545675403,36.351138628837845,43.799450390243166,47.461474203761874,46.03154756069056,45.87954676737557,48.285336113987505,46.55787604806174,40.37031400401587,34.147982880379054,29.93077534550451,27.180345917475695,20.65438016040957,5.834013704974553,-12.198767454411557,-24.161428244491855,-32.435331825611726,-49.00846532987378,-73.47666179574809,-90.74786721153518,-90.78301231236773,-72.81983287718238,-41.8791106758084,-9.74588255493667,11.7173640463949,22.342368291361037,30.156410113851923,35.971113868041165,36.23732269952925,34.7519485375058,36.20782822283235,37.72655667001417,36.29051341404703,33.89835380130189,30.573383454437938,23.478451370997096,13.892458784603372,3.076717240903556,-8.97236357112949,-20.915190037229802,-31.74292428078381,-44.519400460931365,-62.412038491758075,-78.63504084879536,-79.0913595899895,-59.030158920133516,-27.950214173069966,0.7795168747404778,21.62808604100353,37.24925275637011,48.52685147662728,50.7769552014224,45.09203039059139,41.18452912934946,43.771798582281946,46.756734884518636,43.78889795872759,35.98231686452189,27.507169197876397,20.517869704392524,13.702978885890813,3.419518815866522,-10.266723807408292,-23.219276592895387,-34.38630565560995,-47.60430653647719,-63.77471051914024,-76.49517518868184,-75.76151181356498,-56.78630897754831,-26.796823519897305,0.7297015846906331,18.106404486545223,27.542385855726483,34.26756158567803,37.47674618295313,34.676446254653875,30.865860349696273,32.626043676118336,37.274339412185626,37.3396922847212,30.913954737045056,21.818085748097317,14.261199745005632,7.4257890263810244,-2.355718193231499,-14.91160875179623,-27.55287668710863,-40.02577236054941,-54.448668064948436,-69.36715768031962,-74.43712788121961,-60.10159159892197,-30.53710628323649,-1.206679172264453,17.364400206085993,27.777999833678493,33.35362162278955,33.4678456433618,29.804929306236296,28.121475998150473,32.12566771723119,37.617885230665955,37.38904445423464,31.311665088720652,25.40523058893967,20.335814116327352,11.626494288558833,-0.0503630618735591,-11.737563513453658,-24.714808369764114,-40.01558284001298,-55.34824944091078,-67.35866238590324,-70.33639072425831,-58.612799035471205,-35.008526786219306,-8.675319553404268,14.158372826380855,74.0,122.0,86.0
38.15000658197434,41.57002778155972,37.16640867924121,35.576517379285924,40.093345744153005,44.40204960497487,43.244444209946074,37.04589781588968,28.487210697249136,19.577470451461938,10.935074801579713,3.27501899275627,-5.042201140401608,-18.756916117245012,-36.862181445289444,-53.69026536728298,-66.60560558120146,-74.06539977450157,-69.3027776341428,-47.453320165737104,-16.739328654415836,8.594779628635417,23.389461631252605,30.583627711940952,31.840438567227334,29.321257722621745,28.30347951410494,32.37061967186609,39.517292156467214,44.042658480800746,40.69484401102417,28.933457726883763,15.816457960402301,9.540151811456166,5.746917939363824,-5.528447474076074,-23.210401161790905,-38.68545612593849,-49.36184137217259,-61.857624626107324,-76.87855505268546,-80.3018633919356,-59.649622720178435,-25.42282984353887,2.241877175211663,19.58627362152654,32.33555548391056,39.35931662736473,38.48990518029456,34.465045700247664,32.783040828766026,33.91953094427298,35.9998639416233,36.643660591791786,34.15234035619676,28.645899256710614,19.884975493318347,7.949993031207189,-4.599899968505272,-15.856190784174897,-25.998200552782336,-37.4365593777447,-52.82739765104659,-68.88101481123508,-76.15653863758672,-67.39785613774369,-42.97625932184877,-11.257680334887299,15.166152123629278,30.041780044372416,38.63550789427177,45.45368108497888,47.38242566492255,45.561009770774504,46.57913311454776,48.42890731865116,45.015679781168295,38.44142990842397,32.678092164694355,29.130617310732863,25.989528694244367,17.21921961573511,0.4791694029771312,-16.494976431077234,-26.419168428769776,-35.97682799601434,-55.82455386374604,-79.87499546900487,-92.68109279585907,-87.33858858514465,-64.8123257228537,-32.08110893190609,-2.154505319019384,15.556962558688666,24.631724423152495,32.25803029637103,36.614042717384365,35.66589030032909,34.869957818310056,36.86947803158104,37.59528593033934,35.57768477851151,33.187780843151984,28.937844705148194,20.849922788685518,10.906898053855617,-0.30787194607767104,-12.52291943694461,-24.11422704130544,-35.003290175987146,-49.214329240778376,-67.88203113694006,-80.90648774990892,-75.19198777095454,-50.54678642181195,-18.948447322058968,7.578763743090557,26.513208471661446,41.11079828440967,50.28313704383757,49.593523461201784,43.35172526617975,41.37605933278649,44.993934379124724,46.59339918231898,41.84324001935799,33.447999230831506,25.321041519355987,18.68652101654613,11.206352897886116,-0.34242795414581834,-14.253805393618418,-26.50290228379468,-37.8259132894644,-52.12217165255938,-68.24197903786674,-78.06250515873712,-72.07116173824963,-48.66290350475423,-18.059249805204754,6.860080782191052,21.374898476260153,29.651578764478955,35.74643257794326,37.225483064416494,33.294770018211494,30.709189966791072,34.02811596193863,37.9947827875549,36.052610101329726,28.324384155800665,19.392054381816468,12.389955233150848,4.997625197844688,-5.824893687200732,-18.63321485946224,-31.099812961836015,-43.908505846283724,-59.0116189674725,-72.4322241358601,-72.4126005386537,-52.550357238734165,-21.31455783866937,5.335467231249754,20.955223419341753,29.888703594530792,33.96558249903333,32.59367692743857,28.834327355258267,28.72291092436868,33.91839641410848,38.338760941755446,35.99356150942599,29.37122820923637,24.05889405588011,18.30599157034815,8.376351009516528,-3.447360412888791,-15.239333622485223,-28.955287731396883,-44.57802884958896,-59.34435898560468,-69.47503493756157,-68.54201314588177,-52.637969039523675,-27.300947077049116,-1.5689031621289518,19.683681176825278,33.816636706897675,39.25614120232236,38.737532754983604,36.02322331081586,33.37103276264979,34.29001753529796,39.05505698186117,42.618353115489214,39.609129967797834,29.798639928168885,18.35383809666088,8.770635822032537,-1.9889961341583282,-16.954045423067537,-31.704815517950657,-41.758735460923745,-51.73585461760871,-68.15705783615418,-83.69021193961551,-81.75612742714182,-58.935475546828535,-28.095553674198136,-1.2189874427207115,19.049040134475987,34.56955298463998,44.591799841843965,46.487578279095004,42.754588433892984,40.11199825144693,41.95116032303178,46.92377369886589,49.97272726720298,46.39192878207355,37.2617215908796,26.58199012473389,17.046262985625916,7.895086851082696,-3.921592972794345,-19.55932692306222,-35.38186066136951,-47.97339345506853,-60.096433881173986,-75.67043444202079,-88.14890557389816,-84.40120944384213,-61.32313097660772,-28.35126847428513,1.6348549560849184,21.26708818937559,32.76441771142212,39.573178532847756,42.099965064707334,40.51983843490701,37.48393612223766,38.48404787939541,43.28425712142855,45.541977394290484,43.42854451679817,38.776317491599876,30.888758407146284,17.538587181397272,0.27070159440813146,74.0,122.0,86.0
-57.75395733578282,-72.32460094234887,-75.41230863403536,-61.72545722623687,-34.01640979384664,-2.576521327864647,20.58935536025369,32.8052602213722,40.845838858119,46.658950229287576,46.93267009438122,45.40891018321672,47.38489421261019,48.05124850740112,43.2077730917745,36.59979304204109,31.40882912965547,28.40337890119951,24.3061513789582,13.033834641669516,-4.897375243679283,-20.08723092613222,-28.60403183880317,-40.52196095768716,-63.06137471675726,-85.25292968454178,-93.05446471385876,-82.42514089941402,-55.902227164549764,-22.537457542952385,4.311880785880741,18.64617330676778,26.887082319918843,34.084752822241875,36.7425851091407,35.13467942704243,35.281515989605246,37.396627765349976,37.19768643045389,34.87559366040783,32.32630420587778,26.9395683966274,18.090375738333847,7.813033671289105,-3.7876242351050387,-16.013249313274656,-27.21756603887657,-38.556064974985176,-54.37088173553425,-72.91164972250974,-81.50758795608333,-69.62789335459027,-41.48276586326163,-10.44613584652076,13.701963879611199,31.072928980832977,44.559261551408255,51.13853881706666,47.899463612414564,42.03806582793574,42.10677081741649,46.01406607180559,45.84595344900579,39.58897854659312,30.956181365870663,23.283010345408748,16.798370984564375,8.326107042680055,-4.320765168096573,-18.06208353272824,-29.680900987687643,-41.55477427868761,-56.84283061643233,-72.19570218231995,-78.25691233195712,-66.83509027454876,-39.921972246429846,-9.858558863023731,12.056175179167619,24.123294012891662,31.63973814171244,36.82654697714725,36.454991317760324,32.04108828966533,31.12866507013108,35.48978656829599,38.16775652733993,34.25240030575309,25.643551428448927,17.17277327835731,10.49091517887519,2.2432304416214515,-9.464024806430489,-22.30235679946624,-34.660942469993586,-48.023490880317475,-63.50338168480133,-74.33514653388916,-68.62111108467143,-43.989362362200005,-12.552891698263474,10.867630431438133,24.02669443497159,31.61182563965077,34.09232122140441,31.494014275781005,28.2001078856553,29.82896854549855,35.64719821232589,38.425579378833056,34.21322438736361,27.60833198224109,22.69103954288994,15.869027961176561,4.976273790677272,-6.8040354101481855,-18.923682827143168,-33.374961479987206,-49.06787544072057,-62.97967823099519,-70.65627967438458,-65.4205058249123,-45.85167157779042,-19.600382264431794,5.152025075396051,24.61593617125108,36.25209201515869,39.51178553647423,38.078453406878914,35.11896202784531,33.13013793083515,35.43169505559777,40.48523077008561,42.57472412638623,37.297236732006404,26.405988809548504,15.406440567142793,6.025569393627757,-5.939113385337254,-21.55610576416931,-35.07425757021922,-44.24735667438971,-55.792080577606654,-73.48327974622259,-85.48552650624453,-76.91936341318836,-50.15883927550509,-19.638926528895045,5.24469052686349,23.96664987445842,38.170178286227035,46.009106682238595,45.696772020894215,41.62588108961073,40.16581924415513,43.2272903642472,48.286310006354825,49.683684181257085,44.15863876142072,34.16198269225064,23.675899372672056,14.476035108215378,4.8943858766899195,-8.135234366754318,-24.333781348495112,-39.36805932159725,-51.25493949004236,-64.27497259877596,-80.19258390475697,-89.17081342436423,-79.46567360378063,-52.2320662735624,-18.871787935933888,8.419409614860962,25.20231067659234,35.16560693947167,40.74495597644857,42.03188439716357,39.55339176554157,37.17885450673241,39.73986035537489,44.424115880369435,45.2926787199895,42.31179061488752,36.93261156078861,27.65362067766531,12.690024192974407,-4.398794148811144,-16.236365553003832,-23.969496110901655,-35.07276257506136,-50.62344315044954,-67.99735391651774,-81.86178589341523,-80.25073881706486,-57.23712967008307,-24.466540243535366,1.0136157271616772,15.794995299250964,27.379534265516238,37.30151134627566,41.34194308496172,40.09662068696517,38.929441095931956,40.18311492874297,41.166369043631065,40.108883878810396,38.008319338523044,33.76481632998648,24.968989241584435,12.152449002150417,-2.122047411765897,-16.056864406293617,-28.121095392791112,-39.177697155960516,-52.441321591596314,-67.95578194494732,-75.85305711353813,-62.9002369274627,-33.6993276464302,-7.167295505524901,9.314939192945493,22.754204902171754,34.13434658060781,36.08264701717476,29.941331764235382,25.39060154732277,27.947152521513893,34.8258928428001,38.77625945835872,34.61838418728107,25.328315188214546,16.51079113843852,7.926507769153835,-1.773010704979171,-10.419458405021924,-16.593069022169104,-23.927267457109323,-37.483906311855364,-56.849950261539526,-73.03049448258452,-74.04403146458775,-56.93988490817193,-30.096581066008856,-2.9532070962988075,17.265176396847714,26.546473053275648,29.356477591332904,32.06564287152307,35.93005240911972,74.0,122.0,86.0
44.55015165207371,37.143550022662296,28.565016164246593,21.370525574997714,14.74019901645819,5.051918277500186,-8.392879490245825,-21.64384037840305,-32.873651243560396,-45.618621675764565,-61.61313489892272,-75.3685038115152,-76.91937812463033,-60.22595398632443,-30.92913884703655,-2.4104677249213804,16.37757031303452,26.517911775322094,33.485574149447814,37.40100222511689,35.293116298206144,31.126701533208816,32.06122572494594,36.787205360856234,37.74018990204794,32.03953400489695,22.997385762008943,15.146532095394594,8.446290164224829,-0.8366961479459508,-13.187503683445373,-25.908410199987095,-38.301005332907195,-52.37626003318775,-67.65567985705368,-74.78263811692345,-63.14363680607896,-34.83448720287456,-4.568150906646849,15.493598093257322,26.68069079586406,32.909534262470885,33.75940716945056,30.322451339940127,28.025748243769094,31.33757362933692,37.09685815798648,37.857562522618274,32.236743619983855,26.058594144722754,21.14621837147276,13.041976831863433,1.531654283906532,-10.166095183166496,-22.83324728502466,-37.90818596228195,-53.413583096178485,-66.12119312183475,-70.72221018721693,-61.02902772555193,-38.50991534727031,-12.062973451144394,11.429329590224926,28.887127612050783,37.9476934001621,39.38744077107978,37.300468016898336,34.27599674567706,33.29120011493303,36.83086710775996,41.6615270196757,41.867783091111406,34.48901494352577,23.030246072107445,12.64837704740424,3.037646427535457,-10.254882971261514,-25.954048100165846,-38.005894255937704,-46.94769559769171,-60.49165263361607,-78.36384191840743,-85.42142595839886,-70.47620213905003,-41.11811452399781,-11.717670728353314,11.181098154502568,28.539404406868886,41.24249205704605,46.69325689325097,44.57829709944773,40.75250601409675,40.622807093182544,44.69594113575185,49.32727152717297,48.77002542519283,41.54483433588328,31.03685640175734,20.90243077738701,11.886069190753275,1.5806908464878129,-12.646539357612657,-28.99576508368047,-43.03575117301584,-54.64617661597083,-68.79001929960857,-84.15572321672956,-88.52615759758498,-72.99988839474382,-42.625014248143486,-9.953777186347857,14.259596828480342,28.590962524192186,37.21569903987796,41.55767184594605,41.62374717796047,38.578246226363824,37.35195248267803,41.19914412837885,45.18850222364119,44.71584044388381,41.02038687149607,34.768697044193,23.90511801232623,7.621852464319676,-8.556427820403071,-18.541723209031865,-26.621558035530004,-39.22829278693866,-55.569869911179104,-72.80494805577861,-83.53246292951442,-75.61294494818499,-47.91284537290257,-15.857706428836517,6.101898318061165,19.193983985041946,30.597904081597644,39.19757728698057,41.31227948202502,39.532017146315965,39.101624062101614,40.650410904615605,41.038351114614365,39.589305289862295,37.12879515037682,31.74138783220759,21.5684028574779,8.082011452836973,-6.256461470787365,-19.771086353223165,-31.286160622740365,-42.66007346341387,-56.898954489516214,-71.72541114537174,-74.51985007161153,-55.347323508766024,-25.03429195320765,-1.5685022518826075,13.19527331886812,26.56683389647374,35.87760476738692,34.753447767705126,28.05664213029781,25.385220825266142,29.77048943281882,36.60808713573855,38.445343749264815,32.14981596120538,22.626929362770184,14.121419082200337,5.202427919532509,-4.5209913847145735,-12.390574818241989,-18.333208003350926,-27.071429704934012,-42.72030888232935,-62.42691474788636,-75.27328811682054,-70.73555075256819,-49.704275751822905,-21.951589507009516,3.8985418450760303,21.034655606654095,27.67246995545093,29.993971163284495,33.12284984698434,36.986281330938056,39.21422857681549,39.65227892501811,41.81642845711017,46.33390815789837,46.04876153073751,36.64277803478502,24.564016880177515,16.427570643838948,8.966807455839938,-4.128593899970648,-20.556810478287957,-35.613747300437126,-50.587331213112336,-68.17843241993586,-83.92191893537614,-86.19166705962218,-68.69612757224829,-40.26194760641829,-13.58820384892188,8.279675492220868,26.125464589248654,37.25600693320418,40.356820652376285,39.23288607391487,40.293873686547734,44.96008892245884,47.473282348941574,45.30006069505791,40.937606180410356,33.90443819617108,23.067821471544686,11.703531668790289,3.4884728431520093,-3.713376014680865,-16.47384246431026,-33.81067679995587,-46.933015289561034,-55.371122218211724,-68.74231031974209,-85.77407083098372,-87.41116486548766,-62.30822217718694,-24.794166652582096,4.328672776561739,21.558915782132303,35.27087906115298,46.7819721696914,49.93069894873021,45.9901639671392,44.735082885033165,48.56260791239043,50.27478843670633,47.49286940845006,43.76002214212446,38.73713446811357,30.222227844318596,18.466846344618062,6.248389735232072,-2.975542628037327,-11.186590768899402,-23.526341417287384,-40.50397646647551,74.0,122.0,86.0
17.205932488516215,32.43578198722987,38.976848159399495,38.989617967428465,36.43826858428088,33.597326918614804,33.880812786654786,38.35304462699173,42.434912223031745,40.47442049939362,31.3300551612924,19.784992077670584,9.994498529656578,-0.30785225142193395,-14.81539738818221,-29.992443438989152,-40.61488330479025,-50.08929560208122,-65.67929812656241,-82.31216016070506,-83.36734107854714,-62.787660537866074,-32.140800783023586,-4.392913758338988,16.65940711096038,32.757022221853305,43.69323307992701,46.6912305729605,43.325806658322726,40.22435621745314,41.45498057174408,46.23287057182096,49.89873860562016,47.26572759839202,38.6563649716139,27.964641432582038,18.243905011969638,9.194768836068084,-2.098268407915327,-17.355313985147422,-33.43404282670231,-46.45109992277728,-58.29677967179974,-73.49900749139165,-87.17525547497094,-86.11024131384936,-65.24925273561954,-32.83562569294715,-1.8145925590666918,19.23270890488272,31.536599188395314,38.91182300814797,42.011601845065016,40.92095201544264,37.76155173494465,38.02259535266801,42.6621262036946,45.52762031327623,43.88275974802763,39.53613250297868,32.21552417782513,19.652608169958153,2.54754448843455,-12.103901706769927,-20.673540001753594,-29.720091869315738,-43.69299089499334,-60.62130056132445,-77.12234861837896,-83.56421580035563,-69.19092309772869,-38.23624375961305,-8.217834208291652,10.40506181397989,22.53230566001898,33.599235357192526,40.49664026627673,40.9384730266593,39.118238914181376,39.46957617587067,40.99584178535093,40.74325666369109,39.01230438458245,36.00487727885712,29.290379145387085,17.885472818311253,3.9505775807822907,-10.326320770460905,-23.291678935083453,-34.42970357349113,-46.41239286555475,-61.49168740799214,-74.48558609415132,-71.18028918594418,-46.8072254979413,-17.081576511988285,3.23193957233472,17.055051967645895,30.07536953398645,36.64720195197596,32.928490943526896,26.561595423279595,26.021465574616144,31.819275814942145,37.94459910744355,37.36722606132244,29.420950321452374,20.06267277485121,11.682701102322923,2.3831177821126617,-7.0924871411970125,-14.162990166018986,-20.309634863809315,-30.84070126318463,-48.35761833913931,-67.43255872550607,-75.97743173088523,-65.98308840759577,-41.93101432617152,-13.97022685415265,9.993969605839768,23.857339888219492,28.455502901278262,30.73772552427922,34.25693209457127,37.8897991490905,39.411611439542156,39.93044958714254,43.079510246621645,47.132335397971985,44.15101889159694,33.00088603251921,21.751998692950334,14.561805440478176,5.8501926107501045,-8.820643703811932,-25.105992387846108,-39.77446795522247,-55.408288497159035,-73.36385790777688,-86.48486280006955,-83.05190341192758,-60.93856935094314,-32.03495393391239,-6.853810854798926,13.912068381834523,30.178378210785034,38.90250534256427,40.18553622208687,39.08027395910472,41.45218051469889,46.17715605158017,47.23239541046007,44.1940965992858,39.292361548686124,31.09780119194284,19.623112281306497,8.95125470419936,1.5925874668676376,-6.628224705161576,-21.373297827670136,-38.345501306466744,-49.48399231966136,-58.37753850462122,-73.91950686297406,-88.76748334024575,-82.72073404101351,-51.66258150627561,-14.954577292095218,10.199137153355156,25.580817812172125,39.071732878088426,48.749501632656276,49.12995843829922,44.97986480735241,45.56645242379611,49.57809202757055,49.78656942742544,46.415688548605644,42.56884731440415,36.67172726208455,27.09067777945293,14.791146680295094,3.2267110808103237,-5.208719663291675,-14.171034891443838,-28.103529470625492,-45.70856015672419,-63.16871428000884,-78.08481091939072,-84.4160940866398,-73.90371742292477,-47.85544160421185,-18.459485859143495,4.78247368783136,19.11592847406596,25.705692968325298,28.322177606872298,29.487613253443623,30.89756193179848,34.629450159029076,38.55997024588914,38.76934174140329,37.66409509124196,37.03456467789564,30.810815349442066,16.787253821842917,3.8605011732463748,-1.7574336164300899,-6.18107176050771,-16.2419405156804,-31.236743745687342,-48.117102535042974,-65.33062932714576,-77.8314652375496,-75.09693649396918,-52.39164602814107,-20.369152655887742,5.112085760303356,19.208793057765355,27.756967204866466,35.4063520479998,41.30014109504876,43.00990917741576,42.51917638390722,43.77553459756511,46.43616411289957,46.54653968325414,42.09426155160238,34.29590980308412,24.70772707442001,14.728167753977445,3.8356779894417756,-9.047615384916432,-23.38808603589202,-36.88054729146876,-48.5923608970274,-60.74242307881125,-74.76653904943633,-83.18430697962071,-73.72620883713606,-47.331120168450134,-17.449954499618602,6.050922981640205,20.95967560925547,28.420225967954806,31.240526827538567,33.177870246666146,37.12423784443014,40.94007334749963,74.0,122.0,86.0
-2.3000668348967475,-15.050951044741339,-22.873050248231507,-33.28356183996027,-48.3932062025885,-65.69171326625683,-80.6219949991697,-81.74314192780578,-61.27694776971799,-28.697603524093697,-1.6545560886018829,14.17131743540811,25.858359429497472,36.241272063099764,41.2011275027802,40.376095657990184,38.93093530534399,39.95061890610277,41.15939067515295,40.32823785195437,38.35341610358502,34.558524570871036,26.422019680979563,13.99572104615483,-0.20597635735610037,-14.283466221177804,-26.63103456719623,-37.64523767224215,-50.46970851540199,-65.99543565894977,-75.81867114612723,-65.91092494370406,-37.832326847028476,-10.065945689442474,7.474560590684516,20.955527539917867,33.027137907215156,36.45948728245669,30.882575122361285,25.615068773888854,27.22881999512321,33.90617422125344,38.675619835654516,35.615626643879324,26.611224238137094,17.615472793772543,9.140834414337409,-0.4694585570321848,-9.42860169729772,-15.827958517039523,-22.671822299911256,-35.247802494601686,-54.179088931333325,-71.53196425155278,-75.03566100388805,-60.020975209268,-33.860034244322705,-6.320493491306764,15.194191906286425,25.854803830351447,29.080331105046284,31.615999748013138,35.41052633713978,38.58932033124099,39.50185419606873,40.467786424255024,44.477543453465586,47.286074118052085,41.494902451218174,29.384649259786524,19.359328547149772,12.560490708819618,2.154347921446668,-13.628745759657498,-29.472709354249464,-44.02259395839634,-60.48886163729073,-78.18600117072715,-87.59739409762372,-78.23763288924656,-52.632440598317785,-24.20380270153348,-0.4816699842722641,19.199259635722463,33.573515113793185,39.89331406237604,39.80229367188458,39.27371868806381,42.85157718244019,47.03179534936605,46.630274953070455,42.97195069450315,37.358330202720374,27.982269494338016,16.255605377015275,6.527407677657669,-0.35359315588287793,-10.174043411244472,-26.49442789418826,-42.29427420745214,-51.79370644120628,-62.070749075429504,-79.15176789104608,-89.8888115631089,-75.75460148915437,-40.571590528692404,-6.234179849351155,15.213016038104293,29.533193832295087,42.58584456280013,49.85171838168318,47.91063581974287,44.457205895701,46.73275453148747,50.20382036782143,48.97881774342699,45.34651630951979,41.20019330571677,34.28071687238103,23.71381570427798,11.178618283119924,0.5195885747898428,-7.480927568079192,-17.618315205372753,-33.00551079662785,-50.87703902536114,-67.88990926403157,-81.20538965308444,-83.33169248600805,-67.53996422139856,-39.1296344427086,-10.902083956929253,9.861174279337222,21.664507097385474,26.713120773589818,28.748084811128372,29.76072386474532,31.71182549055208,35.97621595041558,39.03426576555042,38.359196272291356,37.596230363123276,36.12785214344035,27.321735410259876,12.446119642313716,1.5602215135483057,-2.7248755248004053,-8.416082436548026,-20.22375952123641,-36.00202317203951,-53.14940459797658,-69.83712716575754,-79.0639591106097,-70.40645248361876,-43.318690922451786,-11.835438225185614,10.2028930141742,21.932436013798466,30.008886305779203,37.42603794475589,42.245508848163155,42.88883758442821,42.609464822547295,44.54813386684757,46.90301687091058,45.70371485116888,40.11514855066373,31.634595791562614,21.841614891855567,11.740020699533584,0.33534964066758627,-13.125200207314416,-27.474417615584308,-40.39977287582512,-51.914679379819866,-64.70472909322024,-78.37908949652447,-82.61574334187154,-67.3358434755006,-38.44760326891438,-9.802094290618323,11.230439187373182,23.778069606032116,29.563470629179992,31.7064722258775,34.09570651732525,38.451124438343264,41.393492731955675,40.48087191487319,38.11499065761596,36.445546881587376,35.27673601439525,31.05663365784953,20.96748013953523,8.417481927810082,-1.8993399942920712,-11.84375134886436,-24.88393686575671,-39.545695235013326,-53.72417160336278,-68.21413738135456,-80.16037033495473,-79.05165134672234,-59.72842132523494,-30.731011546429105,-3.791092130022021,16.618233580377638,31.600047076187767,41.00424263464065,44.291956783440696,43.80659239715825,42.81322096615984,44.13748773350457,47.317194248597005,47.809354040536775,43.96686224391419,37.41172607706453,30.564976766154313,23.453683993280276,12.688870582593387,-2.39550499971276,-17.557376794459113,-29.79231001631275,-41.799653212946566,-56.456775030736914,-71.24935229316377,-77.04152688302585,-65.10428921895593,-39.86265632928604,-12.812894287082731,9.785961049222566,24.44429499665032,29.936924289169447,30.336532619154358,28.97962815461301,27.695517107826426,29.48749104089654,32.906921858074895,33.78663256877755,31.473625238495675,26.602596560531623,19.698412446486174,11.504621879666733,2.3116323275111803,-7.341728216857124,-18.254684754387057,-31.875267271222683,-49.54612124211938,-70.19743672392644,-84.14871242607721,74.0,122.0,86.0
36.514336858013486,39.06566076573282,39.58487527513189,41.31903946182308,45.80888090690509,46.63817137561288,38.262604519266254,26.0026044524225,17.30370186394662,10.212703056942235,-2.0533102119774655,-18.40007556150636,-33.69501362286853,-48.45821987842044,-65.74167643246295,-82.33086792541253,-87.04262869376282,-71.97920878673811,-44.14719001015958,-16.83290236923859,5.581558770902396,24.057625803160455,36.26017049328466,40.31839225480004,39.38621101737862,39.877742375380905,44.31649356197958,47.44026897017121,45.76365542971837,41.61902784462776,35.078887902879956,24.647707197514208,13.078584294901786,4.396849562506828,-2.5561339312561038,-14.356092205528585,-31.564829699615856,-45.60501785283104,-54.16799820920799,-66.49133176233363,-83.90655968801556,-88.7530607282592,-66.89014549947505,-29.637944856036583,1.268058253014431,19.641289809110877,33.47073326125217,45.60905343161541,50.08718239683211,46.56832729078444,44.51530833224795,48.00579006013733,50.36061359162037,47.982497990792126,44.271874925809655,39.58204268787285,31.57234706557797,20.150130312603153,7.7447425871402755,-1.9171847028991011,-9.946071693126104,-21.554145360437065,-38.112874692575005,-55.96076946365664,-72.34545390193222,-83.39543763788271,-80.65595723612867,-60.06363181788108,-30.474279038506896,-4.0019289692600735,14.167893782301782,23.636527706072954,27.486936425544947,29.0871745788716,30.10748230706514,32.76507745913754,37.217118367679376,39.13427668856459,37.98157285841952,37.52682383110873,34.54322961988196,23.248630111225058,8.500955618330117,-0.09859150276337282,-3.848781996686069,-11.212998674113548,-24.534969466246483,-40.86673192260194,-58.184292092071054,-73.75763727830618,-78.73183993102504,-64.06095109531917,-33.884046956894615,-4.191909304071149,14.377939532346424,24.389022509764178,32.23964962720263,39.230166997117024,42.797647039896184,42.6926027799381,42.92517515924571,45.37269483549816,47.04459134602206,44.47953093160434,37.897315342252,28.862669077759,18.970633385190542,8.637810646125564,-3.348906967631925,-17.289143762562713,-31.423327901493316,-43.77898964108719,-55.35683303812057,-68.82534261943577,-81.21235035432242,-80.28344590314424,-59.75528958574126,-29.643954259954008,-2.832582280612864,15.688765468841742,26.023489214471876,30.396097202324288,32.20358035565147,35.222942915252126,39.65240111153846,41.47984938434148,39.80729389961678,37.51950956742588,36.150063808947934,34.582075420094675,28.715131256336576,17.3205997164539,5.144460514129337,-4.585734961550909,-15.273046264312883,-29.094131117581036,-43.69811097732743,-57.84038896365,-72.3012149015701,-81.66735735640677,-75.17868720176358,-51.757883696851565,-22.365739463077823,2.76468396986797,21.453926068304042,34.95467215806547,42.53102514597726,44.387766906352965,43.43669973529027,42.867600941576946,45.042844038498814,47.90902282110723,47.09883021979987,42.251262677306755,35.37069819428173,28.66603328308042,20.85006998901078,8.657742087382635,-7.00415115668482,-21.363221773902122,-33.091137277415584,-45.748728820504645,-61.0025895200562,-74.37127238490449,-75.51725198307068,-58.64914780912405,-31.82931063730906,-5.6757349433056365,14.988395932137756,26.866760403643806,30.354612075368177,30.066589694237177,28.463268740935906,27.8283064500191,30.52418832970838,33.52165972096364,33.409294001784815,30.314749546090695,24.777551637560702,17.447532916101796,8.92958690525267,-0.43621971116517805,-10.289592818461003,-21.86161060007759,-36.50508164142228,-55.44346971033093,-75.56366768381191,-84.88659221831658,-72.72231277857384,-43.631445985832706,-12.40399618463626,10.440597882006058,23.59095306414897,30.89611127576973,35.78519156094884,38.86999856664064,40.764301286930234,42.647845210651326,43.974757592221266,43.58319904762343,41.365750146025256,37.11952703870504,30.537457670257016,22.838992393092308,16.557850958117193,10.771422432934225,-0.15088933471662785,-17.239144548037157,-35.732360350960924,-53.40633051701467,-71.34675720879311,-86.1053248795184,-86.03521329225306,-64.43927275368165,-32.66504812346708,-6.447159682493626,10.92894612128691,25.26285447353803,36.96012243161358,41.44282932687096,39.083758939902964,35.36364538027425,36.202528122517286,41.42441474275868,46.135563515387005,46.75495401330167,42.49339536158231,34.02436033816496,22.438669641960033,9.448180586746407,-1.8074211307309718,-11.318801762957191,-23.633475267954545,-40.62025911226544,-59.40859546678584,-77.64662879753394,-91.1080677012721,-89.6582875096841,-67.80174108972382,-35.732032884001356,-8.104061270732386,12.057412146219281,28.345644276150733,39.14293116430411,42.011764869452854,40.04693499808849,38.05316972747714,38.330870275807456,39.8675693510597,41.3611042958033,74.0,122.0,86.0
-43.30952674036077,-60.927720327634916,-76.40029390892451,-84.40814521646551,-76.38355956048106,-51.816553764637526,-22.140860034085076,2.1827538782290103,17.719908077325687,25.140265973642002,28.0895187743435,29.36752635216611,30.601731073561925,34.01342267651456,38.21319075381223,38.93116338662541,37.73024551104974,37.27284773340446,32.17305654261321,18.845526341627313,5.162314998610865,-1.295089652804238,-5.334364828662149,-14.544054668388362,-29.082318327869046,-45.81310612692755,-63.12504704502558,-76.80471126834415,-76.66016450339005,-56.325719568714256,-24.536946745098543,2.421277938620291,17.81586988099493,26.709227220601036,34.426628640421946,40.73074984466872,43.00565195743638,42.543211214272965,43.4634571468079,46.136909636792296,46.798357992489976,42.91648998534085,35.473460007406324,26.026012686169498,16.07816137466944,5.389283645801352,-7.211934298147332,-21.472563088268608,-35.20039140162537,-47.077727221957105,-58.99053971207146,-72.94042926803043,-82.89218948051047,-76.17948674709682,-51.364342236832336,-21.18201413284539,3.4165766680641396,19.45002197057154,27.76581251514126,31.006834894524417,32.82749001866096,36.505998288788525,40.60808389619591,41.242041697906366,39.10029144230144,37.01258120122958,35.8666624312004,33.50772757980825,25.86165626934298,13.618405641449339,2.137686664684929,-7.368949442679572,-19.002543666470494,-33.358330114184575,-47.78550280035647,-62.03274928636796,-76.01647169211759,-81.7720528605423,-69.80006903801277,-43.300074709502425,-14.420483006891388,8.759547801120007,25.8810615947037,37.805456106217264,43.55731069449366,44.25240040975445,43.09738342959205,43.18626660971981,46.027808630389565,48.1546309968241,46.04168373063493,40.35826542161133,33.37378254671003,26.692594550354524,17.848035189179637,4.302242703323046,-11.473931352764179,-24.90844332089377,-36.48558811500514,-49.954917981539026,-65.43870858424032,-76.44867359990322,-72.37077490178743,-51.35428652742792,-23.90665054298817,1.0071017709393506,19.431743916543144,28.549564709421002,30.485553315306774,29.68581787283275,28.015260460097327,28.291190613103666,31.584564924552677,33.84513355094405,32.786184425616156,28.95001363757189,22.802750144111602,15.101955367840587,6.277513783443212,-3.2067015624930764,-13.385955702210625,-25.71942308064749,-41.51885097865205,-61.512208579007414,-80.02743560844782,-83.71016421152564,-65.46032213112476,-34.187050576454574,-4.727699761762504,15.112086628087596,26.099763367091793,32.48794668156812,36.865490786737524,39.47308170070244,41.29483075790492,43.15292473168074,44.05943545142551,43.12711854367909,40.36922850786595,35.447279995414405,28.317364465059093,20.796336287594528,15.053997667148744,8.356086845385937,-4.626202801129046,-22.641366015340072,-40.88570386703726,-58.551653775752946,-76.33471895450955,-88.18855424744764,-81.83293387799287,-55.482613040364136,-24.08428434518214,-0.727728967055154,15.167262962082416,29.132875493463125,39.10964868142042,41.29123749015472,37.83311929198347,34.996583366506975,37.4484696580642,43.05452953071958,46.81342853263993,46.012201231657414,40.42877542231254,30.95364676294211,18.69655326253462,5.909523899791658,-4.5818659920300595,-14.38164880686882,-28.14775769298192,-46.00284082996996,-64.8164976944291,-82.3881209559674,-92.70552552923675,-85.28571543650072,-58.83116736375898,-26.886351882758497,-1.6895693065451414,17.10625456106705,32.21911259169307,40.74777326980061,41.71047668431935,39.302067714568906,37.898964531411124,38.72587841590246,40.335917572876475,41.643993846982596,40.94682094027322,36.1837629576797,28.383258551937484,19.502295130959553,9.906967080139687,-1.5312946907035998,-16.193770159390944,-31.175940706367022,-43.05443132524188,-54.643789051017805,-67.67909954902923,-75.87788309499697,-68.74921067510691,-43.005117984564556,-11.654946520516129,9.457113178645368,19.179316046594433,26.824889848053633,36.90141359223807,44.235180974064846,43.99809573862672,42.24989548032999,44.68264841473041,46.588656569939104,45.15305574035053,41.94375032975726,35.63263769074874,26.017430336308614,15.31006529480193,3.2089991775206466,-10.110539643578758,-22.907558550214453,-33.905055844889176,-44.92239163042649,-60.494795941651596,-78.63249977487878,-90.20532025707087,-84.99104354482996,-60.49295746021531,-28.94032191178286,-4.6973693462735735,11.622289349459537,25.770819198464928,35.43577217295209,37.943961075927305,38.316450946636685,40.95799100897489,44.90391563770641,47.86490871974039,47.13421898429659,43.475458341051144,38.631254740615134,29.817771329402937,16.73215528320672,3.387776272193169,-8.882477526203779,-20.291604913906877,-31.011793427805934,-42.69788085077101,-58.054288535586906,-76.51932050317853,-89.791816319884,74.0,122.0,86.0
41.230777627831685,40.7597355214595,38.414078383235015,36.60339508590056,35.50313076938956,31.95286628612511,22.58496495247003,10.013155039589225,-0.654996774964498,-10.366911135011783,-22.983918804867447,-37.60633602482339,-51.846137488751765,-66.27124621605523,-79.06668048392386,-80.2907455197733,-63.14532254276616,-34.67969974182585,-7.011110938727519,14.245133931017437,29.895610735737733,40.12056009682388,44.14607307257071,43.967455846627914,42.864013987219174,43.780396279109176,46.95124192519605,48.009602991940326,44.68245808805012,38.353689311108674,31.440312479224087,24.53786892742378,14.415369994404996,-0.2608349918293384,-15.703868927955346,-28.272655347759382,-40.067601059981556,-54.37260688318809,-69.54260586351333,-77.20160668188494,-67.70714068557449,-43.54908991437674,-16.23666309390328,7.155982112244331,23.055165725456366,29.614592442692473,30.418516452379425,29.215863593955937,27.73845995248439,29.055699408018583,32.535653299554745,33.8709714290234,31.93737094533813,27.386582681050708,20.703011309142113,12.661608531678572,3.571100194991032,-6.020024103535626,-16.669544120709283,-29.859837287278367,-46.92774363901246,-67.52552706868667,-83.20853535078027,-80.57758806032687,-57.07237666436785,-24.952494961764735,2.086146349148839,19.022919185065966,28.238618321054258,33.93234626937861,37.78679251243036,40.01124705172983,41.84460611643249,43.57694961462122,43.98110717439165,42.52388896346565,39.192268856907276,33.57538841447925,26.05703755334254,18.940383695332038,13.498620115768162,5.356569735365243,-9.548119160994775,-28.024959491840356,-45.97546247871977,-63.7561364952495,-80.88851016098613,-88.67534050261052,-75.82201448938206,-46.129186620568866,-16.281547102385872,4.329414487242506,19.31958095895994,32.67877667497423,40.559229630827694,40.64212811471142,36.641464180522306,35.126742651525404,38.97584573518929,44.510314289778364,47.09321202448416,44.8644573939414,38.03890335506366,27.64388056467801,14.899018614218429,2.597425772161644,-7.2686414469660265,-17.818379035518202,-33.02667582703968,-51.44691985060429,-70.14802933692846,-86.5717433002499,-92.75640368903349,-79.20129023452613,-49.417625817481856,-18.71045272910371,4.179656207647481,21.903751729939035,35.52275306219967,41.67829074609764,41.131243225305965,38.66322648538696,37.95251059213679,39.17667896837252,40.78505793239252,41.76777604124487,40.0117473566177,34.129840925923205,25.885591317820808,16.820422288584066,6.884122898970215,-5.4581878063538305,-20.72683902498781,-34.91314299063292,-46.2264345586871,-58.390871091050705,-70.99300748160142,-75.81210874559717,-62.93568724038325,-33.669569138384475,-4.112870202656555,13.079701350641505,21.211750969925156,29.5613861675243,39.66890871607945,44.87960529582107,43.205059980859325,42.591073916802664,45.5685064786206,46.44364908636948,44.40027195332226,40.53750490557289,33.084347255735985,22.99635023217084,12.002031106947168,-0.5870482662448231,-13.935409051635695,-26.28477717957075,-36.87541568284155,-48.843747184604965,-65.8039280699826,-83.1232742851391,-90.79364324543518,-79.60633183702265,-51.31681702831935,-20.849800476762873,0.5158700113677601,15.85919376748959,29.279631071432092,36.788489899015296,37.96517958647455,38.82024548695531,42.06033971424874,45.98232037855513,48.109093355430616,46.2246450744963,42.26245788183654,36.63056425903064,26.31748683325092,12.762036681396784,-0.2471920672599981,-12.274916669351622,-23.420471951575617,-34.17246379094353,-46.66450433156329,-63.27515579397162,-81.46009866093554,-90.7006831000512,-78.78485448624035,-47.66055418972104,-14.7633147314457,7.924119046408732,23.419238524622415,36.8638335822185,46.86129100001358,50.47089616346484,49.80268681441517,50.61966014767316,53.3620543585894,53.32881743144115,50.04792469683379,46.91068751916625,43.041147347774334,33.858343514764776,20.086468730759016,7.325370910521684,-2.57069765232319,-13.069703702132871,-26.12508681321727,-40.085071146886385,-55.89760898650895,-75.0914831449406,-92.13949027645025,-95.82305112837422,-79.14488271907877,-48.82370913869321,-19.027635106761775,2.989757730651872,20.125423971560984,34.27395944634497,41.35243594405041,39.64676485497884,36.06645700694905,38.437043567342805,44.35405747272403,45.93911508538087,41.891379527978216,37.63513615234484,34.71587611626741,28.255299679109505,16.073375566950965,2.8363057535837854,-8.331010294255734,-18.97958676789555,-29.342543140961652,-39.098075494797904,-50.71105359855554,-65.48991649180896,-77.62843625519666,-76.7322697112449,-58.32856067593458,-30.75136878179891,-6.936114884274149,9.554873963411827,23.99414663934696,36.68072669003536,42.81261916251493,42.80156467340849,41.640755961817085,41.32603552846749,74.0,122.0,86.0
-84.77643168054973,-75.58868466387837,-47.9620275655102,-16.20958187961258,8.006807580629529,22.27853459889243,30.105699441858068,35.23459971874603,38.558204353725394,40.52588685520613,42.3986716621492,43.88231069549063,43.74385337419077,41.768110476850794,37.82067987422081,31.52869808338257,23.831933074226505,17.274590214785853,11.717581758771518,1.7281378440993453,-14.771153939910322,-33.324374325521,-51.05418764382067,-68.97014042025552,-84.69735549542007,-87.31834467026863,-68.30212993840713,-36.82843621924597,-9.350579213675061,8.917254247082147,23.411414364912744,35.74503226277378,41.31488606464611,39.62962925221687,35.68419909517431,35.75711216992965,40.64561144946932,45.698216496817174,46.95803957182442,43.32735000689462,35.354091016461744,24.12202370793294,11.141193767824728,-0.46976689175407,-10.002015988030957,-21.69454846128906,-38.17932601686738,-56.900675648309765,-75.33486989460573,-89.92506003933633,-91.05909280911692,-71.6653840235921,-39.9850330634671,-11.282216334498886,9.643245984528455,26.400060768057486,38.163566685490785,42.02036477816737,40.40145987139832,38.19783208093005,38.18023648290131,39.64882830683545,41.19468632358377,41.660475606722436,38.70229345944171,31.885809430979553,23.328851515055426,14.07672718820946,3.65945160229781,-9.67383031557849,-25.15174087417585,-38.35673143450478,-49.507041129501715,-62.23110163970134,-73.67590772097209,-74.19155527428497,-55.63175578909089,-24.33977496431032,2.2699337562717132,15.906312932761288,23.32413094963337,32.511955981643474,41.99188695583716,44.85751777240769,42.55202454684691,43.307628069959925,46.220656686310285,46.04374331083171,43.53061256843647,38.79993995843671,30.31020052156389,19.927788442694016,8.540536985810512,-4.4495807333822945,-17.675154053416616,-29.48361487562702,-39.946274846543446,-53.2553120472452,-71.17177978829433,-86.81296191657732,-89.73075345727527,-72.68636934166396,-41.98851992695718,-13.640468763824003,5.225688719173788,20.01598843669927,32.256307467018345,37.55751258220147,37.993849706748904,39.55600634353539,43.21668076482412,46.920200033528076,47.97430469928232,45.15842171055508,40.944967806039344,34.19721994057352,22.52512455133077,8.874310049563842,-3.80443866092346,-15.591237253556395,-26.504435960703702,-37.47048601130606,-51.01041860063579,-68.68388855535497,-85.68026452796776,-89.73827767686203,-71.15251221418377,-37.50739496138778,-7.072484296264067,12.811444528491263,27.462882374766792,40.27673884936885,48.60002315529727,50.45830064095096,49.70081269303481,51.406837247481725,53.79659611337606,52.56677413744051,49.02933245507693,46.07830765639486,41.059947659166085,30.12108051398036,16.08322518473438,4.265878095833975,-5.359322332368495,-16.630750329766308,-30.114963946553768,-44.323249518236814,-61.177754095802925,-80.68046080862543,-95.08498021274505,-93.07674165214807,-71.16952802555029,-39.60951034780753,-11.86892884558722,8.230870496188274,24.625779593800907,37.2636835721432,41.61332539982402,38.345451515053874,36.0197079092801,40.14572417369956,45.50804123640669,45.1576379075072,40.45189849615773,36.80872131706067,33.446552208843514,25.211534662061762,12.095478515329797,-0.5676249029422488,-11.39668393713205,-22.04836661473066,-32.17156913888855,-42.11091499716408,-54.75817284410286,-69.71154316018918,-79.12406206850589,-73.07805827378174,-50.683620899525344,-23.063669033492737,-1.6001380119872275,13.737445582167739,28.055344752998806,39.26132869423052,43.23548232186629,42.39790507010405,41.47371471209649,41.46660271442231,44.408870851856776,50.53865365462785,51.66387433209407,43.566458918908864,32.03328584110303,20.920015318944085,10.159696886941406,0.653097281618191,-7.937718104793461,-17.644867883188365,-29.61568106884463,-46.515655216848074,-68.01218728538171,-84.47337660717892,-83.83999687099791,-63.44940207866216,-33.49972039252174,-7.9989863813625846,7.957266917817526,18.468178937443458,26.520474939903373,29.949007337550583,28.376614629454895,28.222386297004952,33.46964691567767,39.36365859337448,40.57567050212459,37.343475803828206,31.88028633116445,25.882580801076486,19.432315173613098,11.257575632744384,0.21654138756980099,-12.661776756467592,-24.247616115341565,-34.57721440365228,-48.24763346083569,-66.0694028654937,-79.84505400880607,-77.32944770177176,-53.93090737180315,-21.41076860804679,4.954537165095095,21.443038371620577,31.13639871102998,36.39877546636028,38.90027772516899,42.923126605239226,47.989916644916214,49.329028893668294,49.26793849055786,49.53527986787232,43.98004166442931,31.832558457949947,22.150122968163878,17.012439732942685,7.831594721400221,-8.754424695458878,-26.207698912537122,-39.870978019488,-51.1330349752761,-64.28905187722211,74.0,122.0,86.0
41.529263789070264,41.25209916942674,37.047866408636615,29.51046862404292,20.72112792161898,11.248868745305037,0.17498370650057582,-14.107425684741374,-29.344305258463713,-41.59550131737909,-52.97516857301914,-66.0113206428643,-75.4472665215549,-70.8673765389539,-47.174009002226086,-15.476461097652479,7.451654232569786,18.213546106119356,25.65616295709907,35.53584728252974,43.69190114277053,44.33843942395666,42.24375935253487,44.237364556502655,46.550791923740384,45.46409072356481,42.49605637947038,36.70968863562861,27.392188531822256,16.790411763808933,4.923310922666902,-8.328961130382304,-21.291708871697487,-32.53203700422564,-43.26749110064895,-58.12501243728066,-76.3649976083328,-89.43209720750507,-86.898305570441,-64.54647942962028,-32.92898518488178,-7.329763213314566,9.64054856239326,24.016811354024,34.58965792375241,37.888859120243445,38.165421899751244,40.4823560513971,44.37929894316607,47.63439609624106,47.472567677961,44.01651583255634,39.42807910819214,31.30206573501579,18.572665198421777,5.094689666255084,-7.295044763584531,-18.826518885236894,-29.58183764365565,-40.98355005748577,-55.74750278198271,-74.09268746946537,-88.81409531745253,-86.75168093722624,-62.17517921395942,-27.71743000526935,-0.36040638459195534,17.288750237997807,31.402034687169984,43.30849528655823,49.751239384870736,50.21455014098001,49.863722354558114,52.271995128696574,53.877245999395655,51.599084219293765,48.10861274135132,45.085684939001666,38.526867076167306,26.10578228423579,12.310051517761176,1.4206265607563058,-8.316726396881867,-20.39622996582158,-34.1281579976783,-48.79503816978981,-66.73906447050908,-85.8739156668406,-96.60659246561741,-88.56266100615689,-62.36617849326681,-30.79025876958919,-5.410995800370621,13.203268590732211,28.852213331705215,39.51987908379747,41.17268201311329,37.145120509595046,36.59994598307529,41.969156507240285,46.11602273791767,43.97933157620515,39.156327933949655,36.04108015242293,31.728997095662184,21.71138849721255,8.196693325084702,-3.795545781762257,-14.4706413803758,-25.06802201751643,-34.95796357143492,-45.37440117485562,-59.054591642177236,-73.4901621845325,-79.26429569771469,-67.96615418705049,-42.600021978353766,-15.982932552569853,3.1833595559088996,17.90493170003069,31.87177046008522,41.18057314581886,43.23920327046846,42.028726775197626,41.3642361342861,41.856561591643775,46.09119718673652,51.799036489527694,50.11801439760942,40.29266109615533,28.763744964336198,17.766526137050633,7.231225444034733,-1.8205027516279506,-10.578080565437771,-20.78853162287145,-33.8625880339486,-52.50790893612372,-73.88517635180816,-86.42127219994762,-79.73695054019181,-55.10737256162549,-25.203762060430098,-2.5008785137633804,11.322936543094956,21.064281954490117,28.136438766088578,29.813798960567336,27.855654019150286,29.251480822821495,35.43747054559522,40.273671209824855,40.002067741478875,35.89948706302963,30.162139333801424,24.106245233961626,17.317535186459764,8.37355076702109,-3.4406235968483263,-16.25767869980572,-27.19590069837867,-37.990713082161115,-53.16943268790975,-71.01157012687693,-81.25932315972425,-72.49983356781486,-44.6486559072835,-12.769910154527572,10.647069857217625,24.779527889965088,33.07743710465916,37.24466071509199,39.74889780302445,44.52903983922779,48.822460074463955,49.214995704511985,49.495694410911526,48.80989409784832,40.82901040338452,28.405141480941516,20.4898512539187,15.159013715097645,3.61793162319248,-14.04450372241736,-30.575600090257367,-43.2026155500799,-54.5505919708879,-68.8931588804145,-85.87380292971197,-94.68645762565986,-83.11818364589861,-53.81279096489976,-21.78892293340524,1.8880232644043948,19.215653452589535,33.809637395772384,42.114238284634325,44.020258333239916,45.11620671683339,47.123257639238034,48.862502048044306,50.07432106831607,49.40985467894314,44.84819201956983,37.22422061309114,27.739377980867626,16.569902696694413,6.089017651154163,-1.9368151128726379,-9.379732533807582,-20.484943377081912,-37.18777360500371,-56.270807197477914,-74.1488453828713,-87.34428358428615,-87.96023627142915,-69.27356062680533,-36.21904516239568,-4.23654938020096,15.820104315226107,28.42864483663381,39.418164575347966,46.070561542632355,46.829276654133274,45.290127763491235,45.939817921110944,48.206040515850574,48.73930092674335,46.918623248835985,43.270027701493824,37.3537347874059,28.610987482425056,16.2547808844922,0.19277035736976605,-16.638373342251764,-30.441342803146014,-43.39130658881617,-61.214953891902155,-81.16948859669772,-90.75374859556928,-80.15609146837534,-52.850196660120986,-22.345432010492324,-0.06478057513891454,14.102687465190652,26.685035390129638,36.59399659174984,37.81089663965869,33.42430157908285,32.22117153552473,74.0,122.0,86.0
