-20.982056500337592,-444.2178099896926,-553.0844102016245,-455.8819262986473,-366.11347886135707,-321.4042931162028,-276.58022563935475,-222.26924639866985,-177.3656936641672,-149.5848082861317,-130.6079746965922,-112.88644082257017,-97.41909688939432,-84.9694341224788,-69.8608672818236,-48.601272307987635,-26.13167996948988,-9.499130509940219,0.5634004385403342,6.329904355168486,8.628080768715465,8.168811777514996,7.521599971333522,7.09833459249326,4.091821695557398,-2.617216926229911,-12.23289625498667,-23.033697123353868,-24.96770158154826,-4.711981254322407,34.8935329271671,75.03117712981873,100.81531508316668,111.82050713728218,114.27109412914581,111.95325763119021,105.910799035057,97.8180386025731,89.08680514551567,79.98841591496253,72.18164714902987,67.93417283814917,63.14914033640798,52.68655943023584,38.88970418923276,22.27892346593934,2.243016973977994,-16.80522055865472,-31.378703689343155,-43.743431897328406,-58.2941935839702,-76.02260613484162,-91.75383280219347,-93.85530866112053,-74.53725619865334,-40.63011565871761,-6.236490049978539,18.35552266767986,31.508605953540695,37.364059299066675,39.62985071140295,37.8298168630591,31.79009541417889,25.12049470244208,20.81134348478756,18.862717598917353,16.626872613302424,13.87369195458264,12.012020206442768,6.21280084692595,-8.922991514858458,-26.463214733167202,-37.1234357517977,-44.95330169826295,-56.75943731119168,-71.7065195918481,-87.71036419989622,-102.57427811578607,-105.51467914336703,-84.44570505334269,-43.77909140739055,-2.4704026914649897,26.680426112593018,43.97208147791112,51.533911936421845,53.18925284427003,54.999356243682016,56.65537869711123,53.19025510101085,46.261746818771265,42.046448247891874,41.910303425462594,43.80864709934347,43.671821264625244,36.89239344271451,22.96049979698259,5.805381778082023,-10.816264428350772,-24.96246181327554,-36.512668614336306,-48.003127566149814,-63.50742098719451,-83.00887593342676,-98.26983357736367,-95.33909159653207,-67.83653629200224,-25.407918748234604,14.221104988786253,38.766288508563626,50.01105854186849,58.39441876064848,65.34553709604582,63.88834073193307,55.366201641029775,47.699089267073525,43.3704633399166,41.290924943228035,42.56786378437986,44.99565769080805,41.88472503620441,29.637326558653868,12.569465298684142,-1.4230404436340018,-11.89076604123552,-23.602608940004753,-36.3685739800228,-47.98415433997425,-58.53117556056535,-70.41728365901304,-87.234917003231,-104.43427608979461,-105.28850252197132,-78.87932826556695,-37.22897533504026,-1.7052752367071178,20.80394187690954,34.528820820350155,44.42366294582296,54.0029302593761,62.01288274412842,62.54953154077134,54.108597591581514,44.267815233889586,41.97209661672608,45.405275935405285,47.68116101851376,46.64106888006867,41.062496134378584,30.230396448883674,17.994404272205667,6.882967503425928,-5.253669213289124,-18.824425513656283,-31.98729245353631,-45.54583445302219,-58.59793460132226,-67.91749807074598,-74.9330712059181,-84.04807419078882,-92.45262705468767,-88.6112257562068,-65.58121251659013,-28.973281562487205,7.625948646029807,31.233669196831933,41.66550323252025,48.719388304293474,55.6791306638545,56.59462437918185,49.92032920164486,43.69162736469338,42.58682334856832,43.35190079948067,43.72453698541216,43.1225267527378,39.61081086173918,31.45491970082399,20.80454278224345,12.314281357185877,3.566228519886562,-10.286260322104365,-24.477526443939823,-33.74599094144325,-41.92047718383233,-53.146156528913785,-65.96373225450607,-78.30505216701422,-87.68560016873133,-85.41039930781002,-62.52194405248488,-25.996732265064818,6.42960634018004,27.309270156601368,39.80331648193641,46.46906108555511,48.530104000523984,47.85908656859881,45.00832507003954,41.22261114991121,39.458874714885376,42.032492614306726,46.58420687810916,48.4517941716043,46.058856887848826,41.26497863324323,34.7352906926044,22.48655400712815,3.6756916130566717,-15.503754931426021,-31.49054445657351,-46.39880529415311,-61.58845051643101,-75.76713217222887,-88.42308685300415,-96.82910254960319,-90.47459187200205,-64.33203573142104,-28.67692374768973,1.9197211622469963,22.06439274561884,35.10182888477,43.23931104866166,46.541761270301336,45.13709285179111,40.37162782036312,36.40580353074442,35.30810964905103,36.33857787111428,39.96686550082065,41.35370052495235,32.60906134319022,16.96010704315623,3.839149553811823,-3.5217155480785416,-10.298997564597384,-23.37534133956459,-38.90355705953522,-49.515793844116004,-57.92574582141889,-70.63409087564705,-83.17735761648264,-80.4029347973489,-55.258586765945495,-17.928472263397065,14.499581507368468,32.784919178266684,40.837497790376005,46.72038616137552,52.852201548851006,55.256331743441365,65.0,119.0,75.0
29.748539202060204,23.566275086389645,20.101266887976045,18.350663508606065,15.776668336393758,13.305721818114113,11.111875218047608,2.7625428788563666,-14.322850685736874,-30.328189541489827,-39.25816937359837,-47.86460570443025,-60.90205888189115,-76.24089860981236,-92.396635316669,-105.3332999068127,-102.10911467060714,-73.9942847500468,-31.049039714859706,7.348479383180687,32.76221960096016,47.080621929335265,52.325874226580765,53.52823481355066,55.72871846707463,56.29930591608484,51.24439652780582,44.59136992498586,41.64872879842389,42.38230492522084,44.21153722828586,42.52924940680944,33.47543432026073,18.13306114155738,0.8317337455309284,-15.203263921998772,-28.512234361022998,-39.651965479534944,-51.940020911954996,-68.92500655094973,-88.43809800197519,-99.85768442063598,-89.77734125037377,-56.360989243245,-12.91816584063641,23.07839234370489,42.94031426089102,52.367448067986516,60.85599791822916,65.97880177938937,61.79821058004522,52.79747425325497,46.17302043725124,42.51965554623978,41.28227295424813,43.41854453539916,44.94909152467796,39.25342473106924,24.82198229489265,7.982038160456799,-4.58012593443876,-15.033512522807229,-27.310646724330546,-39.88339703528379,-51.08456524743206,-61.648600315796244,-74.7060282641989,-92.74885364142504,-107.18050686539095,-100.38298712561006,-67.37864906739426,-25.668285980029115,6.023445339046433,25.43446586882779,37.5855253863343,47.14816182860802,56.712763267016655,63.16462505973858,60.86226824242498,50.903032499946136,42.668512582201586,42.71824548769696,46.373545767546666,47.73553276714722,45.595319124255404,38.377062678003306,26.623002076867017,14.711148851904472,3.594011558538262,-9.129284749329518,-22.679196894639716,-35.81757258975736,-49.52078796986542,-61.750292889203436,-69.95311288984594,-77.2649285016927,-86.96455653011905,-93.13805197976231,-83.89333955327723,-55.90183665972635,-17.70113385845143,16.106550713868025,35.215416420642896,43.66641983889822,50.9167085032634,56.84538883581384,55.205388675197995,47.669066735733026,42.915898026150366,42.78988936946902,43.51508466072869,43.70757748407531,42.51879480052119,37.73686289747772,28.40525260589693,18.039075319338448,10.133389994620801,0.07371652667443457,-14.737027874863657,-27.635699400746326,-35.935349204651175,-44.829465653697305,-56.81906286579124,-69.62306344708195,-81.55783319306164,-88.76795380749529,-80.99700687989993,-52.58963992834182,-15.56670965643133,13.594726233898475,31.599160735705553,42.2912342468698,47.44701420560493,48.56920536358612,47.24052547103693,43.90902774893789,40.34725680550429,39.75801243282526,43.366487685046074,47.549459861522806,48.16267903764107,44.80556261678278,39.668946790909416,31.980769057683506,17.528567424958922,-2.1263637342701953,-20.414728292258374,-35.78567078019704,-50.7866540433055,-65.85579868120982,-79.56609014539201,-91.64134572407421,-97.01232052203304,-84.7519516878744,-54.29994922730414,-18.83354488362595,8.736556181567945,26.390527541504547,37.94393595160516,44.68853041440446,46.60792112813525,43.96049567717118,38.953734811078775,35.83162590891883,35.37329770957848,37.15675775108434,41.02525952106351,40.00215832097565,28.348067482491736,12.603225181630362,1.1987616355504993,-5.143021095077831,-13.347511228671145,-28.04376000823302,-42.57169339790724,-51.81791067963659,-61.05248635963564,-74.86369738453202,-84.59481790014964,-75.26612291192147,-44.96981133969,-7.386496990639039,21.27156812531824,35.774871972099824,42.49978964289709,48.56341197426324,54.15539242782237,54.73234996553755,49.68290295172879,43.29047296406981,39.338225674488434,39.43424865638569,41.721192053450395,42.175096225432114,36.077319379190115,22.929145464017104,9.347744423744432,-1.4924003886306758,-11.645937404953461,-22.73810375958959,-34.793429021371246,-47.112708569426204,-59.72518581135954,-71.83968420165586,-83.44822382704281,-91.62298273869847,-85.56829114846609,-59.00308973061607,-22.878264561973545,6.580730865399426,25.022951675156285,37.336667821076844,46.437672798344565,51.06909548065372,49.88238381839101,44.6117981815528,37.829962725544206,32.25477217974904,30.92558429820094,33.09283748139046,34.2217170365423,31.613380281369817,25.975323637861294,19.412229884139766,13.413325479854603,5.847865080856338,-5.752788169487175,-18.61024609762938,-28.5577988029124,-36.76688398980048,-44.8690956316159,-51.69562016560687,-61.5912486617318,-76.31336424301367,-80.5750294688769,-60.19374781189405,-22.487710923261908,11.385113892463123,27.86352684361935,32.173931284008695,36.9972364392486,45.30976680270852,48.22333844117804,41.391685084761605,32.82082240736797,30.645516443836826,32.13016336357376,30.598134755607155,27.598523885795494,26.17557042504162,65.0,119.0,75.0
-31.03545041398007,-43.26719373990838,-54.117413706452595,-64.96528313504464,-79.49420344243713,-98.04285200191212,-108.06280637184057,-93.10976424225721,-55.14609485907384,-15.086658923727708,12.692231691046914,29.466416779394837,40.433748338320655,49.91614376476296,59.18773753911462,63.53372049147881,58.469820170786136,47.859559589051074,41.85773137772346,43.76535085484306,47.10520259903156,47.513432042990246,44.11102011159589,35.27461283883113,23.0355250161558,11.52417163046632,0.1367856317048612,-13.077576906348366,-26.471309105959428,-39.72606610014614,-53.38196952654548,-64.5136840515645,-71.91177559547579,-79.8651288383694,-89.64147932559561,-92.46433791289215,-77.5299364793896,-45.3270764553285,-6.818822663831872,23.24491078213233,38.266460437939344,45.64917189124191,53.055187255237385,57.31224110634094,53.26132860598418,45.71693636628554,42.56718606127572,43.0342094486639,43.633870680376646,43.58775046999719,41.60861197243662,35.44923431768846,25.256572395115274,15.5591254725285,7.756193823461077,-3.9034931624582887,-18.987310277554485,-30.342863791132203,-38.20422719229854,-48.036609798730154,-60.54277517405823,-73.2226174536386,-84.4735035777228,-88.57699909124548,-74.71590105977045,-41.90328548247316,-5.909002467335986,19.78337876107637,35.30679060501402,44.314067340856916,48.084501185459025,48.41845959179232,46.4410877230177,42.77865293907295,39.73234490483407,40.44720932448966,44.75074462750707,48.18830332776991,47.51952993575958,43.426427562927586,37.896851089064434,28.61148286060362,12.092052845035814,-7.766242905864045,-25.051946758757236,-40.071229134878166,-55.19665219519876,-69.98943893745205,-83.26147306242488,-94.36415644907306,-95.6378985159089,-77.40603478870314,-43.85561179554242,-9.735888126837366,14.6851782911669,30.236755538506067,40.39018388346425,45.7332413020151,46.28218854255971,42.56244582704723,37.727865672465974,35.48787212101472,35.60671808386083,38.21516228955105,41.6735878434935,37.65254066835484,23.742650507211714,8.664537304568508,-0.9611920246723696,-6.928506032415047,-17.04240005013695,-32.67946317816662,-45.711563178398634,-54.12081080233535,-64.6666252709545,-78.80988875370426,-84.31376928995287,-68.26851774820123,-34.05448217256587,2.3262537555527443,26.776473070941954,38.11510888234677,44.160016290812536,50.40618291966657,55.00391428190778,53.70094025383745,47.769730970556296,41.77712174699006,38.96154489667404,40.02981565566358,42.24269803190522,41.27015676620968,32.78285836342403,18.749826908863295,5.99505445210172,-4.40069185394596,-14.714881756290785,-26.168486432692234,-38.32337828120904,-50.7472146351115,-63.30584347238845,-75.23693673479283,-86.51919827322148,-91.87982968477819,-79.8383529319167,-48.7327851870542,-13.198445864210832,12.883918980921315,28.98402312838248,40.297809416012285,48.33802168541041,51.30402800216163,48.65104425301493,42.70987664996998,35.94210529425905,31.356731542110875,31.369504671127775,33.7184421233534,33.869456258934406,30.215632805742793,24.06756205750814,17.63638509733573,11.559865155248485,2.900445624251237,-9.581316979392197,-21.839635399309813,-30.96065370090151,-39.1708486000594,-46.940687314368155,-53.9042365905426,-65.72600919281814,-79.54002005012038,-77.33677873279599,-50.23536483177874,-11.378746373565432,18.03326467484155,29.771155869343474,33.089938990693256,39.30852246110991,47.146270006804365,47.07687159412444,38.59012328800877,31.431224046524065,31.063370596833,32.11609041183309,29.629505066637815,27.107343378612722,25.524051393812922,20.264339114210642,11.198019380044553,1.604205654018995,-6.294323473094985,-12.880452362059849,-20.101909933743773,-28.764607338263755,-38.33501655056155,-48.471001692869635,-59.320880692791725,-67.96396501467053,-66.20464146208057,-47.64542580329859,-17.054245382221588,12.304058187476981,29.366355803159895,33.35463765137951,32.28566151746915,33.13018426884272,35.09644631818619,34.517186967913815,31.26115420499542,26.686602212080405,23.836404449169812,25.472711639558554,28.829602024617504,26.497590039749127,15.747575691859646,3.344619746967306,-5.409254524894583,-12.203382881506057,-19.78434497058515,-29.67380471327481,-40.392915467911955,-48.888871415270486,-56.555781370057694,-64.0802676962568,-62.28258436336246,-42.21571480209908,-11.354224026887444,13.777993965133424,25.83851283611472,30.63406137766827,35.858004461346866,42.49535960693482,44.57557401557654,37.915233469395965,28.47880539098375,25.098856153377834,26.99893058507116,27.745377327183228,24.117365603993424,17.317372689667877,11.52740755439445,8.409748680215989,2.9814084731533765,-7.530872025619148,-19.612280019621014,-31.313033354469425,-42.835584406568955,-52.77498297879919,-60.76361879371706,65.0,119.0,75.0
-86.84668668766967,-86.815762161896,-66.71261385378666,-30.977896607319405,2.7766628568353804,25.109141872472552,38.496817924733435,45.88726941294224,48.4434489354306,48.07977864749478,45.48824890331115,41.68849974134088,39.4565785183031,41.47209859589856,46.04880007704202,48.457310963960936,46.575786722913705,41.96466661702363,35.828082062147104,24.571858273156035,6.361057524557049,-13.134579185436234,-29.488875430235662,-44.390766384184815,-59.58601060758104,-73.9758839684099,-86.83626641533696,-96.29631753949468,-92.51965261050742,-68.70477198748382,-33.39968053719863,-1.5386000671209688,19.884362730216566,33.65896700660631,42.433999768050036,46.37812321979265,45.57903020489023,41.06177542856111,36.75929989131797,35.328696465589516,36.05057987667592,39.41427333355039,41.65092038011997,34.379963887851986,19.069328948659926,5.236465497962253,-2.762953309933222,-9.108850381348825,-21.286282116880447,-37.03858392216266,-48.39375446203858,-56.64049919015374,-68.69145927803852,-82.04677160296367,-82.1015327539137,-59.66860311635886,-22.970829381200645,10.942904564723971,31.123248581787756,40.03555193967075,45.89201473856789,52.13349736348633,55.30908557255677,52.26194795843417,45.86584821342701,40.54157121525997,38.93732450569776,40.72625416821487,42.50773290896665,39.6891306885294,28.979538327881862,14.735853971461427,2.8569283888639614,-7.311016333209977,-17.89262214414748,-29.655433159460944,-41.870886708429694,-54.404451989133605,-66.8169745771178,-78.6168437943548,-89.15875944667111,-90.61123342218193,-72.3835224834031,-38.10459200555589,-4.417351942885674,18.318981813359223,32.5796403440377,43.00931366137994,49.80494613824467,51.044563474794884,47.151455451996036,40.732118385344826,34.23575295166631,30.881440498979625,32.02512274458122,34.13577963494822,33.179025201459474,28.60516591176581,22.14343380626844,15.923579340868232,9.477316556270909,-0.41138967784802877,-13.382578422787295,-24.758207352327606,-33.30826688276655,-41.55827961810762,-48.87306562106229,-56.58020390995732,-70.16546190566065,-81.35348924161636,-71.8523593188967,-39.23754932470881,-1.158106337884038,23.07345224107148,30.964559845212545,34.34664279265426,41.82481823578257,48.244585560415366,45.145734248432376,35.93570934001073,30.698391383630607,31.594460232244813,31.72667358924209,28.684939956873496,26.749621434451257,24.517708684746353,17.897353691286074,8.347349791457528,-0.8957213280317858,-8.24305203178853,-14.835004161817869,-22.463283143884116,-31.47118718922338,-41.19188286348069,-51.55922135887889,-62.327931461405356,-68.94288673514399,-62.608773994844825,-39.52649590181609,-7.8262873423372525,18.76396697143999,31.603442368613344,33.14221098816825,32.217312843186136,33.77946515259277,35.2661626057474,33.795337967458856,29.991756521588947,25.50239523210816,23.84052590916739,26.555571447025404,29.055483157910448,24.085056399044703,11.952677817795431,0.42372448064715473,-7.427785783973468,-14.219743509154323,-22.390649791340966,-32.848588976946,-43.12315713483043,-51.027047060820344,-58.95504059749974,-65.10716239072326,-58.38965713602714,-33.670901034491315,-2.8918303106073187,18.5317859044563,27.552350696726787,31.899226992867423,37.79995122156568,43.895484057779896,43.48759159339216,34.995526001051516,26.691476617723822,25.388932685856435,27.568974286234134,27.168940189365983,22.327017413766022,15.34525510784356,10.476816480339536,7.349959281545291,0.3746237357242687,-11.035350956220437,-23.012610175577255,-34.69165251256759,-45.94759095328721,-55.21048826558787,-62.98774617025292,-70.24488381665046,-71.2735372933463,-55.79569080555086,-23.90262706524195,8.724379504951575,29.57227625646796,41.58788756697699,50.51716507956345,53.54181426829346,47.900585919585644,38.26241468994571,32.68978540057321,33.75705543019165,37.54615201938579,38.66434252550057,32.80267888284562,23.301959693702294,14.591060407996416,5.658846910001533,-1.5331665664940965,-4.4655178534755295,-9.068973011816828,-20.3080036626191,-34.469816598557244,-47.67113719042718,-59.83347399698768,-70.13962959912362,-77.30379855762342,-75.92411887402329,-58.431621268108834,-27.994451144171517,2.1398460996339708,23.147337030319203,35.466674931305214,42.024837243284324,44.42549481973837,45.922282524036966,46.04325794182026,40.806459444295776,32.91865265407871,28.033093924114606,26.477710055769798,26.73878429622638,26.986789938015445,22.944734244432553,13.706482196897456,4.449328920558965,-3.358681402326211,-14.050873179824668,-27.57321812952797,-38.35928052034128,-44.45026688389472,-51.144956650478804,-64.29568136426506,-76.88983124450276,-69.49788566655901,-38.0111855224104,-1.3174409911183629,24.04723246151516,37.19301607577932,43.223923162110054,45.147486666850206,65.0,119.0,75.0
55.041648232791275,50.53814178581507,44.064386195479344,39.635442020068794,39.21989719168073,41.425456106527534,42.392622585242094,37.38137539216712,24.86819840466717,10.98234005313603,-0.13936839055323627,-10.262185372615546,-21.184811229950228,-33.16930782847358,-45.44960145016627,-58.05444499489652,-70.26512260869552,-81.95039807491104,-91.0750992909154,-87.58747888180326,-63.48487110224651,-27.581049720613855,3.3473464088553095,23.041342094539484,35.892110751222745,45.43248537109271,50.78772720930017,50.33924892200583,45.44936335750548,38.73656279598511,32.801438220152455,30.824323368650862,32.76207566210546,34.26922590613976,32.173321332404996,26.832190346815796,20.25791315445687,14.219343525881966,7.0775785441438845,-4.01950723197424,-17.01902165016014,-27.406481024786025,-35.66717045180361,-43.85742055793933,-50.77749690218336,-59.864396396167066,-74.49535501483201,-81.30933336997137,-64.29181327960053,-27.77015899060434,7.775271074685887,26.644512437628286,31.808241728708566,36.05587969525117,44.280459213502745,48.44743726003236,42.65330675434192,33.67696420639394,30.554279214570695,32.019602965414805,31.008438561362272,27.893091027958846,26.38814364452855,23.092701033497967,15.279787829487821,5.532501735052264,-3.2148280511525815,-10.126475384585705,-16.886511275735877,-24.948487349305687,-34.23117098114235,-44.099603047747,-54.711491167408454,-65.02625592827881,-68.80785601458952,-57.52192109080242,-30.65184386819554,0.941101887244452,23.992113657238782,32.8520845478834,32.75517871116391,32.41721487779348,34.419673210532714,35.15706497206452,32.88259255137987,28.6425767644817,24.56826431041343,24.25566589226649,27.647146660448634,28.59863833413393,21.010452487099766,8.254617015791592,-2.14695625160376,-9.368709274186587,-16.35515176036471,-25.21675239059366,-36.01037305335655,-45.60756233425094,-53.19742691122487,-61.29043048043779,-65.01837126512376,-52.85434859878933,-24.59952353151244,4.69366307141621,22.168830585385663,28.89637485418338,33.34629602883651,39.803549497782164,44.71403361404334,41.643536551426365,32.10286509882142,25.576918950191445,25.980079309420738,27.889759392705148,26.195978590711317,20.339269441341106,13.5826184539338,9.622525341259724,5.920699458254875,-2.6393770030498076,-14.552692418011095,-26.385885303617666,-38.05181733936924,-48.87397882740247,-57.511031377204056,-65.22067817787413,-71.6461972918868,-68.83550294189074,-47.775377301246074,-13.729966261132521,16.08927867625933,33.572368965661035,44.46408750132097,52.235665824725196,52.7379006169906,45.15863323106071,35.952587352181986,32.42419299018995,34.79323817127666,38.41094457000681,37.70914272599449,30.12570687394457,20.69301514776082,12.073070237962297,3.1784853663959565,-2.7073156503712537,-5.247839410899744,-11.66499653995045,-24.368779008150558,-38.411940173198815,-51.301743887783026,-63.0506330494866,-72.63897956382422,-78.18310033196322,-72.67796090583268,-50.45413896772976,-18.67622066215669,9.270773435388794,27.437336187893372,37.887274406794134,43.029414666001905,44.82797746985144,46.302781307563485,45.13736600302767,38.491612829309375,31.078685745951393,27.32637302465069,26.408883814378697,26.9667364257284,26.44616003413336,20.63599017761156,10.807932380471533,2.1993513055472187,-5.989761712548345,-17.881999484735424,-31.19656743333442,-40.48641923916824,-45.97059807376224,-54.23207266842184,-68.78812384311811,-77.53870257194878,-62.30486987102329,-26.939383263797946,7.482805362763635,28.86327477336133,39.490221607556045,44.118584886844495,45.12592907587734,42.946377065269054,37.6274388422914,30.91114844870635,25.55163650903648,21.991391066242365,20.030620637341375,19.673150091104596,18.696471145325074,15.490356749287555,10.460618772686034,2.058049197389866,-9.013392508807893,-19.645272410630486,-30.948229297276246,-44.33885629630226,-55.80789698707226,-63.78182698586009,-67.7574549950056,-59.70706055528653,-34.74352964054001,-3.5322304929623356,21.032284582936725,36.69443335703295,44.47085518718011,45.198127448331334,42.65167292341524,39.09218276114723,33.71060466921971,27.82219480619671,24.551250277155166,24.36492609350416,24.005035320847973,20.168312197395156,12.884981415945358,4.239912115542008,-4.4432136990099025,-14.665091135601111,-28.27492269872261,-41.56281737405405,-48.95287734866229,-52.932256581150185,-62.17586162475655,-73.61054450309311,-70.51412088509474,-46.75779271613095,-15.483894639489387,10.363339594328789,29.063406298161944,41.20296757982986,47.1827798755675,49.18407164715789,48.86402814535626,45.366868870355994,39.28752885646207,34.908047044283386,34.839447906444754,35.622488467913456,33.161179299213096,27.871227548094325,20.763507438069457,11.888033190717781,1.5222191565684204,65.0,119.0,75.0
25.86237012524146,21.246002967651123,12.505496558480878,2.812564130913692,-5.357764743886316,-12.003121748919238,-19.057387594745123,-27.54011364521812,-37.03157017853295,-47.07379903685228,-57.879260560965534,-67.20248377610582,-67.35741258673384,-51.0462462921376,-21.370389850365473,8.943419752178109,27.953712384867888,33.32832329640112,32.39746584765295,32.862608830590354,34.93093834571511,34.77636369092515,31.806089728879545,27.28709145087923,23.976110702158188,25.025845690845568,28.54261539357163,27.349305766910526,17.471178358920266,4.815468633162968,-4.430019809889547,-11.30030323043337,-18.656458359939897,-28.23438590153688,-39.054134461376336,-47.88551586723532,-55.46998237617735,-63.32653033152535,-63.513355716766384,-45.85372651121184,-15.464671773833697,11.184940491661523,24.85738961848881,30.086954921883336,35.016248628952916,41.705931818050985,44.80382598885705,39.190785207742785,29.510133955547897,25.11696080473017,26.684492520262932,27.877613735034313,24.850212315697085,18.266922491985433,12.10521406825691,8.815377164700758,4.0235380349549095,-5.944643294559648,-18.028615624583743,-29.756415986786102,-41.350363293123905,-51.591510214848846,-59.74185295890868,-67.40736147732129,-72.29609490789086,-64.76402764398169,-38.57032115896449,-3.9891316031504296,22.311832120848965,37.05081631736668,47.149092929785446,53.31334072601875,51.2047695262284,42.27185971228187,34.175238139797194,32.68225824943939,35.936246795581496,38.90538656560512,36.10498245431316,27.324252193427096,18.190014260185524,9.480457370075781,0.9706104906455941,-3.528892939777098,-6.399224737754415,-14.848624894143288,-28.509592669658026,-42.239100593919126,-54.85241432280201,-66.08029644179273,-74.84920852566093,-78.13901769821183,-67.93163929948291,-41.631723811809294,-9.742010158146947,15.525775214221191,31.09032903000246,39.87310220336638,43.73082083768237,45.255165152972744,46.47230661974347,43.70181861823964,36.12152769434662,29.590793555819694,26.84946403212676,26.470719024571046,27.127506022794428,25.418042251093503,17.95491284059496,8.065711615778676,0.01514761284929433,-8.988538585019313,-21.85627989376926,-34.43937597785643,-42.24611813598213,-47.735873255681135,-57.9645099032154,-72.86564619788237,-75.99959405934955,-53.300409278472536,-16.02987677672684,15.083502778217559,32.77968657100494,41.30384441464759,44.72508635379093,44.840350111394606,41.69573517013439,35.69931395213261,29.146347441870315,24.370528404641,21.237873495186793,19.81372796400715,19.589593514735924,17.975579861594582,14.255086614185041,8.450263191661529,-1.024467775955077,-12.191641750729467,-22.681707085291002,-34.71584816599334,-48.03382184018722,-58.411132296939286,-65.54558765733147,-67.12957162738434,-54.03813671029809,-25.638817093783555,4.534913637882868,26.395446662988874,39.75381551060196,45.284630510044586,44.613644040736084,41.7448819988539,37.742799582691866,31.914076278720604,26.508466173696263,24.27160454303721,24.466332700628392,23.325224110970424,18.33288649849641,10.438602643339955,1.731371632642882,-7.095695329100202,-18.29102022709991,-32.44618527613864,-44.41350706947201,-50.06108035208009,-54.82036844357885,-65.89741195601879,-74.89938403582141,-65.44948763402202,-37.71396871012811,-7.216029637753889,16.437295281272643,33.25947903084361,43.493007662323116,48.05375127167766,49.33078801219623,48.23298407160181,43.733499753662066,37.63224274622098,34.49186141715935,35.22962334015688,35.29934623167812,31.848263904199907,25.997364032088967,18.378078917362544,9.024528469915664,-1.6843917433527769,-13.388434656489364,-25.563661531031915,-35.6210131826591,-42.447950059413934,-50.5591575459581,-63.32382486262701,-76.15179797984983,-78.36229558048534,-63.08237993042265,-34.03564436032685,-2.562956974275353,19.818452271551916,30.98251110075298,36.57116474022101,41.0485244411663,44.517686893983075,44.11908297881039,37.60988933160844,28.733429363632816,25.7148317319404,30.05879836333097,34.08809639398947,31.274401242635065,23.484741504319107,15.670086029017261,8.278287674271734,-0.5193148033227976,-11.41505161019553,-22.292817652144464,-32.39977845358968,-43.529617454668205,-52.84877307089113,-60.381168371528794,-68.9465713712789,-69.25946756184639,-51.59343186521665,-22.598990957334657,5.1855882064817695,24.682186425620024,34.74761440067936,39.741829412441874,43.1793510370914,42.224653159992556,35.86849941336903,28.642573908918624,24.32698428597405,23.45376137830195,25.18392804866442,26.43843645808222,23.83727752831876,17.886254635267623,10.33828022763748,2.631748696303738,-4.689384167029924,-12.885216659445586,-23.048698454829967,-34.241080169203734,-44.51074870461026,-55.398376852549994,-70.21891968393587,-80.47844336154559,-68.68258902513452,65.0,119.0,75.0
-61.960278231709246,-69.42376655667549,-71.89395615236941,-59.001756418374484,-28.612036942801453,4.9475777862047154,27.488272565548343,40.20524454638134,49.54704370511689,53.65012993271162,49.05523414013517,39.467432843202076,33.01313933294087,33.347809879717715,37.06601615691537,38.8818054679068,33.94388791127421,24.547658669464166,15.73066791359679,6.85444769297723,-0.8456685429122102,-4.169870626918735,-8.08485155321896,-18.50555445609273,-32.611710310296125,-45.97412392487035,-58.29382479650456,-68.90775891703406,-76.6547961126955,-76.93086118939081,-61.734281806388566,-32.334982982228226,-1.4331594056868124,20.926551844337165,34.19819272179086,41.43859858372537,44.23118518329799,45.714257862186884,46.284740687334306,41.80224368889512,33.87395646129002,28.451304131344095,26.558056337976936,26.638068155441868,27.09995936881582,23.8486518606544,15.063004113409194,5.540918346763076,-2.24779105710151,-12.373155986271174,-25.806606676568034,-37.230334225254005,-43.77489426430611,-49.938590747551416,-62.22421221851009,-75.95690178977497,-72.09015858447847,-43.01727150604367,-5.748218734623835,21.480838274603574,35.94785819926861,42.702504643602474,45.071935310353446,44.277816831723214,40.193544461461144,33.71991436477684,27.556088056357204,23.317998009082793,20.629697826433564,19.719201941802723,19.37042382817579,17.070542380564948,12.870898068837965,6.095783192176251,-4.252092887396269,-15.267303787609396,-25.869720178900206,-38.63212622067238,-51.4374784444997,-60.75425601184374,-66.91966742994333,-65.20990530782848,-46.970092275144545,-16.425814914221633,11.826191279369407,31.059974087796867,42.15387696698952,45.554144282878056,43.87457831549469,40.759433427011245,36.21124073300308,30.15057722659453,25.48478559238613,24.21922185918662,24.44579336517549,22.295806326292666,16.250277557316522,7.93130390902496,-0.7596631773820037,-9.957086625235286,-22.212220053696132,-36.43197415532572,-46.659446886200186,-51.06804081635459,-57.364495235108855,-69.51881419774034,-74.51030723673806,-58.73769152426631,-28.50077517375346,0.40355383869015327,21.95777640645634,36.89623173245632,45.29762490228462,48.66118610027182,49.3002342820399,47.292788657925726,41.94230141419053,36.251833025986194,34.44572652943544,35.54698177406717,34.64709490179068,30.347182546978885,23.97861720951959,15.843604035127033,6.04867326510258,-4.971482336114509,-16.92203723835864,-28.838575746203844,-37.80842374304767,-44.404478003780014,-53.797026835476665,-67.44629361930872,-78.35556925464861,-75.7827693359561,-55.69724856653163,-24.598699802324173,5.1660013996134335,24.003574728711943,32.89866783317613,37.892128431133884,42.24804508181551,44.954052388170524,42.85350520380591,34.92994831398642,26.969692230698577,26.448232675042533,31.665359515154563,34.062501508849444,29.273854984984464,21.11465570035158,13.567416244183365,5.9557770332649245,-3.495712585977246,-14.686685886454327,-25.1876213048045,-35.53838327343068,-46.580641697907005,-54.98378077668863,-62.8849296752102,-70.55091759799228,-66.01251548210985,-43.77931369662356,-14.01017372425871,11.83071729914072,28.45325225083483,36.445840208173884,40.92854659048898,43.528212322735214,40.80676192791345,33.631404988000845,27.03185628285576,23.73497425049093,23.76860978344037,25.790716276834935,26.135591007156506,22.37213775954147,15.807493916995686,8.066669283844933,0.5102127692819498,-6.89615100507174,-15.613438912689833,-26.276006309544133,-37.34013287846921,-47.38974094050761,-59.30775600679628,-74.46666211052353,-79.84779312547178,-60.6118528915254,-25.732638363747675,3.9355389384442807,21.9265984272325,33.47517695121479,41.523185173335904,45.52796932187783,45.418550416180466,42.09880329784392,38.52367479105117,37.748004924466244,39.010772134012626,38.76879272696476,35.218381544951356,29.65389349883485,22.77660968500944,16.06445352836169,9.82308032554801,1.4235769654760777,-9.57236360591818,-22.064856353622034,-34.178429886628166,-43.276715318939914,-49.972727445682715,-57.13573904445216,-67.51344499171624,-79.48296245168453,-80.81725218509813,-60.462452943611446,-27.04225577980092,2.196981605053993,21.820954392741747,35.86215498529162,47.110468766485575,53.36434180607306,50.69267218813506,41.255262510346085,33.884694887180096,33.45418214344996,36.03706859866512,35.65802269835885,32.17476034279593,28.389733264650914,22.916879061206856,15.169147793497107,8.313148518321533,3.6675190588333053,-2.5967003929924193,-13.319884013132954,-23.70869561569136,-31.829892841366966,-41.62955601309923,-52.11590702439387,-61.5117855225251,-71.54797565186935,-77.84315931531992,-69.12013562925247,-43.61384678337036,-12.595726938619043,13.98893978810422,32.44799781419446,42.378818215376135,46.020038520386336,65.0,119.0,75.0
45.16783824703844,43.43152743971716,38.476895893667695,31.774644279960786,26.14562415672676,22.38260271088963,20.181913807813753,19.687809644686872,18.95851020470137,16.017961421034943,11.281650343079933,3.4014189334635807,-7.519113185793166,-18.267613547313665,-29.287240727406363,-42.56279895569574,-54.50567904670186,-62.87705804520298,-67.6852606848098,-61.80368186397252,-38.787401202993365,-7.4819983764809,18.30896014722594,35.065322128264796,43.88974854380655,45.38776199974151,43.050643908903936,39.654024278750455,34.52461595005569,28.512208769565092,24.774532929019106,24.306354434769585,24.208728582283392,20.915752842388667,13.979535848507572,5.403419094848967,-3.265687609706436,-13.10448737249827,-26.339294530935597,-40.05585109693697,-48.337627027734364,-52.25269189358919,-60.542843182640276,-72.55084713047947,-72.22359232086703,-50.74866083870025,-19.491283588606777,7.365307030015752,26.944539773229994,39.970792183993936,46.674213181386875,49.06012005029396,49.05893988018085,46.04081471607924,40.10994194279758,35.237965794601635,34.675936036763915,35.66303942932008,33.69124572176566,28.686577138786273,21.812525551499142,13.166929247046887,2.9718770679724806,-8.336519012227656,-20.47700211308041,-31.839328579680203,-39.7565762112262,-46.6236375395053,-57.45274213911185,-71.37059755643455,-79.38357055626814,-71.66521093465859,-47.35453180168022,-15.28624044255503,11.89587486861715,27.32811733221951,34.51239648808616,39.190659693022795,43.32397454381278,44.97916653054741,41.04718541184706,32.227141392627075,25.903297503453828,27.711571051977465,33.003816321308996,33.36973459068082,26.995995047833834,18.836098840582142,11.462404105888787,3.4681709477396656,-6.641886106755445,-17.872246615206937,-28.06022046041764,-38.788662583822614,-49.34971994485568,-57.081047741492924,-65.49001094308579,-71.07839610726934,-61.16065724939913,-35.34139785349379,-5.795796862054464,17.671934324264004,31.464840976128816,37.87903492364048,42.007404233771126,43.389536670707464,38.98483003724945,31.466134119513708,25.715176368652493,23.42486497004842,24.27036934464874,26.250280868926104,25.455701409637367,20.678594360088816,13.62896672500609,5.82114782112514,-1.5878535068237292,-9.217713570828467,-18.521625031455848,-29.53967056699165,-40.31774026552075,-50.420293470460045,-63.609134881244984,-77.93100062257069,-76.96142569341764,-51.144110721445735,-15.970059969913013,10.181260684548603,25.674460774125627,36.17529680474985,43.110132774207706,45.90947783247695,44.699107562970376,40.91968414107263,37.95517877881597,38.04560899086756,39.24483304033619,38.05807777322494,33.75584103023814,27.781118590361416,20.722735571739737,14.320125386585264,7.702268974858669,-1.535103204165835,-13.076424940520614,-25.73919500656852,-37.171231841466906,-45.3420862126898,-51.86115375230508,-59.71846401611201,-71.14337123260947,-81.69107026207685,-77.20028836184194,-51.31400368369015,-17.62529006615118,8.741986875058146,26.2440254610137,39.402136802843316,49.63384457403612,53.59141926565418,48.32796049104874,38.523591518267516,33.08294362473896,34.204192936267034,36.37955895137086,34.8146412752091,31.08619188792009,27.102918894298067,20.805339068043928,12.948625498097377,6.82743742575722,2.2651742718671573,-5.323435413279606,-16.633138534980173,-26.116503014016544,-34.3986620801336,-44.756146461336414,-54.879198604171044,-64.32784299307838,-74.22907060463444,-77.26783366933299,-63.116200305221504,-34.63920787612306,-4.211361982569896,20.227425997711137,36.13860604965248,43.92949120910181,46.359110457611614,45.74821113981355,41.98638881513793,36.21739916324666,32.18823940409058,32.12235336689555,34.25966419324876,35.25397013783989,33.18134240372133,28.422557723090566,22.16494395423848,16.187320902042753,10.3359440636586,0.5126622456649288,-12.925638827766937,-21.34121357699193,-22.271206827229946,-26.3176942468486,-39.02075206605302,-52.52185149143561,-61.98565335331423,-70.72495084424258,-78.53651932080075,-76.55914588841026,-55.49255505386237,-19.990785926089238,12.510428343555878,32.14718869355213,43.97773009014199,51.64455994688039,52.81784769056802,48.60698222975221,41.54167184706867,33.88878444696331,30.058966542080686,31.500035394466643,34.35510859006058,34.002116779396204,29.60934455259447,23.93918320240738,19.43684090594379,15.714694159108356,9.5732083093095,-0.1526207620666049,-10.165093131012355,-17.592760228014047,-23.503690542830082,-31.534205919350732,-41.4245213990748,-51.12295037799438,-62.0974324067227,-74.59395234919297,-81.12593585083448,-71.31680884278335,-44.80819168375169,-12.620065074642248,14.838651346843331,31.834916748646997,38.99136502454134,43.02174566555189,45.72284784312521,43.95273429099851,38.441614700405204,65.0,119.0,75.0
-0.19572938294754863,-11.777884595771017,-23.986095856426104,-34.50713178455281,-41.59493414551264,-49.21754251752098,-61.4276657933155,-74.81089816905644,-79.02965058470723,-66.09663114903032,-38.33565879874457,-6.420337511362954,17.560422400597332,29.957216648530444,35.94528570685571,40.47078570536357,44.20234223187581,44.51448320008598,38.776491462877516,29.74125834893695,25.601504459877702,29.290735533113526,33.88014675198833,32.05816316353144,24.59641088001153,16.652288800888815,9.304617997333876,0.7862371479354445,-9.898349405876836,-20.927798279595,-31.00133149097965,-42.05487468085033,-51.80701909860484,-59.294172960813064,-67.95355511041399,-70.19931489276401,-54.887354689981095,-26.624976078826396,1.8718628392774184,22.666407961111272,33.832572329141186,39.172030009896964,42.88058878134734,42.714855374028446,36.88777906674399,29.47838368867695,24.697094624997153,23.385710372076154,24.886799606187544,26.4542277925645,24.42111807828163,18.802395972952425,11.384695198854402,3.6253692078288693,-3.6996585426466444,-11.688591500821872,-21.590186666582944,-32.7751094928615,-43.19773680811793,-53.73950056194714,-68.13745049073276,-80.07444777563396,-71.78782541086206,-40.885352278695386,-7.101995050745549,15.491954888749328,29.051825253468138,38.58502196295166,44.347036023997774,45.94820160169932,43.74879983689312,39.81480788867251,37.67561535421022,38.44631248122169,39.25875036157516,37.06654161900257,32.1724966626834,25.795414963965335,18.750675884721048,12.571159712615952,5.335254319261882,-4.685934103300281,-16.683790851357493,-29.31340022131324,-39.85864491770804,-47.26483370900737,-53.8612365792583,-62.639560392704695,-74.78897406441615,-82.59081469116914,-71.62997963161745,-41.51208947817263,-8.934133856431222,14.512816660139253,30.330568887000627,42.73405992706485,51.6348944489952,52.98818452087589,45.54722700550937,36.21269825797307,32.88568006336135,35.03659039799157,36.355069464439154,33.78880850495176,30.02042357624116,25.590478387702337,18.544434407315656,10.898456302381968,5.510777928700843,0.584249395637571,-8.428657494361167,-19.727041088749104,-28.40255873120765,-37.20068427698241,-47.83751141479419,-57.563981168781524,-67.25343860733815,-76.37258655790473,-75.14641117258392,-55.84519577826424,-25.550195571322753,3.6396832332109788,25.73717478545571,39.13429193799276,45.03414686307895,46.468607299064885,44.999471258663924,40.38471602818885,34.70565022876246,31.77087989729655,32.663648275069534,34.795480679949975,34.98669668093301,32.036299155521775,26.700187421681242,20.3356962670517,14.617674668562362,8.08306439799911,-3.295545628131619,-16.261100503503528,-22.07340943323513,-22.576162621238797,-29.291002281089234,-43.262464690008116,-55.59618585779995,-64.42728656167796,-73.32811803838926,-79.49960655094283,-72.59178292196043,-46.04226175288346,-9.533017426104307,19.471825361366434,36.02447376276005,46.704333116244904,52.70405847902399,52.008786626140925,46.79332627662414,39.2198679945236,32.209586389430655,30.029705169056392,32.42038127363352,34.71191521834624,33.066329302932616,27.952996540846623,22.473935094394005,18.38586518467808,14.341337887395328,7.037397557102171,-3.1948981156105543,-12.619805336299128,-19.29146449514086,-25.5063773858387,-34.33122924914864,-44.2497591633897,-54.0454866240684,-65.72367608006977,-77.60291616142516,-80.27310320243014,-65.00859491299202,-35.530939977501504,-3.873625304032644,20.963287724115972,34.65477790685415,40.21925525735259,44.078707881865874,45.74513678465346,42.597173180859045,36.62580393264377,30.84784456505613,28.35011088115099,30.439801416272292,32.301839667538204,29.328420962785195,22.697935111165844,15.740114186931612,8.268437430049598,-1.8865016179796943,-13.289148770279443,-23.238733471282462,-30.65870771386426,-36.05081402739444,-42.89075137922254,-55.578444462590504,-68.76788589767487,-68.33553143833359,-48.22518604052915,-17.373098830054506,13.037052266217927,37.17967739244571,50.10854959436585,50.920251726199,44.66823239081396,37.137590800104185,31.463910727368688,27.970803694970193,26.20460340957208,26.54357303746729,27.11508310117646,22.734619312962124,12.844359321486108,3.735947656799386,-1.5678973060361148,-7.922747553929373,-18.206420356425433,-26.574851795129153,-30.273462371950174,-36.81251886472844,-51.721801745799674,-68.91488591186767,-76.4829386420572,-65.29754769580748,-35.76956661230661,-1.6516308453698652,21.70814906477274,32.5023963008352,38.15293071748463,43.24371372699052,45.992213122358244,42.89146077134924,35.77025833171203,30.503106978626032,28.230359605433073,25.692333754800348,22.04695835805142,18.933848918048696,16.392450870790796,11.871021102957888,3.5968049674723597,-7.082484953304321,-17.886808098616886,65.0,119.0,75.0
-64.54024358047748,-30.450016751488988,0.7047199636117937,20.037872208346233,32.13997703209158,40.67422449179549,45.235392435442236,45.65701793121266,42.639696515745335,38.87779618223082,37.67057403121792,38.85072065099692,38.993703672449406,35.844031441592996,30.475958574924036,23.734835374942193,16.888803547525438,10.727959189110399,2.7138197213970883,-7.998102733826316,-20.360523907518818,-32.700669596650336,-42.256526740864345,-49.11981570765952,-56.046011008269524,-65.9057876588379,-78.14186958469458,-81.81363168583297,-64.31989788425508,-31.557975310303103,-1.1091210472085553,19.637815931307856,34.16479394501746,45.80553449990711,52.98881780000748,51.58368586363361,42.598835243479705,34.47233368675693,33.18755573050024,35.77273588163424,35.95604666443178,32.68595140944602,28.92633952294518,23.818699007894963,16.228118415459804,9.073294937328917,4.2591771850063305,-1.4896980294425748,-11.760919037527668,-22.520806626013893,-30.716579881052244,-40.20189827626828,-50.7990009841084,-60.25055929946331,-70.2144061016594,-77.64324776166309,-71.39136132118561,-47.62566876478798,-16.6103381082128,10.876289699817935,30.501780355070366,41.48957628114365,45.77800916400174,46.35417280112216,43.96640161792251,38.679194934466246,33.444448418538364,31.70109319024291,33.31010055158343,35.155350125481576,34.44195420895328,30.6921667536037,24.8839223511712,18.582971271929623,13.011573407399746,5.364884325509224,-7.289735320287489,-18.913235005760846,-22.273852327720185,-23.494797720864323,-32.95356558095059,-47.29615687873134,-58.334438169375595,-66.92823317804564,-75.7622349242379,-79.35187014049303,-66.85686791833616,-35.697566586989325,0.19585649813013561,25.297285293556907,39.47533907297197,49.0642912572245,53.15887429500748,50.834589359915775,44.77707630631044,36.925604899714735,30.972898337697213,30.41360221281028,33.32554453953066,34.707009606535486,31.82133083948668,26.278859738955276,21.144277423170614,17.359869601631065,12.663398877072872,4.231284760860268,-6.1546297877219525,-14.813824663729319,-20.94022248283828,-27.772814205749075,-37.21329101863733,-47.03236630032052,-57.15232057105289,-69.42851389273672,-79.84580100225293,-77.82397811507813,-57.451825883764485,-26.108552240645647,4.282312403504002,26.10336398995984,36.76201161246807,41.37128928076682,44.966522161900045,45.32192038355258,41.00568956820161,34.82529142840559,29.632722513107257,28.59302460046194,31.2960462120343,31.99360153237203,27.622253753967268,20.635744822742733,13.75306973415515,5.631276660104529,-5.197125740964576,-16.39109076696855,-25.651875695826778,-32.34965587343194,-37.62348402434032,-45.925473074603914,-59.91467129679027,-70.61300795560423,-64.3768023538793,-39.81840187139256,-8.217061196640811,20.874529751315574,42.24308525050709,51.4410376828698,49.55172763840771,42.424983319276244,35.24872815015904,30.263071262704543,27.275419192453203,26.082259867289967,26.893341061036352,26.552848272703425,20.232442284320385,9.83688953866139,1.9197291193906427,-3.0109571827642387,-10.618870489324953,-21.154293082647666,-27.927471180514964,-31.44870036136659,-40.306744446689436,-56.96694575821442,-72.5934132747854,-75.41431094208284,-58.26017674679777,-25.565509653897788,6.594292448547116,25.83588998111954,34.340599061427596,39.65140786093979,44.47263932434101,45.75492063494006,40.99207683716023,33.85843479102176,29.670139229638043,27.64065994011128,24.69382052499109,21.02806084579995,18.22719620999942,15.413311591492787,9.870722286046249,0.6293038112735884,-10.232277579252107,-20.96735787440165,-30.903303465813675,-38.64212908479023,-47.96258063334251,-63.73313701764373,-78.635217937224,-77.18423163973078,-55.89053476853049,-23.758674375665013,8.456860676948276,31.77793780229678,44.39507911881286,51.59950580558672,55.07540472056459,51.63983450924326,44.04473453857753,39.32494582668159,37.73184633951237,34.84069233221625,29.163813175707478,22.464727984399275,17.570483743296542,13.331842562009845,5.334603199039663,-5.706462818434179,-15.906696075148254,-25.12911469372828,-34.52388088127359,-43.637504458120006,-53.61021723468519,-67.00531529412905,-80.11741043948324,-83.65873461868826,-67.82913577928025,-32.902537308083666,4.17627683356637,26.735011171740265,36.29317087556823,43.69259531991091,51.382084733224524,53.76182777303488,48.26880289699228,39.69134270241032,35.04745098013799,34.76142038292304,36.69555615978292,38.07404105387671,33.13870936847868,21.338208914830915,10.932375365793511,6.255426349282717,2.105498281439824,-6.4300002824857865,-18.661687060012174,-32.08600727156164,-45.597692863460985,-59.19766603975974,-73.16131836474254,-84.4630189265433,-83.90202428011084,-63.781811924330114,-30.05486853266439,3.1551254903539583,65.0,119.0,75.0
46.23269105407293,45.99955205322716,42.66503268372432,36.97357228957574,32.503013628787826,31.93278255552122,33.97253277989476,35.283516401729656,33.6350189860119,29.173925423252086,23.022899794873442,16.924258779561733,11.244249929905969,2.1496062119417583,-11.21546984006158,-20.761917562561287,-22.254588537342084,-25.225632253722583,-37.058350577547635,-50.96875054921511,-60.85764206271961,-69.51433011983596,-77.80283991730239,-77.80754453469484,-59.42930649809323,-24.9457017112184,8.89495337606826,30.16354115528551,42.61989166897173,50.955964232884305,53.043403257485394,49.367738242348516,42.5916886060644,34.78604833817323,30.231674104221067,31.108816243368665,34.085301651966546,34.313268648663055,30.34414421564786,24.655832064085697,19.94869108386278,16.268579828855152,10.631271566343425,1.2506409319744562,-8.949446381089418,-16.76307611725297,-22.657751589733575,-30.296999338106996,-40.10388962435506,-49.81812609808608,-60.48521028902652,-73.03165894514031,-81.02076969446591,-73.736012927901,-48.95205554451998,-16.80648553045253,11.701850413826886,30.24632436301574,38.36426018793439,42.5067705170261,45.56928531551068,44.472392019842076,39.2692194411545,33.09553834979869,28.78924350898381,29.196254595328487,31.959126125924474,31.219595468240527,25.6962066119314,18.617712855258652,11.664946025323204,2.730845335474814,-8.530581702489464,-19.32105127674846,-27.8429289137686,-33.89510892196167,-39.44962937642105,-49.529854776863935,-64.01830789712591,-70.94727838307185,-58.78898343464603,-30.85245833078195,0.6940992554123893,28.078946522131126,46.24457410605833,51.81346009961441,47.75465001009822,40.19849605281744,33.56057728796778,29.227180889476994,26.720917340574253,26.154431964378233,27.168397070540497,25.4347860704631,17.3505919142981,7.0864861830885255,0.4063700801935428,-4.721605806702161,-13.62701506842507,-23.722869057668248,-28.9412681310591,-33.119039116339756,-44.540997980803645,-62.13849397778843,-75.17543769814051,-72.59932952422471,-49.833481080711735,-15.431637883288962,13.641587711038909,29.038071699339895,35.9511645688121,41.152477297029236,45.40273225711561,44.96316604823825,38.8777931335707,32.24830061417099,29.0313992721018,26.94452732780656,23.62520418126453,20.101975831620646,17.534012429664614,14.193352732894251,7.535972450240053,-2.4689358039814966,-13.35633625543088,-24.003190388946727,-33.338017875872296,-40.8559455377748,-51.867853165977245,-68.83444342869824,-80.40358360537658,-72.78570356261176,-47.235317834698705,-13.998765628137436,16.37887384746158,36.34931571407312,46.79733276189744,53.12587226157383,54.85237098556957,49.534222180583775,42.192206460426654,38.741621578123656,37.17572469213668,33.45718092683549,27.194027514594953,20.799343990005546,16.47839901229954,11.528039458946132,2.254021990114563,-8.825435183234442,-18.60019801898368,-27.819626693180247,-37.21334505398235,-46.27482944608276,-57.135859864941246,-71.17043013901531,-82.60140535440595,-81.3807238084656,-59.213968935529486,-21.435290138707124,12.495260030914881,30.343738496877044,38.2940714708668,46.08748499333737,52.85184574063286,52.915550635359146,45.735107068298426,37.78563862516951,34.63214125079797,35.16182432965472,37.3707668857341,37.528890513689944,30.162172184484927,17.794907902986004,9.095943744040575,5.322156454178769,0.151883851690777,-9.708498874720881,-22.494935154569067,-35.99898137556339,-49.49463659326925,-63.22063441483889,-76.99750664458912,-86.0246067764745,-80.1288091471601,-54.839935572530614,-19.807297270655724,10.956602498228035,29.15354649310986,36.13868699105557,39.74599682158128,44.75143642694148,48.121425475364596,44.24491088348074,34.28855906628819,26.20063681491159,25.927700563975517,31.189373986289784,34.336366596556104,29.58811657708,17.82375147281382,4.304248580398846,-5.269314089496128,-9.234456425331729,-12.194750196725757,-20.080861250066643,-33.256100025636464,-46.51450532793448,-56.97884005817573,-66.90969688333779,-74.08594479996596,-69.95382270414785,-49.47118810822116,-17.737917531977036,13.167122837835587,32.37623927170412,39.35979720732219,42.988236130455846,46.75666854807591,46.76275997446304,41.41765125250266,35.41066274005426,32.70002938148996,32.232304278849895,32.09960403848143,30.92282032494972,27.380674253975126,22.20210988241138,16.925410658534478,11.901330472005185,5.577848038489886,-2.917654872670231,-12.858839519448253,-23.176345674819615,-33.74397923788701,-44.75523235530151,-55.794735618023914,-66.46493431956387,-76.49606242423152,-79.51455415939611,-67.49302728377386,-41.54628095854145,-10.851355408624327,15.288194126828483,33.1203834866607,43.37370132716898,47.25865121147977,45.527763934610334,40.73700633950375,35.00502615083791,65.0,119.0,75.0
37.46419113916278,31.507651637040205,28.383390685499467,30.026453565142123,32.28932764552506,30.01247565354806,23.653582320401952,16.644342863548516,9.39472206852541,-0.3916659062450856,-11.811269178854982,-22.051764125135833,-29.817437062075427,-35.36764135102382,-41.685791571900246,-53.60037763880981,-67.49096772340698,-69.57038244597405,-51.81799792949295,-21.63581546657201,9.244546585897274,34.51228394397649,49.141918469329966,51.36235302612419,45.680168692200496,38.06952951106892,32.07947317517137,28.33621796618687,26.326270713500104,26.393945750844168,27.21463598419371,23.719530482604238,14.273449715605468,4.700874508630756,-0.9481821246114682,-6.814848571739158,-16.77127323782877,-25.79475468583904,-29.833043552940705,-35.46897979183291,-49.36295614316883,-66.92369156797727,-76.41894778973952,-68.00177611327058,-40.367660074331255,-5.809964841863183,19.43966473126739,31.53147095729561,37.464281682110894,42.609570399036166,45.91942268633796,43.64979680635915,36.7266962260683,30.978756885034358,28.481648817854868,26.117030698324466,22.53883593511659,19.280727007853397,16.781235543527753,12.678839444710786,4.898901145569437,-5.6243474945229295,-16.460303589146193,-26.937594481442456,-35.56394277763674,-43.375656829626315,-56.38424038833362,-73.51101172474539,-80.43988018612464,-66.83816885682432,-37.94293969147646,-4.489717916703516,23.367188999852093,40.087335498336955,48.91157845176164,54.28802666442835,53.97285810995195,47.2507282972977,40.73575691363557,38.3245003729918,36.408953322811136,31.84486421935368,25.208493819837372,19.34866163318679,15.34789726195977,9.302842122463195,-0.9760506968546647,-11.801142901672467,-21.25097356952578,-30.540193329750352,-39.84928583810048,-49.061528369869066,-60.986875816816024,-75.1417220113789,-84.0291387418296,-77.25745194134544,-49.17738774251621,-10.347360664023382,19.3234799410207,33.10645576278355,40.37370564977371,48.42713555337851,53.72282853805288,51.409142355358426,43.142846470553195,36.34262905725468,34.51501560868203,35.71408529027959,37.90276314978171,36.288583343629796,26.714709000597118,14.62190284522403,7.732153157237465,4.239574530982189,-2.231530158239046,-13.229635899186171,-26.376437421205463,-39.905247168556514,-53.409493817833415,-67.28006872749143,-80.48439867248277,-86.30489909069425,-74.62137030270029,-45.06199038267351,-9.957645482976417,17.6423781876339,32.02040186596975,37.184996548098006,41.03799371049128,46.18353155243429,47.876412240369554,41.709389899652784,31.372561333932005,25.256118162509814,27.17561428268144,32.66808032176577,33.87111742795329,26.718077107684707,13.824371743647433,0.938608710141822,-6.889818385649018,-9.886819616377185,-13.805859727554893,-23.52019792225096,-37.324303608468576,-49.77576552456448,-59.8162060584711,-69.6045405234175,-74.42498199920173,-65.69919735455727,-40.98532304662433,-8.148920727298961,20.21403999505345,35.316104184637574,40.393823453795896,44.17145698779475,47.339810520677794,45.65065089299753,39.47983246897451,34.26026911607302,32.44521329307152,32.20956366750191,31.946958902398563,30.152876429230886,25.978887385064702,20.63313889266984,15.493242781779397,10.28419245553075,3.3355634078761893,-5.697379202817736,-15.824936676120952,-26.19430048170893,-36.87703586129277,-47.98486652222769,-58.88767376124511,-69.55380724157364,-78.53621169983019,-77.74763862985952,-61.116265800980244,-32.68123887288608,-2.5469093909114875,21.313773541894445,36.783163465317045,45.13429524459509,47.257647047527556,44.321075363686255,39.147134026952514,33.25114148824171,28.100354981548687,27.557004259332547,31.05881416329936,33.79029960400003,31.998217898617195,23.53167661010971,11.840807172665741,3.534335995027412,-1.671528968976129,-8.496112596868734,-19.179520488716875,-31.46280300269072,-41.64032773915183,-50.53807485680287,-62.534932190941014,-73.84986183406102,-70.9758093206263,-46.98560284298976,-11.529922742458073,18.320026116364158,33.60248211542052,39.900775665521046,45.72420081296963,49.471454469226174,45.76092128101589,37.380597024689735,29.74171646489768,23.89980743334874,21.009362586800407,21.975026987214388,23.470947188401063,21.37993131358686,14.553632233665605,5.5225911563461745,-4.63993065695008,-17.134419773897662,-30.221816375824705,-40.81178865037121,-51.09118339151799,-67.2120708763849,-84.0011306162816,-85.33482919284664,-64.35240534508775,-30.96472333812681,1.7446658280925904,27.531510597151645,46.000284404509756,57.00207425222186,58.645326108573485,52.898807259977886,45.61971605649077,39.67561090623334,34.646107110973205,30.925585060770867,29.682920936080837,29.50028383897972,27.29663608289237,21.336431624448924,13.14945107604892,4.6666339487832085,-6.600170460114173,-20.79032134006358,65.0,119.0,75.0
-19.550236286909726,-29.701865228077065,-37.67104007160781,-46.37848486265063,-61.35923347628351,-77.3038766983196,-78.63279210685515,-59.593195592434554,-28.2730173800773,4.526729487347645,29.3540677132875,43.15639241014235,50.802909285897634,54.96125870410283,52.491510924642185,45.00920447542446,39.68666651252844,37.93592348940256,35.39467338907178,30.043101507697617,23.297574952479327,18.096976390486443,14.035705330600866,6.6678642419836684,-4.228333569590812,-14.637767721532304,-23.900088138925167,-33.27037423741591,-42.443002632926266,-52.10138998110531,-65.07734207845729,-78.69087939296081,-84.13011642666943,-71.23131687336634,-38.16343767597057,-0.1317274605505926,24.699669591347043,35.34958079335562,42.611520794336876,50.53595680468459,53.913768612629624,49.35487222817116,40.70920400893831,35.35962804873076,34.636695781169635,36.3738798286356,38.12533617115267,34.299536441810005,23.037732248128197,11.965278435096943,6.684709017478763,2.8650711852706863,-5.021383855418513,-16.920420031103596,-30.281970154769454,-43.80256228687751,-57.36012525390242,-71.32569180734117,-83.39211818146856,-85.04937273457169,-67.52309668236542,-34.82547815583924,-0.7831930198636021,23.153058131137854,34.09004583868861,38.161951927560615,42.49559163516026,47.326270342015675,46.909873709113725,38.791140747817266,28.844142464734514,25.043393939110253,28.744927288958632,33.76245520328858,32.65574950692566,23.35321207788565,9.826472160961371,-1.9667323051493404,-8.064685339120054,-10.62210470791311,-15.950885676762693,-27.332275018591897,-41.242485330122236,-52.7992619552208,-62.6981942687374,-71.91078236696616,-73.59176036764764,-60.03102737421537,-31.792886605697415,1.0473312694893921,26.06010287142106,37.373634247657456,41.39306412382781,45.339194139738666,47.47938131816831,44.120450528983795,37.65052070664129,33.42817267637323,32.312310383953765,32.1871323492336,31.6636667149514,29.165679841686902,24.480625582830044,19.092145471295005,14.068826486116055,8.508128161531522,0.9114126107449637,-8.56861695640419,-18.80243515684817,-29.23825711055604,-40.053584547226805,-51.19199464395223,-61.95946613067089,-72.56607842782994,-79.74433460642895,-74.58103428448761,-53.71170000932642,-23.69341040315179,5.190489174684945,26.616193076799924,39.859186433930596,46.374588657940926,46.816627680941686,42.94141108521805,37.50346877219409,31.525857473607193,27.35175694192844,28.350434063875138,32.125224726810124,33.87440206077114,30.236440451565265,20.149760318426537,8.935194398344768,1.9142425453371936,-3.2955794071611737,-11.207449212790753,-22.74980238847293,-34.71464072797258,-44.13577519308516,-53.59654126393344,-66.38554089829938,-75.07407436640807,-66.08103749151806,-37.16920345426974,-1.6575236220692102,24.222595282679443,35.86594553123003,41.47401443633064,47.33808454725766,49.21778627524443,43.52063251912405,34.977917405427114,27.871465108992652,22.655357614318316,20.96853965864583,22.56201046882487,23.36574860235774,19.827976680426616,12.040893164867189,2.7645036621503882,-8.010941937949918,-21.014441432935598,-33.60245683085261,-43.50370378424443,-55.0452544791573,-72.64847095404477,-86.62435448421857,-81.37549068422442,-55.31240029768138,-21.027415901186252,10.00203114818371,33.570467136728325,50.03701519509768,58.466906215261176,57.50704157529097,50.71927897624491,43.767825172826264,38.14579933279847,33.37383989455393,30.3040198279484,29.661645343581394,29.189512206378154,25.96616934636786,19.053642536551532,10.766793773308107,1.8367593803877766,-10.571217680145564,-24.793275185289808,-36.63851514205242,-46.167763864432466,-56.83309052496975,-70.36401733328977,-83.85282176515933,-90.15099242141181,-78.78328627356959,-47.230601106977744,-9.40859626803381,18.939225990708408,35.13850937889377,46.449122232869996,56.4757266627873,62.17158858883991,59.494677109552825,50.947620919507166,44.63926018111168,43.309617688837015,41.4489254765417,35.26234958464179,28.438138886975725,23.474844113656754,17.297798605063445,7.238687060598848,-4.477561853043534,-15.813093200910219,-27.28164010388997,-38.72744788629864,-48.40713329118264,-57.829607189208765,-72.99883089595531,-90.91136035393578,-98.32805573690318,-86.6883020858875,-56.21558458129433,-15.390744433626745,20.66327960561204,41.78992528015343,50.8984614588979,55.81459093623672,57.381060562012145,54.201971401239916,50.35300562597195,48.49979067122852,44.693852221459395,39.54407269800206,38.81917313659546,41.765820510585655,41.02140145678928,32.68493660085383,20.752249135372082,9.419368644202816,-2.149742043673553,-13.359252649931955,-22.707691780753237,-32.289479520943466,-44.27201521880232,-56.88918829920786,-68.2422012423194,-79.31902517364257,-89.912897908219,-92.57662398039274,65.0,119.0,75.0
7.491997329027192,27.50926306001241,35.582613998795225,39.21159132252151,44.04260728292199,48.00598120325481,45.23447831555399,35.70438887782392,26.88051084110013,25.511454059582487,30.431172188820046,34.30665595851731,30.71158631723215,19.625548083808408,5.983572001460546,-4.350559145648938,-8.912311029208759,-11.611448910546535,-18.654132727520874,-31.3665865629883,-44.91629674047389,-55.67431405349504,-65.5966240153044,-73.58962464239113,-71.42823734676033,-53.06664217890306,-22.203616200901642,9.55241435239145,30.659691260204468,38.821283778003,42.46317547789239,46.36736703084423,47.10956574037188,42.30571719542322,36.04975394595625,32.87648068117199,32.24869735823616,32.13959454614505,31.2038841676235,27.982450539006006,22.926778745305093,17.59780998525954,12.604611652973375,6.5471350075859185,-1.676256745299277,-11.497320613531794,-21.792263960994752,-32.313676359109444,-43.26651966060951,-54.35426300995087,-65.03908752232937,-75.3490640196542,-79.873646282953,-70.0319954743167,-45.51710319451354,-14.833011142323441,12.26522284393499,31.22111132828969,42.38656475985317,47.09670522951794,46.00466996178031,41.45029942950691,35.80498407616993,29.9312951734604,27.08936671470208,29.388545782357067,33.00702433239443,33.504370044451406,27.880289294245237,16.67066545323483,6.447750152984388,0.454212890192683,-5.17118519126743,-14.253122458970878,-26.35663973877387,-37.708109292750336,-46.61902886473282,-57.020399855193226,-69.94850893840888,-74.73318977335228,-59.40763865603148,-26.78227916141688,7.324601276809332,28.836471666689423,37.643641241113805,43.16062195409032,48.60942492991664,48.25724262148498,41.05491099199242,32.73188205046995,26.136239178222972,21.721703122069137,21.2333773924,23.07624664367174,22.873709182593736,17.895415407248013,9.432614440918268,-0.1117687778338377,-11.599108678629557,-24.860803855173447,-36.70430229512083,-46.31795401235387,-59.623596736923986,-77.83325455762073,-87.5294003334448,-75.57087093846891,-45.60920257192099,-11.411798275890218,17.60128403877794,39.03338873952135,53.411158724044995,59.107128852407314,55.86239222233992,48.56688697583237,42.03680008338905,36.67492235949561,32.240615962817145,29.91353957756401,29.655114718960103,28.638448183552025,24.29830983402382,16.666828563547796,8.37146779053717,-1.3301051962940882,-14.712235263357078,-28.561809748741123,-39.50006791262041,-48.98053307950448,-60.487729911793835,-74.50181052536547,-86.84535329820064,-89.10114170472613,-71.38290321777328,-36.10290485818233,0.17442705007916967,24.612972811066506,38.59260325933038,49.52565780246846,58.78607390734368,62.332084810468714,57.28296383654774,48.59426806578573,43.875252630982565,43.145284943576264,40.04091877071742,33.13264676260124,26.86944605015814,22.014476850581765,14.769257883518677,3.8698550731435577,-7.792284656695735,-19.082195223795118,-30.65311274428839,-41.768484858204765,-50.89835639296681,-61.457699246564715,-78.41232008024849,-94.69580858279369,-97.05600861571541,-79.6186250756421,-44.87305544339059,-3.820223517696347,28.418454771360732,45.25808895917927,52.551503939569535,56.738454709636315,56.87453586009646,52.898771269426895,49.721315114042675,47.76416800630531,43.08054551186844,38.71724294049959,39.57349554019537,42.25090347747819,39.34303181752068,29.319694630137093,17.39711014124874,6.151304013900344,-5.534327336596028,-16.229433548763204,-25.297100258845155,-35.51460674517447,-47.98680937916145,-60.30203841020752,-71.39082739427829,-82.6010657896951,-92.00348588576115,-90.26085804262411,-68.75320350797632,-30.824280153936847,8.431728181413423,34.73229653563768,46.85355322447482,52.641805723176525,55.4598787849587,53.1818629447432,46.51017012863116,38.44567591575883,31.316777168310974,29.304974006478062,33.4444485572372,35.74128935713934,32.95446726876328,28.778267826727344,21.701384565358442,11.770749460720635,2.5326668899362037,-5.488858425867942,-13.185769456647499,-21.399627744947416,-31.852550717366544,-44.88339596090244,-57.71306852965347,-68.06072671273098,-76.91206787865917,-82.71709980087738,-75.98092535002276,-49.12220296341803,-10.759042274884228,22.186968245194013,41.01503081217413,48.20250904259647,49.47422714773099,48.302644022090625,44.736663214793325,38.36585347725566,32.36454619652929,31.57830559873424,34.577351835370116,33.71781183938141,28.67054608588436,25.976456083655385,24.85899800644406,19.920065191590012,10.76836967075897,-0.6986762064165806,-11.139709268418548,-17.506413322826894,-22.536632683903797,-29.955352954681533,-39.039966365383975,-48.04347747535541,-59.995806809466714,-74.35721010965075,-79.23867205663912,-63.569745334573796,-30.782532453266548,4.397442502359374,30.093984245263893,44.07671078064499,65.0,119.0,75.0
34.06088596853222,28.594765336292536,27.309299090548183,30.532728892955202,33.6195031998749,32.60672224892118,25.000132071590812,13.304386937336037,4.371431523578525,-0.981830276676174,-7.366019551493938,-17.57648854480827,-29.88820094555494,-40.44766812902559,-49.24227148584614,-60.752733783324516,-72.84709640142827,-72.59743182507569,-51.1967382426164,-16.283412545783413,15.148552398412315,32.316439684852966,39.1991069002935,44.921281482769395,49.3491404337598,46.66768191754734,38.52895179027888,30.65021380158148,24.559490185149578,21.147940397532185,21.712657589588222,23.407289251779044,21.95271931742755,15.66043707661101,6.768506736333111,-3.162344556815046,-15.360832790117506,-28.57680388986584,-39.55570766418174,-49.470571900447716,-64.73522058724897,-82.30673697730158,-86.49248509851496,-68.19054233856741,-35.598367710207704,-2.2750008476524464,24.544184675045884,43.93405775514146,56.0504460683341,58.95826105820096,53.87959076003543,46.51898276073623,40.40268144378015,35.26805944782894,31.290890108759413,29.7213177528008,29.579677310939847,27.79492954688718,22.32851002569139,14.25548054462641,5.878833393583533,-4.859579997545826,-18.889034823425078,-32.04839434103355,-42.225437468664474,-51.9850915092007,-64.38464136571993,-78.52320105520971,-89.02421430691555,-86.29171623956711,-62.40203894260633,-24.926953254697292,8.65964450013148,29.370161405092723,41.84804930527193,52.498666158599136,60.61632409300982,61.70944819272457,54.74598003100965,46.63129795174993,43.49941168254565,42.73760233708136,38.26534192617209,31.09275199421269,25.454704253310553,20.333319110405412,11.897613368762844,0.4590739151546603,-11.06300082457315,-22.386827401136017,-33.99932414238061,-44.60414694429369,-53.4796981471635,-65.72423370518285,-83.81668764588488,-97.25216429048204,-94.0826476794437,-71.046362610799,-32.96571288991446,6.950462305919921,34.79107328043689,47.92995062495165,54.01267254758555,57.312674816901236,55.97490417850888,51.70236269388021,49.23764576680747,46.730438874083326,41.47908298843303,38.39730776593116,40.509297337801925,42.22377910021832,37.01387755771539,25.823987292034342,14.132642536494208,2.8145197899423797,-8.828843599540763,-18.932050639291706,-27.996922622908695,-38.95970580763746,-51.67362149855151,-63.5911014700102,-74.56983450308552,-85.79342930507835,-93.16396292419762,-86.20512379319898,-58.97267195926795,-18.821093106884316,17.699112312991847,39.39924834964415,48.850645208967116,53.83660504094534,55.385800303352994,51.569286977072764,44.21854380004482,36.15641146537892,29.99645405116191,30.099432890670304,34.69108220241818,35.27610358179954,31.852166955777292,27.15473563189443,18.96227877700644,8.932029998248401,0.14056888751731142,-7.7244115192455896,-15.438102706053467,-24.121155898253186,-35.42152091418134,-48.776787708791716,-60.956260656096916,-70.71167387497515,-79.18037628269994,-82.60034348345535,-70.24609946209236,-38.46301462546711,-0.04652821963161624,29.12300113971988,44.02479139910061,48.95952252480615,49.328471289374846,47.5703652968736,43.13099368840858,36.35105464914932,31.480382730690007,32.3671565384206,34.99107479355388,32.39257866887063,27.473472840126956,25.766947756138762,23.948956660754646,17.626147706596058,7.596290855260769,-4.0268676881914045,-13.39070271256236,-18.871275852097234,-24.377995748915346,-32.53816863660253,-41.60645924341897,-51.011279838966495,-64.24631430327847,-77.40900587364686,-76.99530836046841,-55.30224438451997,-20.172295674068273,13.06723913947937,35.246483404228535,46.27529628051197,48.79101900610466,46.43705298715079,42.3405588207568,34.4194507337017,23.091976289465855,17.013482279632743,20.470049155917085,25.643913545780403,23.379077813555686,15.89068622320957,10.511034880774224,6.460854280233916,-1.7623196769380314,-12.677639307309892,-20.39295624363731,-26.365786197914886,-34.217428299957525,-43.229393051611204,-53.0767316738871,-63.358980135070475,-67.26821619778696,-55.55109209583437,-27.31269810328256,7.000495538258753,33.6054294123617,46.0604581736768,48.83101268733731,47.89831937989002,44.655423300351366,39.916154822629736,34.0592514329987,27.566409048057743,24.23455570806169,26.781987560956352,30.185660452776776,27.532777381886866,19.366623379048562,9.264653192375302,-0.31702260606993593,-7.587410544269488,-13.400021878342498,-20.79892675402369,-32.47725786896187,-46.424490664764356,-57.42866664209798,-67.66533822641915,-80.82916398275395,-86.98377217935243,-72.62879355984906,-39.5285816801012,-2.241250378285353,27.025006705347646,44.38158153808023,52.805600729542185,55.925623074243354,55.365360284507595,50.76701955608473,42.51572242387332,36.169570903748614,35.7605281073469,35.78360000301397,31.03048484547205,65.0,119.0,75.0
-22.972393651086218,-35.24966052041718,-44.913100203376814,-55.23992334957132,-68.45534817839042,-82.26936238074909,-90.10496007159455,-81.59060895018015,-52.21185513862238,-14.143689920894076,15.963559280625551,33.434232915059766,45.01001430261834,55.28423032430325,61.84131131112594,60.34371031682483,52.12243190872434,45.151164946647356,43.353255994048205,41.95471439588533,36.24021215582368,29.22814265183559,24.105648877176126,18.338749425232454,8.75372264496061,-2.930993562832726,-14.313569965564337,-25.730170918329083,-37.26562621268728,-47.24142288829924,-56.35230005755912,-70.59302433609204,-88.83404974844358,-98.35390842441755,-89.40680211609744,-61.153577166390974,-20.895634837683435,16.62819134590993,39.85372226981532,50.04952541140093,55.29521215701668,57.46427003695556,54.79688796945189,50.72083098044867,48.76069176880184,45.39294168780477,40.07629037659314,38.583380108744144,41.416798547431775,41.56039004803075,34.14595363179596,22.334518601857706,10.908932540811621,-0.5784996610395312,-11.972002552569604,-21.52580717515622,-30.882764763250613,-42.571506620922925,-55.27124256036115,-66.78713325907826,-77.8080381121043,-88.71857986631524,-93.0962999017478,-80.36102309661527,-48.04217021021121,-7.162485668269396,25.625008405091393,43.00371761067873,50.53959111323485,54.76391926715016,54.82788548602706,49.657735695493606,41.87670063238,33.999014011759826,29.24375750036345,31.340017954991083,35.51411953876805,34.45911808221909,30.701185472021955,25.19375811286806,16.06038466833777,6.229558980462979,-2.1778446314975803,-9.944460133780513,-17.76398399242615,-27.076838359585857,-39.187092428139316,-52.55292380496852,-63.97392072286594,-73.29026554720159,-81.09036672591542,-81.11984878200978,-62.754820833643095,-27.23261288747984,9.806933060353748,34.80311800507082,46.20203748981103,49.355251094629935,49.02920448092477,46.60846705578739,41.297055674794166,34.493166409422734,31.139282211681447,33.335202702970854,34.87640237080511,30.853709112016297,26.627198120377727,25.5500405066475,22.614906764979807,15.026245297630643,4.271934459703465,-7.153332230690004,-15.26708132244497,-20.254270740417617,-26.475640812044904,-35.1914071901862,-44.15249729078532,-54.3583227724629,-68.5727748704185,-79.28304899513782,-72.85743343166406,-45.86029533497893,-9.770984187147114,20.7454809722037,39.45928852356143,47.75703241685488,48.4028037734999,45.43221341129879,40.5943190805344,31.216387124936112,20.377318909247876,17.185666272736402,22.318379777128506,25.905101502222752,21.38132758242194,13.944897011994216,9.47565037343463,4.645306731209536,-4.943453527338413,-15.346354133063658,-22.063294071242215,-28.412601653452587,-36.770196682485484,-45.93997621881792,-56.15979227872908,-65.60030071477873,-65.76529231955986,-48.80080752971283,-17.38416832268299,15.989940679373191,38.619904327182645,47.51441998545689,48.81214683724287,47.1857859023088,43.38914119347786,38.360665666412125,32.14306751258275,26.062264555386925,24.421602669105624,28.0746905519238,30.16323366556122,25.567916573785997,16.5248021627144,6.340295841007828,-2.68092273595325,-9.3044468441453,-15.221402286318213,-23.68974953313081,-36.533759574247455,-50.01265320212979,-60.15035705272278,-71.31706970572995,-84.06338311017657,-85.23639831770413,-64.45251426978739,-28.50299519047668,7.374971594752414,33.21728634897054,47.53451975966812,54.146015959281634,56.11846181504122,54.5049110571341,48.61021607184781,40.163354528307366,35.513650769301,36.111636876555636,34.86933927289339,29.162360632395377,23.10692098326419,18.273175408085,14.048957080245541,9.537664759932747,4.2448797187091225,-2.9928419464911213,-13.990323541172131,-29.14989136670631,-44.083070481491866,-54.179765501846866,-62.25555979111482,-73.94823832580933,-86.6510361719875,-87.03949116091616,-64.83460129525486,-27.703169441742983,7.520265141618623,32.11131864183758,45.07735466214413,49.88723155193417,50.908788754461675,49.531309427013966,46.47727311158986,42.271949777603346,36.79272735866158,32.53648885367925,32.57910160060013,34.6462349058708,33.93192276092564,28.235095503905786,18.173928177319596,7.643602964614757,-0.2729480878682986,-8.100542989511982,-17.89279577853612,-27.476334106795836,-36.147765427371176,-45.87481743758002,-58.07750260281771,-72.6527309105571,-86.29498578226912,-89.10481717910702,-71.49346867456651,-38.64696359713338,-3.8410207611847977,25.957706355138367,47.918005229544846,59.36695304164359,60.310278460655546,54.15771797228486,46.0355102065624,40.96183766608409,39.42774848631008,37.45919895112173,34.18018414200787,31.89287196440028,30.071996394590858,26.476956833229316,20.533580829278986,12.572069748099372,2.845960297749112,-6.2656738688975775,65.0,119.0,75.0
-91.53785029178712,-72.78670258424377,-36.350117317521324,3.7468792430196394,32.16728135538451,45.7827959366526,52.020672410392365,55.33710129372241,53.80050467731025,47.53642739223335,39.52342563782222,32.08246556572931,29.135694950075784,32.78609278996957,35.79592571795322,33.449694218214894,29.431569569273304,22.878178294479422,13.114590012302756,3.669790590403172,-4.450942535430302,-12.160184971308034,-20.2139383067511,-30.28677070877399,-43.07537979221759,-56.13740458812546,-66.80440280560467,-75.7957916085954,-82.39819953318985,-78.01146150720423,-53.71865810582156,-15.89686462890881,18.561645716688755,39.303903287306255,47.70049303541816,49.48442462700986,48.57235084673156,45.389191590500815,39.30707742947402,32.940444036098505,31.331681813794596,34.24437839027173,34.20018609764472,29.32039086153791,26.12064624220086,25.14783790217178,20.86041211777915,12.164863576156442,0.8692814897341562,-9.968138041601062,-16.846380267775753,-21.769781888170918,-28.81152640394573,-37.83722709841234,-46.77375560797237,-58.12756156689501,-72.65784532055025,-79.64906175737293,-66.88920875071591,-35.64073191221196,0.09809130275712835,27.38275500120381,42.806400955600424,48.5842395902865,47.725878455806274,44.31880553867033,38.42016820533242,27.83323725147697,18.37252316638309,18.1343539155145,24.01436232055967,25.389223712262687,19.137424433110294,12.329126867973123,8.416213063992288,2.3596278097519954,-8.19903458458697,-17.631232135683206,-23.72224609467173,-30.658305042743567,-39.369957794339705,-48.74873102008247,-59.23548055270061,-67.06531194153752,-62.753423274120436,-40.77324154001069,-7.290519061709098,24.00997688563773,42.417725186250074,48.35417777744303,48.58305499390113,46.27937142573571,42.03352757254612,36.69748051873743,30.20901068195189,24.951473719648543,25.118302319423986,29.219109475386663,29.521482444211685,23.23319955933534,13.5955946405382,3.5153222988921486,-4.819990911361273,-10.952946690355503,-17.26113534965645,-26.991944094419814,-40.652853461051635,-53.24045327593182,-62.984153554565076,-75.22122136700666,-86.30940228103636,-81.5205758988431,-54.95207224505688,-17.531692365477785,16.097767545347573,38.40722762186934,50.05769396425393,55.11001550247941,56.028427308120165,53.27201093759318,46.19471572174922,38.16459153711651,35.37378800667667,36.26595585909429,33.52377116014118,27.29926392078996,21.597658307029523,17.033876990538946,12.800538343457363,8.118492763035187,2.429248003749649,-5.705726917827816,-18.035874191410166,-33.779815703908355,-47.5311794929115,-56.42473572991878,-65.142136647967,-77.9570856717057,-88.72123509258373,-82.98452230214632,-54.87219080981348,-16.72820275977594,15.851744397077958,36.97716036534929,47.071808520444264,50.4564776774962,50.74250193265628,48.77110543817804,45.39901184568771,40.77930060012931,35.2499126900932,32.08408751708492,33.20378967599671,34.8779734007974,32.828796538529296,25.661211704573475,14.958285644856197,5.103726423736709,-2.3603251457899153,-10.778249383270738,-20.791499877092445,-30.008611250937058,-38.75673930429519,-49.124438499931586,-62.09195733482138,-76.99741432799561,-88.78993163713287,-86.2288730658997,-62.95633539582421,-28.32563081516079,5.417993537847341,33.23897479311187,52.3820279711742,60.615884032266145,59.060024627077915,51.75747206792478,44.11299450247664,40.29602347706266,39.06550912969852,36.534651857045844,33.36928472831422,31.42157284689494,29.286547475886287,24.977925770400375,18.44159795935833,9.897646980357655,-0.021117936972787327,-8.32231129131536,-14.50693399388201,-24.665981168516858,-40.56583367731359,-55.369275493127006,-66.81578926252675,-77.96810640507667,-88.42257097556342,-90.47230219101667,-73.29235696048818,-37.90845710153466,-0.003208630299784604,27.916727596308043,45.434821655890055,54.32358954910024,55.73495857318488,52.28032562769941,45.64178431730189,38.33218979220662,33.534090892209015,32.541877631563835,34.44321292079447,36.388558494732685,35.644693865200466,32.5765205350872,26.49298860554136,14.633526237474369,-0.28159024956887335,-11.086895419301339,-18.478079693791212,-27.33786697197305,-37.09563001689094,-46.65577739010815,-59.65432445511432,-76.1561806620229,-86.34500723143242,-76.97087381938917,-45.726529171256786,-7.212239260245239,22.08202539439113,38.00065346520169,46.183086658784774,51.38102988792591,52.3736861740003,47.85475835238007,39.78232323141602,30.874042943283776,25.877531045876086,26.870822222372635,28.95668338179086,26.29194203186804,18.300649132004185,7.501419402332799,-3.1010960258113753,-12.34072658066568,-22.59269602269587,-35.08604568969607,-46.110276649403744,-54.80667666911238,-66.03304487408042,-80.26866727103962,-86.60372027184245,-70.62885385440126,65.0,119.0,75.0
45.35407969149695,48.838450651841256,46.87017298066923,43.025823504527324,35.78213009654107,24.51935745391829,17.231588104107264,19.652253654109046,25.27359409383312,24.15267236862669,16.87985748234489,11.029082063935212,7.15437164943653,-0.3760785936177806,-11.326418984581403,-19.57873423664235,-25.490995128929374,-33.06666520856834,-42.0020850850575,-51.68269673743174,-62.13838769149913,-67.48967212936803,-58.178214037468244,-31.73359855070274,2.603348602102789,30.866338328736937,45.128184282338765,48.75554324285684,48.15963722572111,45.2010428057409,40.60237082547645,34.916866588887345,28.357982601188613,24.334937714441793,26.20255052754654,29.997166896424275,28.28437229397349,20.631421688922906,10.63004041451377,0.847081938770264,-6.753724416746773,-12.61009022508324,-19.60023119660346,-30.67461536415485,-44.6589074599899,-56.15510435958066,-66.10338684597377,-79.12594068281437,-87.1578887107286,-75.85575578165628,-44.52886875367423,-6.930963260608315,23.8181252585879,42.68511381185931,52.04677788035054,55.73921028488625,55.6466576472618,51.64623351841828,43.66780470845233,36.66710419548001,35.595426523549456,36.04303712206173,31.862982203543424,25.514245530334588,20.187652876727533,15.82298686523411,11.50989307286821,6.623993205443575,0.41218426364205796,-8.782229039841662,-22.409392130490232,-38.22482162025679,-50.51010994412926,-58.65662922339652,-68.44812235626398,-81.86473540010259,-89.35360070403627,-76.91470459419199,-44.05649417859783,-6.302409342226276,23.19748154690345,40.889512495763505,48.5146377485632,50.7915377267169,50.38028743110625,47.90167060738074,44.21904159729748,39.183100138030134,33.91175587359917,32.03885930383021,33.87308316895271,34.77780547441183,31.281267615658095,22.766894292190422,11.833319969481773,2.8096683190096714,-4.555780287707902,-13.616322537463667,-23.595191910568722,-32.49051901106187,-41.511423943935704,-52.59858581519044,-66.29472799691652,-81.13541758805133,-90.0630488003724,-81.48722635676577,-53.46161302300143,-18.142754045223043,14.175599514294099,39.79743282330426,55.90911150929212,61.02827936131146,57.321401565143184,49.33260789933361,42.55149333986061,39.871751567104496,38.548593678138744,35.551686229495594,32.688510911772475,30.93849390346514,28.300820599897555,23.295114133594396,16.181918482472483,7.085389559412088,-2.7402678788002737,-10.13847326243472,-16.745774475798406,-28.89489443405605,-45.24916407842661,-58.88817935943028,-69.97943818543382,-81.24116020032591,-90.40883642900432,-87.79044032419016,-64.4132483124113,-26.42745712898717,9.285055244770282,33.91691859112725,48.87222856307835,55.38847084298119,55.14287592336171,50.61691513669355,43.444554304622955,36.58063346007515,32.86392761997952,32.88075260001179,35.16563867468044,36.486132437932,34.95215684204592,31.26043242736105,23.71181286419317,10.295850876209961,-4.007246875186201,-13.311961762058624,-20.792052603328393,-30.201531976827443,-39.775670347669646,-49.886531334622546,-64.31707147392488,-80.37737045835362,-86.08580152384445,-69.8045133182747,-34.46541253959322,2.6515116610588354,27.906055696948805,40.84307113696119,47.950764877089966,52.229968093136506,51.58163038051534,45.784427309686166,37.12278326034623,28.812168509900633,25.64775490807489,27.688793552453905,28.80367477083825,24.443952669076573,15.332109047723089,4.3046798220103355,-5.866753971080625,-15.047487436215993,-26.074899500737555,-38.603191756556754,-48.69799761437535,-57.577564650119896,-70.11102283243213,-83.61915566930713,-84.70510899706105,-61.280927046175854,-19.93951226874185,17.813484684511064,39.035567501205314,48.75532207958449,55.01821553946374,56.863570729050664,51.478906434580004,41.261369505444925,33.79275010189023,33.354612409146945,35.969483594210104,36.72346432701769,35.727036482354954,32.47059345183229,25.370245073634905,14.368399769487164,1.9983232230288432,-9.090414993562113,-19.63145458986514,-30.23505209695588,-40.978298902912755,-53.058069724307785,-66.94885333307907,-83.5440899086663,-98.26694107785201,-98.3784488869531,-74.98966286881199,-34.943940697095876,4.471327256500762,31.696218305519892,47.57802142912269,57.678868560105414,64.65813674676522,65.26535651982265,56.365655984575845,45.25257384333851,41.13555775580723,42.132941827116795,43.11790364317475,42.31754184464399,38.272118072468785,31.446633270744172,23.36322934897522,14.45380950771325,4.248639373649864,-7.188700234851068,-19.412020746437587,-32.11286575973509,-45.301623447063115,-57.65575137346028,-67.13091328722012,-76.62436799744822,-89.69325765162752,-98.83493615518866,-90.00895257059996,-58.31868000937506,-16.00331253057396,20.271566931917295,43.0637794588718,53.73958241370115,57.32643455545975,57.33738780885971,65.0,119.0,75.0
30.029084805903434,23.839800219037922,18.861443642219903,14.61314893422121,10.17184612273292,5.026152497406609,-1.8522332144203844,-12.254027613809011,-27.00066134271397,-42.33330054978989,-53.090122131404065,-61.05290797838391,-72.14425833871218,-85.32018349525298,-88.22060253465231,-69.01035803095951,-32.865562534047875,3.36058060756643,29.532297077238553,43.93415972115419,49.53220042304085,50.91817325340989,49.83636119243988,46.94526844304254,42.91691729037056,37.541426972803485,32.88363709318999,32.34614202874084,34.447212764917865,34.29422107083446,29.29331991043815,19.651512606570485,8.906601091088584,0.6822067537921577,-6.933641112656072,-16.53983711549494,-26.27837561665713,-34.98033956181478,-44.45038497805349,-56.2976655822503,-70.63237411312178,-84.82487351421155,-89.80663933662541,-75.00243442912327,-43.38891465256385,-8.26312429360993,22.378725112938298,45.554055067521645,58.490322418560005,60.69095835585889,55.21581835717343,47.024800942412035,41.37747485810539,39.56554725916224,37.84312965148824,34.59396752217089,32.12412052565909,30.375763727582996,27.101133925861227,21.442776636447643,13.75060627686335,4.188389216348201,-5.219503453595966,-11.83999253754928,-19.514624330361805,-33.52780370654114,-49.63175525437498,-62.18310957165384,-73.18926278171655,-84.39870193267134,-91.41622021403154,-83.2579187182625,-54.228759364687456,-15.20847935314557,17.56665557981787,39.1307374079144,51.597106701063375,55.880442408522995,54.20660610475043,48.717022031482735,41.274620536010936,35.10933398800466,32.51571519318118,33.42525949187517,35.79839896836163,36.317310558131496,34.105846913130094,29.631958443552577,20.380267347659128,5.8689153547792605,-7.229129420001671,-15.387593520066321,-23.32011161945487,-33.05607985663929,-42.46485408585744,-53.52871752471297,-69.18654993602381,-83.7385370364461,-83.88407611228301,-60.93347411523081,-23.092681445121034,11.427040428223435,32.653431546820514,43.229704173185915,49.52659029504015,52.64528163524134,50.3409535430666,43.477204202874084,34.468328257377294,27.21758104983026,25.903221726276815,28.413586722274953,28.15155383888409,22.18975727759174,12.201912614718657,1.1976122567768297,-8.520924157856467,-17.93524718099308,-29.718616128971377,-41.870372977995245,-51.15138580447459,-60.71000894910991,-74.35254850493847,-85.9336302528297,-80.61848237902177,-50.31968841198083,-7.740833402164816,25.704434056226525,42.53694156560506,50.807048560536465,56.186958011713216,56.071329463603846,48.74194393665805,38.47846984220422,32.98365055409792,34.10061552232877,36.44043182952516,36.58000748993223,35.10044946900196,30.857829795635915,22.531713698750668,10.770135871315413,-1.3621433015336843,-12.120777015450384,-22.712765051308196,-33.27168909642798,-44.30376707439773,-56.84432937168667,-71.48242594085748,-88.45456548043533,-100.4115358981331,-94.06446959006598,-64.43018585204914,-22.742765983068807,13.752775481364417,37.205669241676134,50.875714400041254,60.04771077168579,65.74367765276465,63.575418877159535,52.831523669566494,43.21483294997188,41.18602789904579,42.535088178395256,43.132543540361134,41.52101686716811,36.50315983672051,29.200438744945288,20.88414110657318,11.658538139915882,1.0452636417325045,-10.65392941247438,-23.03962470194712,-35.87753289982251,-49.085038197810164,-60.685474767128916,-69.60495199871542,-80.11166709996286,-93.35897256260733,-98.65756471549224,-82.9525388694775,-46.3539505117752,-4.36311500086049,28.3080545911525,47.190962264434845,55.284618998843705,57.63194785231376,56.803342187670886,53.30435810588138,47.933677056044885,42.04112464661798,39.29315720101888,40.969864718951754,42.51747513168705,39.624169799242935,30.81460625218483,18.929829107005798,7.692080566459509,-4.545304832152533,-19.659086583072742,-32.89156394682987,-42.238356486426056,-51.65867677272139,-61.57924730992554,-72.60748518573259,-84.3384417808848,-85.10266186504923,-62.7736479852656,-23.409092391633692,14.691261901689806,38.369560600439485,48.298031243698084,52.66174135650317,55.14879423900865,53.14347912040319,46.559261248275426,39.7294279162045,35.588288141538506,33.62745620282317,31.65555348666696,27.930165394694075,23.093299071939928,18.881431214212917,13.894233570710115,3.884111487462385,-12.250308357047611,-29.24357408031472,-42.04014510578802,-51.925995266652954,-63.01059793471353,-76.57066103587547,-88.77154507141529,-92.0576300199566,-78.13411373119686,-44.80276275574748,-2.0106895983471853,32.617533608097915,49.2906643828674,54.62193553661522,58.39884100065135,61.91094637980374,58.946482272328396,48.08268163494316,36.48822696420407,30.65353792569152,31.901833630669614,36.601763234026954,40.073411364925676,38.42343934820151,27.857888964437524,65.0,119.0,75.0
-7.408903925786111,-13.61023199856098,-22.898658830729154,-38.3465107840224,-53.64297257223885,-65.3627275287149,-76.45243479014663,-87.2645855311975,-91.1251298618251,-76.84935918525925,-43.1700326929004,-4.609113273719265,24.863836742938016,43.6103146863536,53.619438846555994,55.88001067191586,52.95604183465084,46.63913214677177,39.219214310668484,33.95479619369873,32.46926967020361,34.10650058460743,36.255427284438554,35.90518736726394,33.10219296187475,27.59481228865793,16.542428346341723,1.585913901590334,-9.963938994869862,-17.47517036665069,-26.038689481575986,-35.84054470355547,-45.27938432264599,-57.62215572162341,-74.02140976561239,-85.87155492249434,-79.6247630064785,-50.74171007650612,-12.069001057090404,19.00119470689051,36.48802400856398,45.304169607524344,50.86490509526732,52.57486889003153,48.715223942714246,40.981272269281824,31.949501011539773,26.168868852618644,26.515055758260157,28.872858584419046,26.991466432420726,19.593577395271183,8.988963081600875,-1.7784522592166738,-11.12913932080443,-21.064129997774085,-33.40731054114244,-44.83912455266654,-53.61952270370394,-64.26033963149773,-78.4893959814817,-86.79871404706809,-74.28121250408934,-38.26831229132521,3.584083133219071,32.086472914893406,45.35550036201425,52.68716174909777,56.881833217957244,54.635887384088825,45.72674444311051,36.141471643120695,32.78475424545346,34.92779618331144,36.69014708265581,36.32684490735438,34.24044126109815,28.891975443333642,19.385520639895528,7.150449607845145,-4.578995074616685,-15.155138937062935,-25.78494638516246,-36.34126715854581,-47.76549768578201,-60.79273510454195,-76.27126065299807,-92.99863001297769,-100.96890301948049,-87.68269461648613,-52.821332880460155,-11.050088424225779,21.862908076156362,41.892140653659816,53.826657835813165,62.17276932095446,66.15071465024586,61.07440172708202,49.421559109574964,41.9025629915322,41.50277568432681,42.852722701113954,42.97099795518032,40.414981401850426,34.547702810609465,26.876092572264334,18.336395332530078,8.737231559079708,-2.245857453018813,-14.177861978079832,-26.69899582978616,-39.691928999107745,-52.731545658403824,-63.44323799220676,-72.22755896702235,-83.92605153810854,-96.38054636442867,-96.63222818274598,-74.02922384690079,-33.95648003746698,6.422462762939507,35.144940616939394,50.404585295769444,56.37121509564212,57.68817028486057,56.03890615368143,51.908383399962425,46.169410776818744,40.74227915206999,39.45404788586659,41.67180393478619,42.26382289772169,37.64987420687166,27.478119396643358,15.569456310976959,4.448740020689648,-8.727460612457376,-23.93460871407211,-35.841276179262984,-44.83034680444128,-54.53004872789834,-64.53484838618914,-76.20321695724554,-86.43110772972254,-81.15659827321905,-52.415628196032266,-11.46167336903618,23.246632461719596,42.31734615967187,49.80495818079329,53.63003015063449,55.15756608494561,51.553691320926674,44.414583656147,38.220943023095664,34.88643367682987,33.156590029156874,30.794396535403802,26.544587914335843,21.79470610186418,17.687877087826624,11.689417175797189,-0.28260145756692,-17.38713415315741,-33.43706248023503,-45.00891640099481,-54.85942686794003,-66.74878723000934,-80.51869289256155,-91.02535872853112,-90.09893991975521,-70.29207754593429,-32.68451049332234,9.57957233049993,39.24269133093835,51.4691696835754,55.61653054639172,59.647436246330116,61.992864337713,56.393595053878194,44.436905184632124,34.04762865221908,30.369748217926293,33.14120592908038,37.88686991286951,40.338209513002276,36.32482389177897,23.39247919474654,6.760812851917733,-8.286817702221443,-21.318136733943618,-32.59854946307352,-43.97057264466926,-54.94902310947713,-63.19289508101654,-73.61698213769304,-90.83551617162698,-104.92859178919302,-97.28607148705002,-63.25747966372533,-19.46803576177759,15.644315234492089,39.400994639310085,56.07377996140096,63.7073783336212,62.71554790692412,59.165672697938156,55.943308225167236,52.43825133930619,48.755444399541325,46.81944883633593,47.58673771919021,48.352029399488885,45.429587496289216,37.13883628562134,25.286353677527167,13.243887581525524,1.4017581060923452,-11.23799299784098,-24.424349852754787,-37.02844016896645,-48.18245537401989,-58.666576171942836,-69.70407142193754,-83.84186487174132,-100.31044125790625,-107.10035864151651,-88.71956386872439,-46.86546635953213,-2.523337583690068,26.631066707015236,40.06465425780006,47.513501518365544,53.80481510484073,55.67459090368244,51.653299463580446,45.2037042454498,40.010505615547785,39.42936516581125,42.43267786491289,42.160583236964406,37.14179467533133,31.737105064839437,24.204194308928315,10.73853965179234,-5.099512824484337,-17.8329357900382,-28.23212902524385,-40.6802239966065,-55.55166438677175,65.0,119.0,75.0
-65.81844501127327,-25.722402081313035,13.6580034791469,37.1103408234942,47.745726167695665,54.350030845536054,57.011728388364745,52.59795361617763,42.64353057729918,34.38560227922357,33.08798777351513,35.679571803663976,36.74843169511272,35.951320163144814,33.100875102984126,26.564114662582313,15.993028600112693,3.5966694971944735,-7.683419727926186,-18.21368069446813,-28.835167268630578,-39.48936998051195,-51.35847057986729,-64.94931317415238,-81.23670306389846,-96.83687680231891,-99.66210574555143,-79.38612217900082,-40.629606947044536,-0.19038158472387195,28.83702102432168,45.91001903152169,56.51451215402164,63.97222481902219,65.7471300598013,57.9457433128969,46.42956861542693,41.25061705027577,41.93088213004387,43.06255286564627,42.58488768734381,39.01049164650133,32.451126781275235,24.48567838722817,15.702754760000076,5.691511535201681,-5.612895519911119,-17.750982719369834,-30.3943920850362,-43.53403866289633,-56.1627527233289,-65.99369481103972,-75.14925432962686,-87.88908249489114,-98.37006270224875,-92.57887679514603,-63.55577294288785,-21.58522819861175,16.164771058792002,40.818865075315166,52.8402890012408,57.09527143917218,57.50341081332171,55.06209390598742,50.37669527105437,44.404901978912804,39.82731358879085,39.944340882148815,42.21811209961608,41.560462513057736,35.17518073494148,24.00478277069076,12.325770805739618,1.0092808265783193,-13.133202952817761,-27.878188352644813,-38.51838458987517,-47.533747377530695,-57.39229723818545,-67.65655000375403,-79.77966064981108,-87.18554875990509,-75.09778081402185,-40.992797086217834,-0.10422128191662851,30.396621224770133,45.27249001180771,51.061642726291396,54.44204188605365,54.69449677042467,49.64855274981248,42.37127992222647,36.973330025390986,34.323397584594694,32.62897300704792,29.7515887532677,25.120373283005865,20.576499471730003,16.353204527426744,8.94812344607976,-4.922561927126177,-22.412185585978573,-37.20715890149057,-47.83004912881586,-57.99121665454679,-70.67922600267559,-84.21365079932679,-92.32570468635436,-86.50472794293738,-60.878862228277725,-20.137144026275525,20.0215912072981,44.300244239308824,52.99653578760929,56.669399863773805,60.799618193842925,61.34033576730393,53.263649594193595,40.949510286722656,32.20211846851927,30.656842723283937,34.53807589078837,38.979362315104176,40.06338475797321,33.41196110764328,18.62217298939568,2.185700051494038,-12.257044184781211,-24.7063330290399,-35.79157840641371,-47.342148574274226,-57.56145878221161,-65.61007660960527,-78.00157962175804,-96.06276003569548,-105.60845051958282,-89.73938591549422,-50.598302935628105,-7.978481107963257,23.425978476476047,44.92363789271105,59.34875064092669,64.07120592362331,61.71110233441675,58.20942931477931,54.988020005914585,51.33857075147538,47.91114004302476,46.821648292177514,47.986642361379346,48.014060410428954,43.580286256362875,33.91186589625071,21.736659825191047,9.861756233652425,-2.1588136283112638,-15.025869015514496,-28.191334246112152,-40.390564127451086,-51.230703343622416,-61.71756239431937,-73.35057721491233,-88.65703459478316,-104.05493851064551,-104.78331589642656,-78.32037673130648,-33.25795575317994,7.816565085230235,31.757759923988655,42.41734506716443,49.51070514892683,54.98270553561575,55.01772916677497,49.854943891519625,43.423816243473034,39.259738848589805,40.193461613462794,42.95684273762778,41.002455285761265,35.52564231779656,30.03238437415206,20.917435500757563,6.09701770985808,-9.201080886881705,-20.88548292723201,-31.47059129652129,-44.88409636428281,-59.72692149779978,-73.16376274342632,-86.43300122848247,-91.5180842104986,-72.68016528352268,-32.68740848398388,7.202430794632924,31.91365185414308,42.739134186618074,47.525909973698745,49.93890896682884,49.7593838970009,44.82508469654573,34.70110851057116,27.93283162761539,33.37685531594631,44.10699005788473,46.287195151711636,39.52941156071534,30.039339240547708,19.55752318589893,7.609135450345767,-6.942246399430286,-22.36370956980651,-34.41407292079057,-43.60047776643651,-54.76844458530698,-69.61536944753948,-87.28662618377689,-102.97432486108195,-102.0609082117464,-74.0464984329316,-30.5005963212913,8.523853125843292,34.59957609379785,49.112291483278625,56.704983409662276,61.965171899590544,62.64140706544218,55.16004379310118,45.96475549545477,42.87298240389198,43.46158862198001,42.510851544693075,39.31507517822775,35.04553516403527,29.734773312878307,23.069095851262794,15.211161547556149,4.071675786240318,-9.866204148139186,-23.180404298704257,-35.88471358777199,-48.58591263962477,-60.42187803115539,-72.97258473821005,-87.91186932400765,-101.94557309365705,-105.64723031025778,-87.91603725465711,-49.72821869272198,-7.71835150855194,21.523120448103086,65.0,119.0,75.0
57.0789033494374,53.89754434447516,48.726905957854996,42.74101710967185,39.35753858586203,40.62974173789476,42.50056834233749,40.35651134167283,32.270440799784375,20.516425286283155,9.15449387146042,-2.718347809151213,-17.615723819801424,-31.406940218735485,-41.06753499685504,-50.34168929458672,-60.24999160645945,-70.99617131351978,-83.04377312551702,-86.21370149444735,-67.06554016133451,-28.99544069962478,10.296240200807002,36.15540150953756,47.47266754697423,52.17943570385387,55.00383430298368,53.74033940469044,47.55340370429402,40.510440265680224,35.974037138128054,33.83982890867499,31.99547867622855,28.537458628426307,23.71901477664016,19.413503977358875,14.754925413724006,5.618627911980863,-9.894261858083421,-27.170953905233173,-40.590032631684146,-50.61989542283626,-61.3676351560222,-74.71105896052039,-87.47172321329771,-92.45297646120525,-81.17862408776882,-50.12644993992316,-7.6297611174562245,29.011687744123073,47.98213435990171,54.15098520423914,57.83129051983145,61.66566668605354,59.88413619574981,49.761087816604366,37.79320807047203,30.993771392381138,31.421374547807762,35.96452571814437,39.8061491738523,39.1166513510121,29.755881535283603,13.748830385039229,-2.1976323609094286,-16.06491255783136,-27.96063600251098,-39.05956734721398,-50.60280689483914,-59.918771436965315,-68.42719405250313,-82.98247698748078,-100.60866593757241,-104.01891678788989,-80.11364085835685,-37.69446233945936,2.441604758379954,30.38201933229049,49.915576397450714,61.75914707997987,63.81645535366295,60.65534630624939,57.28775552929091,53.98666014916239,50.24202612982741,47.280196312156846,47.03835839327715,48.28893618025491,47.28712582033773,41.266458622717145,30.47453503301789,18.241704845024337,6.464903135377995,-5.798250127758771,-18.845087447533903,-31.871230427357446,-43.62622358286739,-54.254000862087175,-64.84502014704518,-77.34291979166993,-93.5721888202431,-106.56989822090229,-100.03051722426089,-66.26239568171017,-20.063404328959933,16.60123584590922,35.73392273233394,44.54084377776984,51.417619069163706,55.666926354155336,53.89992126206213,47.96299594142628,41.82486258505428,38.98402930866008,41.143955954724134,43.01598884659659,39.529216835310166,33.98017665931489,28.009328591161886,17.090318030402084,1.4279746397607442,-12.947666656648856,-23.83516867174568,-34.99062592173554,-49.224394696821854,-63.7278526904709,-77.04332051552889,-89.51100174002812,-88.93629546420598,-62.508973216154864,-20.176863991960484,16.11874200373179,36.11414135509047,44.46707922549318,48.43675136352877,50.21112137844102,48.95367296625584,42.24131934375311,31.84177206614397,28.19530704169869,36.64580297342094,45.9513567198384,44.92998552633901,36.91460655553169,27.107274661502895,16.314796584581202,3.683284019979069,-11.501362605447994,-26.313599427055976,-37.161014168559525,-46.449373065524576,-58.71150984851704,-74.48961408465841,-92.49543989408635,-105.19221566148371,-96.67285387941438,-62.09302927794973,-18.10102145590776,17.42059775335219,39.824826353605054,51.75204661857325,58.40097701834512,62.9038882068139,61.239799876422076,52.1976287641226,44.35392897894273,42.96237150186342,43.45388550919585,41.769940232826954,38.152288518074464,33.657313382326244,27.919106843720495,20.97531638800699,12.424083825274014,0.1628425926418919,-13.854736346422587,-26.843273046073023,-39.59598344333958,-52.09265415158695,-63.84022456840679,-77.07681818098611,-92.35893789677748,-104.63213406953119,-103.03021582665372,-78.46705208105226,-37.05666539736429,2.4111945243010404,27.15984586799492,41.47202073946131,52.96915366005801,61.72402728939539,65.72951365835826,62.5964692749677,53.27726179418077,47.05349639230845,49.44427211783368,54.35518232224276,53.90290980748541,47.60062473113729,38.805381629149906,29.334228391701792,18.997381857039258,6.853413158558745,-6.757318894091924,-21.05318622250734,-34.252336021524144,-44.36011079076296,-52.63992554059954,-61.94969531404256,-74.44143648683024,-90.26595023997844,-97.69386739695966,-79.6436249967394,-40.642402124245926,-2.3757586514710183,23.192802654063044,37.404033865732885,44.58245311190794,48.03217019786805,48.118540203482596,44.60382200687194,39.01475634320668,35.13102216118734,35.715258927284424,35.8871263017104,32.39738304711415,28.576608209568825,25.29842830768272,18.274170772866356,4.640625259034958,-11.704975256563442,-24.227111136873212,-33.08823726682712,-42.49703121001474,-54.581529495519135,-70.14318418185042,-85.40220847246354,-88.78056081623205,-71.35199633155409,-37.91108192113867,-2.1589777134262556,25.23289336528924,41.74272335645652,51.331928219733555,56.90396130389237,56.30623209610322,50.23045234633817,44.12198734511745,40.32264999611202,37.81709178602794,65.0,119.0,75.0
25.501963071232737,8.932645508972401,-6.403113802864355,-19.70080236721659,-31.13912016667035,-42.40950594011989,-53.64321791735893,-62.15198400601246,-71.82474265631517,-88.3358790721124,-103.9420181944562,-99.97854913179006,-68.85208643633466,-25.071479604670646,11.728935127728185,36.682665205882074,54.293913354001745,63.28686601364051,63.12798305699185,59.623876997219966,56.371676367268805,52.9365981323702,49.19982632335244,46.90352021854995,47.397840648801456,48.39464861584302,46.12262083103928,38.52682684951074,26.930825945172092,14.80978451717746,3.0161643755548146,-9.50764777719042,-22.66908244867889,-35.43212734495697,-46.76153320691866,-57.271790069029876,-68.12040865406458,-81.7102445435398,-98.29804960537052,-107.39920500514548,-92.8240004369085,-53.11847350906958,-7.77592859485306,23.81193426134681,38.842774657169464,46.58162633051741,53.122819971027674,55.80063762907443,52.42349550999055,46.06234134027228,40.500939800124,39.1889470766513,42.07182698315312,42.54831215894951,37.90280763241726,32.45985547873256,25.528708273508048,12.817899712866657,-3.0984144814743453,-16.357060955238783,-26.813830708267957,-38.81855775239065,-53.574982082455286,-67.58989302958197,-80.9686773794108,-91.52051287545922,-84.00691629690077,-50.92262481591111,-8.26956823218038,23.56522226023461,39.331947541843924,45.87342497791218,49.17846176042436,50.24561469149065,47.669155116000745,39.270812546620135,29.578360716204756,29.609410862345953,39.983595589350536,46.80306812940587,42.99435836443392,34.184360293894265,24.100418978450723,12.922190197259493,-0.48574159525551625,-16.041400108590533,-29.879301028026045,-39.760734680043264,-49.58774980638435,-62.946878678231,-79.58877678507832,-97.34321675283711,-105.56085271357507,-88.93208224465609,-49.35712635450771,-6.518565922816811,25.184667622354866,44.158435668969794,53.958991854251956,59.983815832724495,63.30787921142858,59.13271199771049,49.366009130308925,43.36704793029932,43.192184479189244,43.23215888340911,40.86296351361759,36.931759503316435,32.15887509338535,26.001932015746995,18.772419579749595,9.28576779011508,-3.8979984260202345,-17.721885540659848,-30.499510176567004,-43.293451804332776,-55.507233036861976,-67.39798608802731,-81.38911983157973,-96.59758134185442,-106.16105523577116,-98.379307418566,-67.51577359589433,-24.589932278604774,11.170928905524747,31.91017118758791,44.960414748657726,55.87909078582287,63.45412895947942,65.66813132657973,60.24599317221827,50.69622128371289,46.94740558108892,51.04098950798339,54.9541887965032,52.531715260068,45.198070055861706,36.10595595520908,26.491393705344567,15.68492864587026,3.0342205288106676,-10.859275659307162,-25.1000958429339,-37.50923988158741,-46.80386990669525,-55.12285666595569,-65.13557103293263,-78.87171414585478,-94.17030817604547,-95.4648035263094,-69.63400722047052,-28.645574084024148,6.411557659435095,28.268677704257247,40.02062324075058,45.88197428221955,48.44761610434314,47.431488774601085,43.09376183566609,37.48784398318091,34.923098845474286,36.1129174440675,35.16643224792298,31.169150334822955,27.7019891203438,23.87711302661971,14.984183383625842,-0.1399972444246947,-15.872327545102793,-26.97345409115794,-35.60674712000528,-45.66325102736671,-58.734561846383436,-74.98078274574674,-88.18515581618131,-85.95481814038209,-62.787219758343845,-27.208076748638305,6.882231937131752,31.03023787751252,44.98638772095859,53.3977456957569,57.46438970518154,54.905237447197145,48.24877834278834,42.82709493539708,39.47259244018778,37.45500764950463,37.95430501427903,38.242998568849735,34.03949487415993,25.615195661929153,15.397735428423756,5.3582655690286725,-3.827075816585609,-14.005464537032653,-28.38440490156397,-45.23558685340166,-59.420063953855184,-70.93797339561023,-84.54842110155403,-94.70683755170757,-85.45058964663231,-52.66398721177264,-11.422161715827077,21.04534735704496,38.79758422812002,46.1770241027189,47.9601623418169,48.41857777681348,48.23481055920726,43.192887119941936,35.67277738625384,32.67156985577074,34.269055157953105,35.88948829444858,35.519573895530144,31.647712026646193,22.252421636202453,9.657486858716767,-2.7776182099980953,-14.079522771049735,-24.21078933297749,-34.66498129868311,-45.159349374582014,-53.28212206199752,-59.43057864856185,-68.25984327448295,-82.98436919185696,-93.22981526915105,-79.4206364782463,-40.00256214419057,3.2828089302076435,29.670453755964097,39.598553289383204,46.131192261007875,55.04070997724149,61.306849621461915,59.691177627976344,52.26311276935265,45.39391896508652,43.502764686338125,47.10031829574277,50.678875777219936,47.50223742632117,37.828548026000995,25.49498808333944,12.881537578384203,-0.20942843362806718,-13.951906211675484,65.0,119.0,75.0
-57.82318562947378,-71.39910971499408,-84.78728106219276,-91.96463028126279,-76.75059643553229,-38.51387897816702,2.613530583919211,29.58412541849138,41.79713487766175,47.04817242338558,49.74283183704875,49.9921487019148,45.84828552688906,36.12915193583498,28.204823665218342,32.01473926885549,42.95934165942703,46.6588773864547,40.680126073835865,31.365669263699388,21.012802632779785,9.337245592494689,-4.867790181991051,-20.428175496634886,-33.06125441906242,-42.361200706374355,-53.056848430085495,-67.45164110869995,-84.84542333402055,-101.45141081127818,-103.71886233069313,-79.13458759837665,-36.403895706328555,4.0354055523076315,31.865655519491593,47.706231945414025,55.88121280573844,61.40019037777835,63.02741757209529,56.49100950236642,46.91505887051196,42.92897880782265,43.403778295433604,42.78755955581076,39.8264076022906,35.656095678458726,30.530523022376677,24.00941333948865,16.391680442298178,5.7907401019370885,-7.993628294772214,-21.47701832022873,-34.178723107750834,-46.935480441435644,-58.87015532523992,-71.15963688831489,-85.84104545386145,-100.40671013960441,-106.20739187698018,-91.67207594592206,-55.49387822300827,-12.808635569901103,18.55189946934101,36.049117838480065,48.325903072159306,58.50278985452217,64.74858923006292,64.92918857312172,57.487108524877186,48.66781986874431,47.57486292283255,52.60319278897662,54.961623731160195,50.74605718284444,42.66223085341333,33.37844799528332,23.547360721108486,12.20685875777161,-0.8848235689154653,-15.004689091516399,-28.988849536086242,-40.47598695248107,-49.167422822892185,-57.75211470142255,-68.64162685374554,-83.55141029366276,-96.90287493624054,-90.76022013852541,-58.29713633792088,-17.265142746712442,14.029105949927224,32.503992820915705,42.151852805916604,46.93426886205319,48.55312678922399,46.45994180000368,41.45483415279391,36.236593354889486,35.09551512622006,36.279121690786305,34.15581411005983,30.025170088587274,26.829263729758033,22.00485059488554,11.12011926241027,-4.9709775282668085,-19.58797998750128,-29.507533298620764,-38.26721574280431,-49.07874146457389,-63.19835764444186,-79.62086607784205,-89.62818507701715,-81.27404220335805,-53.15156191184223,-16.67397359592256,15.038819680615573,35.937106991389534,47.79894449138548,55.13412479058864,57.4277335287089,53.13629336315182,46.414104545667215,41.71662391698106,38.70476989482124,37.34251129417614,38.30532674544674,37.565412169579,31.937093340569778,22.743069721892475,12.417271315828923,2.635827232743572,-6.500343408404806,-17.671961104585247,-33.23201600854066,-49.77255242566059,-62.80011953654946,-74.57740455184951,-88.50177547356763,-94.63102748365482,-77.9858488370096,-40.73014619238621,-0.6093768274333745,27.600344952070433,41.737287780759736,47.095121056240636,48.04956069872363,48.614263139667514,47.3721580225675,40.93494398925817,34.15507521786216,32.8649139049756,34.88915230449258,36.017041949400706,34.88329172756578,29.497796068358962,18.745001657720536,5.979038431529479,-6.18380667642033,-17.082687158252252,-27.135981447156983,-37.80002362810964,-47.823189452861705,-55.118185495721846,-61.445505989655025,-72.01187358486702,-87.31037887908855,-92.32467070811705,-70.00089658015857,-26.693189030263973,13.066421055281332,33.69793510590617,41.31844417014548,48.55588750230422,57.44593769602907,61.716382498303304,57.86891147094834,49.96651820112192,44.21916821088146,44.10361057788219,48.50578529710976,50.59480068201932,45.20506679018345,34.38881827832792,21.84009981557017,9.204625003590401,-4.196797315051802,-17.642060302350124,-27.99795515408945,-35.96542536576415,-45.298938496484986,-56.5393747906354,-66.26294524936685,-75.09498820505551,-87.51894473923184,-95.0376295163385,-80.84030462234874,-44.822044553083195,-4.686375208030912,24.242006681230052,39.80440129345282,47.62324062778275,51.92864515301717,54.69501625620273,55.68685512856843,51.675342516189474,43.33991752566164,37.98878595505565,39.88047367298411,42.921439849248756,40.72064478143411,33.78784315363723,24.282838036962204,13.930053485692186,3.5633750420167725,-6.333773713077479,-16.911824417522784,-29.629987679760195,-40.94387844060529,-48.37507730883118,-56.23992586640931,-68.53455798548995,-82.72062945645959,-92.13825250104026,-85.76876065087099,-57.98723921921561,-20.694876037976385,9.325796040051497,27.09169644448315,37.67323054986802,46.33054889973773,52.63585393419602,51.95403821024169,45.032679228087375,40.51899167751412,42.74897583908918,45.14345347702893,41.96320725094432,37.90326147323193,37.21571925583106,35.48997282037895,28.28761681332577,17.926053497077984,5.771420973171169,-7.80103070714284,-21.084117777948038,-33.745880345855454,-44.25831820647919,-52.09739947041193,-62.71527119489173,65.0,119.0,75.0
24.68798204987797,39.81390750928661,51.5471597436178,60.792167588609544,65.54814599391703,63.48724460637284,54.58273436525357,47.3754663640551,48.76663572478674,53.899628669513966,54.367386724926334,48.64807791762485,40.03655689561586,30.620878649683956,20.468840576004155,8.574475813860007,-4.8872470964956145,-19.15423475575918,-32.65296574628994,-43.183291149133204,-51.53086244293944,-60.5724214485621,-72.52067632074969,-88.22186383819148,-97.9264099724135,-83.65248989884964,-46.258721937336816,-6.821054702275777,20.538014956654262,36.00712620058289,43.8905563677915,47.74499546710979,48.330897373602454,45.239573058151876,39.77311411721448,35.376848463114094,35.50198833208678,36.098769567546434,32.969403501715966,29.006011056733843,25.835786455350245,19.58782016833182,6.77060493712567,-9.648663830324717,-22.855082499850575,-31.95616980755585,-41.1140331482977,-52.77464746277169,-67.91533965655788,-83.75841876576995,-89.45735536423132,-74.84690744191117,-42.81172295482651,-6.591580204959527,22.240209685680142,40.0642247585709,50.28279288110379,56.45825283854823,56.789778191408224,51.162784357523016,44.792218433264026,40.74026225682954,38.05798206949963,37.47330083534702,38.50304947739798,36.44319792465677,29.53356600129826,19.78182187152162,9.491509946372835,-0.012347073806924838,-9.338601999785105,-21.755761350075343,-38.17138463116997,-53.96065471213471,-66.05204017266666,-78.51004258775885,-91.85391053613864,-92.5149104039726,-68.68498769154316,-28.587805049625906,9.115597861316814,32.926885993839925,43.96754969311316,47.632100663599644,48.15375875762189,48.68321608621358,45.998657248677226,38.64037033418271,33.167736374753744,33.34380513083602,35.40476837002264,35.9670282955714,33.89260072836048,26.855750249437772,15.083482277875845,2.3639241461576144,-9.481020677214332,-19.999763417192593,-30.139421639633326,-40.88850554266138,-50.22902102789232,-56.84625820785386,-63.83468539589693,-76.2854564038498,-90.809326280137,-88.94975390826502,-58.69248796312667,-13.751858827520312,21.08312410279466,36.59790863604693,43.09664342752734,51.17703683366659,59.44320162969137,61.38719274952617,55.69705568590072,47.87129417450821,43.54110940561434,45.12876194903259,49.70800670849548,49.8233597988373,42.451618512802284,30.818027758935745,18.19796001335573,5.4535434281830915,-8.214635094444523,-21.039589435626944,-30.373886236631073,-38.399186385813415,-48.46544828838904,-59.644337230841465,-68.65282885787265,-78.32637414858254,-91.0061812348483,-93.6456964373006,-72.06967024882564,-32.76354308937894,5.174360705104495,29.910324213041804,42.60172068479292,49.12455838085474,52.823760380898044,55.284051105313715,55.161577913846884,49.46705412577231,41.12612594818443,37.88384435733947,41.0590321058143,42.893816450371915,39.10409838090515,31.21520394068366,21.327609526515467,10.910642522072958,0.6521005892188251,-9.200534720516146,-20.42673886635305,-33.26976538212917,-43.411652726430674,-50.31802920242258,-59.33935202139237,-72.66534702221422,-86.3407366010408,-92.44057784558528,-79.7401491644708,-47.33717043821878,-10.774485518083731,15.594915778626927,30.58583616012933,40.259134517175006,48.58215305496284,53.315955843851455,50.292762537350335,43.08168166613686,40.59235022902913,43.85257510544887,44.756966444878444,40.54275923361159,37.41151998108329,37.14176157686238,33.959783719952114,25.47316252561218,14.624647381611405,1.9111348408847908,-11.703320020776872,-24.82526122444314,-37.11683387055705,-46.66026692653528,-54.569482826951464,-66.977077136264,-82.2715411476123,-84.92111498861617,-63.86155159169648,-27.564900457621043,8.111061788882681,32.61383650331767,43.780544478901916,48.38754505644013,51.43563893781668,49.16024125572188,40.615067405265265,32.35996007956758,28.976699619892486,29.165998764517205,29.610995906785817,28.765454264835668,25.752887472618543,19.005148457292975,8.095942588312791,-5.071309136091607,-18.39688028271497,-32.59939620387372,-47.08381832231665,-57.53919301446065,-63.384738355543846,-71.51665732587736,-85.5831695847751,-95.63922111784996,-87.16236603638932,-57.617038610258774,-18.666472633913816,16.079126243898852,40.28519135139681,51.638528736918545,53.32252498533336,52.993592593347415,52.58180612100821,48.8091887453533,41.78753775506631,35.687699912849844,33.76060879113098,35.929524092635425,38.879961541263704,38.70068951882915,34.79317794138256,28.218216450908216,18.31528917498618,4.896621813543443,-7.68513766554032,-17.755725739893833,-27.567107742471364,-36.92261708617993,-46.82440771152002,-60.143076673260424,-71.58143645776963,-67.18209783740487,-36.746391840010475,16.053063504700013,72.24559870188665,101.92782760555804,87.76125880972637,47.53086027639518,65.0,119.0,75.0
