-81.42979735837477,1165.3010767540047,1555.657885020093,1319.9139675601384,1103.3383727877547,1082.2214362105017,1095.3738466102536,1047.7735576633418,965.1846753877674,880.5330336122177,796.2395591987927,706.3745689009369,609.2795513029564,507.18970173609665,409.4887369807684,325.18679938512486,253.65936114733856,188.77698459639763,125.82410872802038,63.715611515662914,3.1162921727245587,-56.57431345004313,-116.94936673591715,-176.81874500315934,-231.94410253449493,-280.8602934102173,-327.53003217706123,-373.40467994506633,-402.7529914570724,-388.50318869452434,-328.60268853484183,-253.92535191142377,-192.01787404771366,-151.18831574774546,-128.95990590492138,-116.42673814757876,-107.00164206990486,-103.56320983352151,-108.55708488716411,-112.91453805576919,-106.69517198721019,-92.32033533564301,-77.72882512647747,-65.56040267674658,-57.58413228524511,-58.54319351587132,-68.5192769885797,-80.2873694681683,-86.6498971609339,-91.41642457042451,-102.87365669607452,-118.68800473125819,-135.78968192938032,-154.98673000448176,-159.17855831365458,-119.98766274621488,-36.8706445605874,54.211425166874974,120.04152246353215,158.405758352569,180.41783675008995,192.25694988414818,196.8083056401036,193.22202400881707,179.52988011111796,162.55541681830178,153.41536935919126,150.7115166692585,144.29526746580677,132.466238135179,117.58155763231423,97.53753229843005,71.960093441939,44.617685927897234,16.654378133075063,-12.989016712955749,-44.6323071670244,-75.42455040846818,-101.57929329096717,-128.9510475533725,-162.80321597413064,-181.23740513863257,-151.55683316144706,-77.10341971231945,2.6657806939885584,55.923279246158216,82.46336096471413,96.9445345629199,106.22229105058628,104.52910663782004,89.51616078097003,71.82978767773707,59.69196946158655,50.91305682075014,44.641279633148585,40.46694810477694,34.33273137397581,23.153836897525462,7.161197405538205,-11.884532762461998,-30.910550530488198,-49.48200358035532,-71.86223336080546,-96.93020947187313,-117.2407817545859,-133.88973637711584,-157.87584645836466,-189.0760422379863,-202.34337521767358,-168.81555870471206,-93.406560541073,-11.568379673907442,48.71687667495757,81.90602426672656,95.21293012619451,99.46890274881719,99.59268615246943,93.40401211140124,80.28043843501173,66.34965145629059,60.03519794855633,62.034074692389815,63.813748448753124,58.651418222568395,46.707938948321406,30.271817733607023,11.798016875359439,-9.588417319667291,-34.06468291804167,-56.277144084807944,-77.06644056233938,-104.71582323763539,-136.4353758403861,-151.74328427765707,-127.79307546174209,-63.66185207483811,12.938698250608516,69.39571623378818,95.62392610997365,104.50310537742249,108.43884351892753,105.23398065314811,91.21477244217697,72.90035435790345,58.494768208551534,51.97986114631076,51.89856516955966,49.55842650203136,39.58274985949797,26.64250389001583,12.811010530979086,-7.779000152656552,-35.05179546939443,-61.56128912336685,-83.77044391295452,-104.03534474128311,-126.8692833146283,-155.63065138288272,-180.54306298449396,-171.57171248842596,-112.05392252673565,-30.32556117827985,35.41560275253803,75.40963704209643,97.07333700172641,106.38161297451292,105.33972091032706,97.43753474424877,88.08003648208398,80.28028178718559,74.88983705091765,70.09739737159522,64.25025599729717,57.501923165517596,48.148956631426515,34.59947368172901,17.632282640723474,-1.4930264421270838,-20.75510516471018,-42.32199164994898,-68.78686614971797,-93.66542294808684,-110.63247617176351,-125.60853746264887,-148.97872466844387,-174.12227494001468,-169.69067730885678,-114.02679184193337,-30.19561500353767,39.115974577860484,76.56417521289217,92.8148771467438,103.04098908203343,110.23809750425713,108.52206196619265,95.8746723273312,79.86188529048431,70.09132936824578,69.37526357889645,72.07641474153854,70.68449617501645,61.77137403908317,47.92090824203069,33.64198124908112,18.867885722390383,0.9180638311019927,-21.08333849416478,-46.104043635848576,-70.84470367646621,-91.60981846215883,-106.92838447163011,-121.15526312413986,-143.50486044070502,-171.2641077618681,-178.97253379402963,-140.66216853107022,-64.87719315851773,10.074738744966952,59.043819756168084,85.51855238844975,101.63212999483257,111.0264209174142,110.8138588250355,101.83256554606798,88.3160916555589,74.37849203285411,66.60293673162693,68.39577469766796,70.33762360847211,64.27349621479102,52.96255641295042,39.53848258844942,24.52402738197827,7.724750169852283,-10.269622408235712,-28.803465135687976,-47.58365410121872,-66.5662898150446,-86.59736463293922,-105.99046034028888,-124.0322304778887,-145.45652132234758,-167.90299973113136,-168.41069719132105,-123.57935946343613,-44.599365862167566,31.116887686972625,78.58278712925342,96.99594018105049,98.47200544433345,58.0,120.0,78.0
196.76394472916976,190.222899423114,174.4048734953509,158.82900429842087,152.44530686494346,149.53397564200574,141.2764224506701,128.49705756135725,112.45411529236553,90.56844273327869,64.10431694976896,36.648018750789696,8.298364023240024,-21.95882475717304,-53.85905568583176,-83.43791611528448,-108.85426006337852,-138.4007119117288,-171.3919597624403,-178.41959655686594,-133.26492671468128,-52.657008891635044,21.3481841293888,65.72958371716342,87.30424984007036,100.2512330029065,107.21509289624126,101.27614404894007,84.08328594434772,67.74060542330425,56.94750588602424,48.78942053683174,43.35239064979253,39.099765896366065,31.658723392307433,18.969979488970765,1.8583247240534677,-17.519615999393057,-36.16655977746769,-55.407920328466496,-79.14355056310126,-103.52463795244743,-121.99949690038666,-139.64409133490477,-166.8076248593547,-196.32248217194584,-198.09860063231784,-150.03354303207374,-68.74887023821638,8.670419864439236,60.925990007212775,87.30126638889769,96.97536961317292,99.95095146162076,98.59006625166043,90.18112957753864,75.92653079768704,63.48951484952392,60.029607983965924,63.0088988441348,63.12438024315051,55.80406696710891,42.30023445497518,25.08997193250069,6.042052621054496,-16.53042946084975,-40.91611670088953,-62.0755251577168,-84.10451176802151,-114.0968858519032,-143.71850045541476,-149.49465636836032,-112.60355998242109,-41.163563171141774,32.32843193403567,79.78867520850075,99.1851310880435,105.9940735137842,108.56989971716412,102.17737756635921,85.92720357860232,68.09247778812204,55.71797331591919,51.58397799297392,51.8869079727002,47.392682038266344,35.8617347110374,22.93224275818742,7.786598121093708,-15.27064529254,-43.08460336407045,-68.39390911293646,-89.6426782317028,-110.1507586589854,-134.5924788524738,-164.27039214294055,-182.89452233816516,-159.1210741733819,-88.69193202959575,-8.667411286984926,49.38704218085477,83.18473063965722,100.90631892833797,107.06423742752997,103.51116250505841,94.69558738517081,85.58926887815616,78.50659265614146,73.56303493688672,68.51845138364557,62.40831481049102,55.196602147533724,44.64602744751755,30.015184520675277,12.222353335223769,-7.062438412717302,-26.53264017876289,-49.56369390882344,-76.59148374738385,-99.35935505737456,-114.63471374686829,-131.26939073519165,-157.10406542881154,-177.4837146174149,-158.7428422237459,-90.69834330753167,-7.22096906860835,53.09164235670153,82.63657152790019,95.97915589651485,105.63023965287718,110.92586015671249,105.81076576928118,91.11221663211356,76.0940550607281,69.07911829718974,70.1707714108433,72.35443175465046,68.87679734360856,58.04298428578345,43.73172697813475,29.549371069287933,14.091052911567251,-5.033973476108045,-28.10426704710538,-53.46742441310076,-77.3772334252771,-96.5557443699296,-110.75046072298481,-126.47896924534459,-151.71613347512005,-177.03214378187477,-173.1069363836443,-121.15364066299672,-41.431576601841755,27.166512079702954,68.42005406259985,90.85387900365258,105.14608765218685,112.03524764827475,108.94096517694175,98.2191109869058,84.10922094237122,71.15536800868907,66.32851184292446,69.53174470028867,69.41788186323734,61.33644757111738,49.24835889822606,35.37327487930124,19.849160206607667,2.6022392706592483,-15.57457791882395,-34.230981316037045,-53.00289863304027,-72.2552496251384,-92.3948695903405,-111.20709266953541,-129.65644786634246,-152.46656807947556,-171.68946521525356,-160.44500846803743,-102.7664808454603,-20.784691097170406,48.14637136147377,86.49811637202154,98.47461757973373,97.8977596833815,96.82636884343687,95.78899874166216,88.25991257678812,73.54024310943812,60.00591241687763,54.015789108957044,54.11963252624504,55.71610051022401,52.9051288125173,41.586458427604,23.956916467464538,5.178219041098243,-13.852213886781707,-35.147436509346754,-56.9730907912042,-74.60063080964632,-86.38265274143497,-99.47984672819622,-123.80834315599158,-148.6069656480753,-139.5686042129255,-80.39107008927907,-3.0444391756390385,51.77425806401521,77.96689246059985,89.50018944320554,93.2240631893241,89.21226107233714,79.75057122088779,66.36890620415762,50.78556776470907,39.36703898768079,37.68323290252934,41.269221333810044,39.35617614451955,28.322269575746645,13.17462629023633,-3.272344198969945,-21.827272305699083,-41.837030498773835,-63.53600758709354,-88.48970477398626,-116.53020535131105,-143.05411139645167,-150.58194070201003,-115.31967015630283,-42.52878512072358,29.2690637877825,72.3554027471662,89.77401232583007,94.49058437618604,92.1645228783455,83.97324231491905,71.87261569082375,58.217095257585235,46.27429405757936,39.251260077432875,36.22752326541355,31.275272301389503,22.377542970256044,11.448427059179487,-3.082678050062917,58.0,120.0,78.0
37.57721960581604,19.79543833397061,-0.038333957602407154,-23.664958485121474,-47.4160152934103,-67.91117787105414,-91.93052711388167,-123.55826409750593,-148.9880020191126,-143.48684748536817,-94.34597894588661,-18.531281664135626,49.3487413450782,87.7097270543701,101.76127637880559,107.24297439267131,107.91077769937027,98.22060780293506,80.53019209695839,63.7640065655922,53.672514524436764,51.609467236249586,51.41842939831058,44.567243304054045,32.08572431873876,19.086283382398772,2.0163139150748317,-23.18630248188148,-50.85938315866774,-74.85538580998517,-95.4475442008604,-116.60052802662965,-142.87578286520952,-172.1373465575684,-181.50684368743242,-142.4308086067177,-64.60300066559601,10.923423698353504,61.281890597375956,89.65392566648147,103.79600156302855,106.90957600620332,101.23851598428541,91.9531444169508,83.2761664040977,76.93444478940762,72.21378711080116,66.8394369080385,60.50135557047062,52.59439371468364,40.79168797613128,25.16533597063165,6.681009486237059,-12.601058173632874,-32.62449923159305,-57.22359391687246,-83.99557746657875,-104.3336934869374,-118.74407691836296,-137.86357967825106,-164.94424190197108,-177.4076443709116,-143.32679572003255,-66.0611468088822,13.571785687450387,64.3478028630164,87.3829715590139,98.93939626750257,107.8922866048234,110.69029782794337,102.23338560981475,86.33378037649899,73.05313747266919,68.79723372845298,71.05049200801515,72.12564854455026,66.41214536973429,54.02580703048148,39.597642359855115,25.35351865907897,8.990258441944082,-11.323926683295934,-35.335970003997275,-60.70282877629996,-83.50051116850706,-101.0350883445669,-114.6715805289082,-132.72415707013076,-160.09602079724132,-180.29530755612,-162.92748591192262,-99.18206676539147,-19.111165178723088,41.797707355049916,76.22423669247958,95.59316491791523,108.06356108886932,112.16443095873224,106.423285120167,94.32807547444911,79.96739494481965,68.65647041676033,66.83200748337167,70.32054857293586,67.76665617814758,58.09229856450357,45.39590657843024,31.072919660932662,15.02089653118321,-2.5921789437426472,-20.92112930190055,-39.66356752372732,-58.455442178367484,-78.04892409772408,-98.05682353702174,-116.34717106077741,-135.7329275606898,-159.34051212890034,-172.86481922652283,-148.29905562712347,-79.8177690170895,1.772178776631862,62.47675183061902,92.1550716227187,98.91204966694285,97.37302775026609,96.78639524069766,94.52048470171562,84.4839856443894,69.07647411835966,57.444659074967205,53.600647475252174,54.66655232432492,55.62366137346409,50.543339178789175,36.89604489300345,18.491702199031018,-0.19485726088424282,-19.742862677942508,-41.601644198267515,-62.681445655255544,-78.49262067958232,-89.47335776632589,-105.24000049100212,-132.20468465285595,-151.02042036577083,-127.0433592873467,-57.69677904201768,16.10702038261315,61.730268618976744,82.25829315419313,91.36367536272705,92.81092963772178,86.91379322430923,76.27594542103824,61.898646183963095,46.70012511590149,37.84773707891943,38.649265918151315,41.67159412346256,36.962295765147,24.121601591054603,8.587922579187902,-8.41470352262267,-27.49933142054489,-47.85964876852286,-70.36877804608397,-96.3498179828815,-124.7919438545792,-148.3627681777186,-145.40925980151079,-96.77083988377737,-19.856890582774657,45.01515629971083,79.40346362238624,92.01916608220952,94.48142883840241,90.33289772838776,80.77923772739713,67.96796018597472,54.41842657389956,43.66441105370638,38.17588593914858,35.25003622933716,28.994630056372074,19.439189577522626,7.718887076866683,-8.157808818820055,-28.600619791176893,-52.965440314851136,-77.89235516554035,-100.0830426105066,-125.23710427160715,-154.8880010710296,-165.23320154619833,-127.22529578107996,-49.46135174938672,27.051270098077207,74.86736382675892,97.26781346491474,107.82271047070121,113.3146847725672,112.25772921434488,100.54772544032204,81.44259745738353,66.1827145744506,59.22260579792419,55.178089582748676,49.63068940809312,41.12419523686728,28.128481860819544,11.415018136057267,-8.540237593836078,-34.651290679411645,-65.13350714201871,-92.80949945997841,-114.88139196497347,-136.88938445122983,-166.341706538329,-193.76922320675365,-186.42734041613386,-124.10899658003733,-33.469601851844445,42.22959773196563,86.30660153298047,106.55082744548261,116.72447499753042,123.48580431060455,123.66914943507714,114.08877512293726,99.27106681300226,85.59811638859213,76.03051641782125,71.99082486156159,70.1726777360683,61.560932288536705,44.56955323987187,26.13815160883619,8.44688581536793,-12.779804166995076,-41.152860060367416,-74.38310688058624,-104.35462045490395,-124.38087845431738,-140.5696794867185,-166.63261596749126,-199.16115563348868,-205.83017606298037,-158.31011392127385,-72.4200223611993,58.0,120.0,78.0
-124.0081921531284,-41.32446779459648,31.710863733986493,73.189388382665,91.23644510272621,101.77736311873242,109.64983996459458,109.4429330529673,97.98856888714323,81.802412964367,70.831594440393,69.0947641639829,71.81412834958087,71.29073230810643,63.35366093022972,49.859048844891646,35.516742961849,20.971370865130556,3.5456727030823814,-17.93490547122188,-42.695382859119945,-67.71266010958357,-89.16338648050107,-105.13070172271996,-118.96984423288355,-139.91168858242057,-167.9965159774138,-180.27019050829438,-148.5684489275324,-75.81416629486601,1.3775174940068033,54.09303364872024,82.80709807720359,99.8370517539121,110.27401252818534,111.42833971956794,103.3807438827423,90.24189271762195,76.05300276981002,67.03492442489465,67.84866008236712,70.5017408599342,65.49321614643073,54.62301424944294,41.415689875778156,26.626191160351258,10.054441489785921,-7.837347954939395,-26.308284130175196,-45.08676480176799,-63.98284220673837,-83.90034332520236,-103.5318835365481,-121.55787900041462,-142.2939324364108,-165.50038013529692,-170.69715016455,-132.1949917538331,-55.76829273895799,22.395225208766256,74.10377639382405,95.854500139324,98.69489977878892,97.01944106132615,96.6328215617895,92.53444522716815,80.20356039645995,64.97489049671992,55.58454211715042,53.60018348430846,55.21723564540222,55.00514075724959,47.41481704064099,31.80382421758745,13.047887694608855,-5.633437547926713,-25.866825082506868,-48.00000192000457,-67.92024396567885,-81.90593952720211,-92.9672816641142,-112.13285169503159,-140.06441194793354,-149.6215756967638,-110.3732786427396,-34.72068008535913,32.62006921060578,69.53659236501437,85.69033886421204,92.605302469181,91.75469352331763,84.24465846637327,72.47407748404036,57.32097109009091,43.168355135750296,37.220806952344276,39.82258652939204,41.347845637874464,33.844790514891315,19.740486564171672,3.8889925587631335,-13.749189369753799,-33.25912737511973,-54.05847203631239,-77.50885564214808,-104.44238554568307,-132.76531279597322,-151.47145325045219,-136.13131511117317,-75.67786990444876,1.6171032859840528,58.01625083605985,84.63375318180363,93.48611328469741,93.92875963590626,88.040173050433,77.3141696133863,63.99164873858134,50.85767662282547,41.5302431654708,37.350793562600174,33.93284860178848,26.43631563953861,16.35251595304671,3.6202468272369837,-13.613715722222247,-35.30287055484161,-60.35308281878323,-84.52157025953339,-106.64405602751188,-133.86880158845366,-161.46244205108584,-159.79002968575696,-107.27013496536219,-25.398162943255855,44.14576588976188,83.32202180881426,101.05149472343864,109.86871964162454,113.88890002573122,110.04957311644861,95.34119710861847,76.187164586775,63.461114435119654,58.04159478643387,53.80748743600204,47.54752941276759,37.864017056696106,23.582046870106065,6.092108457964528,-15.366793644602659,-43.30296278591292,-73.69684517575533,-99.66794888982456,-120.83007711291845,-144.54134808869975,-175.62056206091484,-196.82506989326268,-173.78526153908732,-98.71419833133135,-8.676051040748018,58.156784192060584,93.96983944917281,110.02106899775724,119.02649428409053,124.47466705437482,121.84169521210885,110.01377603931249,95.01559770702933,82.32944905224404,74.28841999469303,71.6055758893215,68.71167093485958,57.24825304362463,39.12457366843805,21.072720132855903,2.910499136382077,-20.20870846406753,-50.53471975869256,-83.80276028321771,-111.20284913419006,-128.8100143705975,-146.68439571898568,-176.33366623289209,-205.5589571753604,-197.90763702188386,-135.66552795200334,-46.45838815022356,30.654744683361365,79.38798681878497,105.07442269668886,118.9987591915656,123.98732036027943,118.9069877038257,107.3739883784393,94.52942565209727,83.86827263852379,78.97240828905204,80.45872870480912,81.83816889395494,75.52128712214724,59.90282400022518,38.21177669920719,15.551751024139584,-4.621822515117953,-23.689047387677476,-46.18000672819352,-74.3429091883012,-102.27507627842073,-122.98618548428058,-141.51276827083652,-169.87025786469445,-201.1662658491763,-199.91187886118064,-141.26431429101274,-49.3461070405544,30.982417414414286,79.3345817060332,104.08150365392308,117.73251938946368,123.80956627703851,119.77426722152711,105.59654265724504,90.03224562166154,80.32672499046069,74.7707938051741,72.79046167804842,75.50340334201368,75.37298474498903,63.190854718037244,40.212594987288504,13.66877013348862,-10.94735612103154,-32.03710739901,-52.495244067762194,-74.55672592658705,-96.94772683230306,-118.16285185360422,-138.9637467595297,-163.54832300538845,-189.87610185160275,-195.22560388176532,-151.93507489865445,-67.08125935304005,20.160468406938,78.32493931567161,104.71297368524355,115.7769288087281,122.93311190532006,123.55245069939971,58.0,120.0,78.0
98.16764596951077,96.85546221193698,96.16539889091653,89.78038531992036,75.65455858260194,61.423286803868095,54.37620493085948,53.90622972187583,55.62221180112362,53.735441972713055,43.57181897521033,26.463493354136894,7.653273036499718,-11.213629970864247,-32.1877763329752,-54.20963011901669,-72.62216001840989,-84.99908011878497,-97.20058917020515,-119.97921952264151,-146.44401626782647,-143.81019749789934,-90.40201271610218,-12.646361147378148,46.35233192278991,75.62391846775321,88.43912453435931,93.1861194661058,90.12883537559082,81.24303584088294,68.35930799441323,52.79864834429778,40.371503662238574,37.388065871399405,40.89339917765705,40.183670164600706,30.162142050805056,15.262576625207641,-0.9690057508175165,-19.24750951492582,-39.10617283859956,-60.484341907457875,-84.95672145682701,-112.69854018567682,-140.06125414510103,-151.66040664316066,-122.76563251963516,-53.11153712231821,21.10516751043896,68.38781507924557,88.42113357656747,94.30804593758678,92.84149675290071,85.33976334090168,73.63009077178114,60.02127862423475,47.628696421826234,39.869489862956414,36.600975481293396,32.2074080038212,23.69013396169756,13.05792648983523,-0.8751291802904415,-19.438738922894423,-42.31761856628124,-67.65265632229782,-90.89171541105851,-113.71144110725892,-142.7448379735651,-165.54905036540353,-149.75771847420538,-84.71535157474989,-2.5645747580845373,58.50825348200581,89.9814668899298,104.15578110558285,111.56298178505578,113.81319371373522,106.85775943844526,89.7203502536969,71.55704191677523,61.39999565821162,56.925617418796314,52.257464611996674,45.185043169001844,34.19075066726443,18.788105455998025,0.4609361537533249,-22.791639635239562,-52.18401068695533,-81.83946588914341,-106.06812947616704,-126.99195883705563,-152.9718955747477,-184.23159746698812,-195.99513684590787,-156.4350244139043,-72.08689570508866,13.938015747536195,71.37816051575722,99.97776622534869,112.9723477024392,121.09564041968676,124.75748806095407,119.1874236769836,105.68549688791278,90.979603887722,79.44790161376399,73.04102394018057,71.23898846174839,66.4427050681974,52.34320179553137,33.74783148032412,16.030486095761695,-3.059679111536099,-28.28623846710881,-60.19710579532034,-92.70700180313139,-117.1178547525884,-133.23937945120784,-153.95197057251266,-186.20838547930038,-208.74382753257805,-185.06334388717372,-110.70614865283498,-21.69290224700335,47.71551878226343,88.62313668106174,109.97423665596006,121.45451797865111,123.49183518548045,115.98292125248781,103.62371434030314,91.07507732827577,81.7158520689471,78.9091673223309,81.2704770126181,81.01026356251248,71.87206262873265,54.05864710997561,31.52883133837774,9.443486722565765,-10.082675259385212,-29.614618863034607,-53.83962986029776,-82.8553662635955,-109.07596857184562,-127.98211582514415,-148.40069368091545,-179.78102984965307,-205.97203740456033,-188.74709447654578,-116.03636300289936,-23.360558471640072,48.23448131995265,88.22022453114144,108.84108070740588,120.31395275692279,123.83143597507828,116.47745275739771,100.74751735277405,86.5816578371967,78.44268803200119,73.7030734183752,73.23255264431327,76.28120179511818,73.26401892075069,57.35293373796977,32.611249721484945,6.196166339403183,-17.341264361193808,-37.837173935346854,-58.72126213183172,-81.07597126022428,-103.23420211196175,-124.07200561875536,-145.4973793414179,-171.53373249049633,-195.06912133052413,-188.3014043459407,-130.2373881840359,-40.27393803732647,40.643079900045215,88.64164820982445,108.6997350676208,118.15407471761608,124.07767399493876,121.780377970213,110.25442016075252,96.88964133017409,87.14492859029572,80.58267402770691,76.2772582962292,73.03850614042805,66.38606047269771,54.3852305078939,40.027256260094035,25.181931211591802,7.955866994182168,-14.042054194157014,-39.59393456319697,-64.15439432724597,-84.97070073456457,-102.53070249131046,-119.45095690493532,-139.4888535710165,-164.33560511163387,-185.3446127416954,-178.19183912629774,-125.96461529118264,-45.08396711187999,30.821341242959843,80.658653961281,103.88030946552414,110.44592597617593,109.21726644827231,102.77353496604233,91.11087609239743,76.28291181815551,63.273356951861295,58.933548169381154,63.352858825692245,67.25036497310039,62.64798735345522,50.80544419948389,35.221818385244426,15.012417924309101,-8.632945165657908,-31.195523825974014,-52.17654330746208,-73.08092292432386,-93.36850086649399,-115.13449944172851,-142.32149242192477,-163.70506562286346,-149.60287905703953,-87.78269310626854,-7.219114054263619,55.88383125667352,90.23363894497845,102.71418512551244,103.46276536475536,98.20971925223179,86.743207127481,70.50917384276212,56.353271498419424,48.90772162963858,46.90609892301024,45.625534275145505,39.478851139560675,58.0,120.0,78.0
-5.769775387598771,-25.62689688436661,-49.5711788419894,-74.7298344495734,-97.16183302904656,-121.44284666542355,-151.28047122713915,-166.25433127170942,-135.27200433542242,-60.699495737490416,18.268148620347898,70.25806664153879,95.227846394259,106.75906920763492,112.86672258572234,112.95280676596184,102.72957127771078,84.01171210323365,67.69377994882369,59.831529617544156,55.75685871342496,50.509361322728076,42.49149952118581,30.123270243555062,13.78850081222609,-5.584329509574092,-30.79242563289463,-61.08276781635844,-89.47196865680854,-112.14122172391913,-133.6178535773238,-162.03886603379988,-191.2993123026181,-190.5814084566118,-135.05419385647664,-45.44993020793874,33.943041619553824,82.11318520580632,104.70474535387153,115.59456477852353,122.8345934658052,124.21525384732941,115.82867382668242,101.28328217474734,87.22325485451356,77.0004400476381,72.23994904287558,70.61947575657481,63.29727510915986,47.06670899225332,28.50706448397815,10.888998248005155,-9.57227284505324,-36.969903741898975,-69.93343229603776,-100.87954493017659,-122.22848708901923,-138.0863027850643,-162.3942391649508,-195.416062587823,-207.8213422814046,-167.66967507830032,-84.56619494994646,1.245046320305847,62.27802414319586,96.22402897588339,114.1345862718755,123.11674063788705,122.15736091835703,112.660169562619,99.86981062250773,87.8783767424856,80.14307704655988,79.33127823270206,81.84857095231385,79.39059290639578,67.48004757871057,47.80719310819728,24.907156308596736,3.5809374389135167,-15.524774216330492,-35.96367730228622,-61.96365959057245,-91.11678844391753,-115.15579667712166,-133.08391188223104,-156.39340221973805,-189.4560669157499,-206.9592069851527,-172.56793712760557,-89.12533824527098,0.6267743948025667,62.68474300507146,95.52878998677788,112.89966365441454,122.26403494486925,122.90628272181911,112.41202618570861,96.07957877803261,83.69621734947347,76.79760509421138,72.99832722591535,74.05046713447382,76.53002076466767,69.98774156345961,50.7669163508278,24.888196286421522,-1.007580953188454,-23.449341717434297,-43.69347664930885,-65.089759231713,-87.57407810161976,-109.39106933896363,-130.00190476119175,-152.4837839602275,-179.4863574693928,-197.7023601539584,-176.77161937042598,-105.72445368018171,-14.360664704187414,58.16707452202548,96.54068878820772,111.88953399497913,120.33055887663342,124.49880010547055,119.1662135868184,106.20852976178857,93.64819637859199,84.9973294798435,79.10753621014639,75.3837939050176,71.67210584678291,63.38821793377998,50.32153848928933,35.81420599407048,20.586345490648856,2.1316543824982106,-21.238616335933695,-46.98343766594355,-70.58277264683231,-90.29693749761327,-107.32534361709001,-124.76454382497437,-146.2528915360314,-171.63925309687906,-187.39648131472003,-167.6733026405461,-104.06928606937053,-21.304269295385545,48.26477534975858,89.7410162461311,107.00044998271065,110.65710930341093,107.90666984041398,99.89702963703076,86.99771837734404,72.02505912326308,60.90615116233948,59.605580845047434,65.02493335628992,66.91017302982011,59.74578827884872,46.66422299666906,29.9207300937835,8.326777578692752,-15.393198122640637,-37.32803446919582,-58.2186032227142,-79.0264777548049,-99.26234590979742,-122.470819144382,-150.23252821057915,-164.56530167464626,-136.03972291841774,-64.52126381422865,13.829909767407543,68.64173432160003,95.61380651508689,103.7534585329619,102.49450371622868,95.58684740766367,82.3056875275724,65.87722727116245,53.48462754257065,47.91673476966984,46.75104661038332,44.48613668327857,36.638447913832465,24.61769142283882,10.380767179382577,-6.429786043681395,-25.29985002069251,-45.94624021711851,-68.35827830245346,-90.40467727249492,-111.95999803661276,-136.97653299090422,-165.2239436920869,-177.7616459272337,-144.6679668346861,-67.12649589609994,15.326565354583952,71.06019857872565,98.6440984546981,111.072877724468,116.71587547594349,115.81199467624472,105.84800245824609,88.82899719277205,73.13476854487513,65.74632639773718,66.62126212764858,68.70982785257891,61.994261062705405,45.63272794231633,27.46706313293829,10.237530247528955,-10.805191666111867,-36.01361441525256,-60.80692836784093,-82.88992128698703,-103.85278603231019,-125.67252804057867,-150.66926033518698,-177.42958312323148,-184.41956185322732,-142.8695488368929,-60.332157798135206,20.049144863932018,70.98714535024607,97.98810549252414,113.46117463014124,119.68660642832411,115.27054267542083,104.59344863598389,91.10618235910125,75.39115120321343,62.50346917423502,58.563264358097975,60.74927646859607,58.10317150317864,44.772366453519936,25.4310475478007,6.493711114677064,-13.642355134219752,-38.798339708546024,-65.36034372150955,-88.25981494072474,-109.25954484109788,-131.8839355252157,58.0,120.0,78.0
-58.325450751769345,21.938371293506588,74.48667083248685,102.52477794317875,117.62087443261817,123.91796166978139,120.07990211701576,109.07841373666275,96.18539435431536,85.03362867062673,79.1971997539934,80.06961087643441,81.97926568734597,76.93452494386801,62.428488560368685,41.27730001631923,18.452144121601027,-2.0709097679105395,-21.065023020963388,-42.82900735454764,-70.40240402119755,-98.89881950235167,-120.61758474719262,-138.67363183178546,-165.43026556415873,-197.94766999689287,-203.30554316436297,-151.9830763018788,-61.77903367098478,22.05398206921743,74.59669820763834,101.61140385574402,116.34266942271572,123.50431432781987,120.98867091792887,107.81557658799743,91.81851279999317,81.29845241082009,75.35854956757613,72.74372118178533,75.0517788006429,75.96807184835475,65.57644284555752,43.6332411525759,17.18209115159884,-7.889119838712006,-29.35424446398641,-49.68028450100557,-71.55639188137052,-94.01074122244148,-115.4193428770823,-136.0760425095814,-159.9569772065105,-186.86376853080722,-196.92937164411524,-160.73237011554204,-79.46535213394847,9.80085374387856,72.64609556241496,102.48935561563307,114.6151204652183,122.21031120480566,124.06231351220715,115.86502493787229,102.23967337881778,90.76768289136874,83.06665615705286,77.82345823962245,74.52033017074481,69.88357586752855,59.96311580715626,46.16174217338444,31.565867467691376,15.715203484926402,-4.13565012798165,-28.649793671920115,-54.168967975576074,-76.66803184297807,-95.38789280371829,-112.14781398026716,-130.43384327156798,-153.43206489538798,-178.2563239742508,-186.36072678884292,-153.2297422525571,-80.53401769844324,1.2390074032828953,63.230503623459846,96.76380633671204,109.01195461050928,110.38195234695753,106.15651756509206,96.59576740744627,82.69056032011363,68.07643654336617,59.43237833846576,60.893501741097644,66.36494767632279,65.7411311415509,56.36528637629107,42.25270737347012,24.174853617066645,1.4518013093569826,-21.95952680554681,-43.37640205827911,-64.27423912872229,-84.88568399661173,-105.39984418131331,-130.33588521185285,-157.140382003657,-161.62366021265333,-118.59300300118326,-40.763504589530136,32.715154635310924,78.99762953899958,99.42415367291765,104.0489229420157,101.09497572186638,92.39596474706131,77.56864380433593,61.62277544601672,51.21960857359545,47.31351500677713,46.50278762575543,42.8270741916595,33.451682628905616,20.73022869605269,5.796705534504026,-11.715453246936809,-31.05411935749498,-52.30408653400737,-74.86122910885477,-96.56112575109161,-118.63316304900812,-145.19410655322653,-171.8594578260919,-173.80081049315214,-125.4783114908859,-41.86559128417971,34.763540351944705,81.4002811764797,103.25052984993108,113.26220354013131,117.25436604218206,113.91342442718357,101.36827208324664,83.73755465067745,70.01197284732983,65.33002897272009,67.57586706337732,67.97734551315841,57.961762822551506,40.24551426515908,22.551348759016115,4.730396513770123,-17.842802689850185,-43.406719092334264,-67.44921480619182,-88.94872272990524,-110.00496291775178,-132.42627510289628,-158.69058313911043,-182.98087675439777,-178.06273511662909,-121.60941284614836,-34.96475060230514,37.99783465687593,80.58717628682219,103.32494126759588,116.3380398833827,119.41538158448688,112.5648767885049,100.98097197193891,86.68271236855787,71.03787391577718,60.332858079857445,58.996319997439876,60.94450918941885,55.313188566812336,39.42671581145419,19.819972171715982,1.0441551681769028,-20.3935914350858,-46.646950160405915,-72.39738222912837,-94.33732172220495,-115.5076956483868,-139.1315690362841,-166.84003356003512,-187.93098897563308,-173.4990136229126,-108.65045770453791,-21.96334551421222,45.99663737618364,84.71986379974643,105.89235028926444,118.42940887825004,121.54889076465619,112.38733358100454,94.8879420590863,78.48588727767941,68.96356698056162,66.88771230956776,68.61776820560799,67.14911753386677,58.726871888394506,42.9019371767648,21.00898044165059,-2.8486355829108834,-26.148412813014808,-49.80045181244723,-73.91910434912936,-97.40240225419286,-118.78806678107209,-140.16646294328396,-165.95661299690536,-186.9211064840875,-171.40434274702565,-104.44554211869371,-16.489277507858638,53.97685195826712,95.82142368075542,116.95709243872629,125.8457081227441,124.37942614479296,113.38679172554806,97.77643809154522,82.32731138187636,71.97652869117526,69.7421160809288,68.64135622124572,60.40574805966367,46.06909506785861,30.017533231328603,12.617459128447642,-7.27145478263336,-30.101150373474546,-54.894537825039926,-78.08153607588564,-98.36517620804949,-119.28032231715723,-145.05360653393868,-176.56977568481037,-199.9625398485195,-184.34113371250018,-115.5694608047755,-21.68390067108271,55.12795389180613,98.36278972263665,118.75578744045448,58.0,120.0,78.0
122.70850519750147,112.08950241703018,98.50459741756514,88.22017107131336,81.32485754622394,76.72717559736394,73.55660692994199,67.60599368004051,56.20283961528626,41.96567229278228,27.229878708647668,10.49594458387815,-10.828181771671932,-36.145853644908435,-61.07664875492805,-82.42199006738169,-100.30370118687458,-117.09799015449175,-136.52588056941445,-160.88124463247638,-183.54911317591728,-181.6791056960551,-135.2625816489647,-56.27072132275228,21.981136472547774,75.71261962855036,101.994338599689,110.15527325092427,109.679783916299,103.94773301006802,92.91719035915303,78.29899694380657,64.63521497411361,58.88641478501488,62.546212529979144,67.13614004296664,63.786192356807874,52.62674128318389,37.52532489222289,17.99310588567754,-5.4660582950105745,-28.32248452007611,-49.39799238275991,-70.31341767149209,-90.68945169292735,-111.94365341153768,-138.53260221530755,-162.22038647243025,-154.4132508891305,-98.03552480346477,-17.521985797870343,49.15677251900284,87.15029070005482,101.9291375520854,103.76084617993237,99.23582843048457,88.6454683649763,72.72242204399025,57.88166066526182,49.51846744908043,46.99389881553649,45.991186258653435,40.646890394980446,30.00309442408133,16.671480473374245,0.9814274669031142,-17.141630706064966,-36.971811124669706,-58.79125254418895,-81.262890488004,-102.72101542507612,-125.7297047523488,-153.58047289804978,-176.4746391888073,-165.3148890033503,-103.13286934288584,-17.360776670708947,51.49115494734331,89.63198290074138,106.92820486766409,114.9995711289577,117.18378727936299,111.20297138695814,96.42158244048713,79.00606331098375,67.69181812767349,65.53824301062531,68.38730220765318,66.27792569809397,53.24965810060363,34.927698081894455,17.66564640466636,-1.237215256895111,-25.145733577540238,-50.64401665567028,-73.85446921798228,-94.9824633110849,-116.255996097942,-139.5380017243675,-166.7322239667752,-186.08401755259385,-167.0536452912622,-97.6508530382747,-10.978946549278701,53.216151070735606,88.55284907826177,107.93890573580593,118.37620310378189,118.2624119520256,109.50335916665568,97.14811180305898,82.1005513890955,67.10594999750772,59.02799832606798,59.74254216654203,60.44063078034044,51.59580080610793,33.787550635506186,14.348249762368033,-4.63895395540222,-27.615417315518272,-54.43307509989641,-79.06064476495862,-100.36339234409942,-121.95593735051303,-146.79710804558093,-174.6648655763541,-188.76322049643406,-159.47790896621254,-83.77364797898935,0.7613839256568868,59.82854216608917,92.05476048898608,110.28373414907811,120.48330295281505,120.16136086068974,107.7969244818334,89.65181880192021,74.93404858484067,67.66290835454933,67.29075796541682,68.79465631621203,65.47350586521226,54.90723754376412,37.05881631207474,14.11860944197517,-9.623692780340772,-32.908412357630624,-56.74830144993919,-80.85106804120568,-103.80653275311414,-124.74140841252195,-147.10839910905167,-173.62364513794537,-187.66672567533203,-156.74139614788623,-79.15051604209503,6.734443971249476,68.8254934409449,103.57949118770568,120.57889086255705,126.517825027714,122.02521315868293,109.09669246079176,93.12324182179272,78.54816092178638,70.60759810677423,69.80294827846365,67.12503245533767,56.66360693848923,41.50250129205477,25.197443091294453,7.1492679792817695,-13.553041060683313,-37.19366482897039,-61.91437435653705,-84.1531028233413,-104.13057844414722,-126.08096628623187,-153.75519392553738,-185.37206120658922,-200.7956238407168,-169.44585018465347,-88.99869065717668,3.6818852765980137,70.90176073644342,105.90224913438011,122.27516748485694,128.09580986663332,124.61917318994412,114.28461912952208,99.85568384238107,84.70279017763195,74.91043501451144,74.12033631585278,76.30807070985755,71.89287730058102,58.50186605908508,40.314935781803456,20.223862545040895,-2.086312260151403,-27.42175308867181,-56.501432709232496,-85.09268793610211,-106.63665794057002,-123.37941967752985,-143.63320618173708,-172.30802221324032,-202.2746376478809,-207.16405877465348,-158.89721693361628,-68.60333269354632,19.922304078611695,80.17792591816608,114.28104177182091,131.60909767642886,137.25436092261387,134.07939101114508,122.71426606130113,104.81021133966897,88.62014307768384,82.37049606051295,84.00169500982797,85.00959645592314,79.61957378584736,68.13265163568386,53.4549217536116,35.529887914351775,11.843697973209885,-17.35341380396234,-47.645673121579605,-74.10095572730131,-96.68015169488437,-119.2959896830608,-142.38071736687377,-164.88706051452698,-191.07361775465748,-208.64139040317096,-179.64240193764064,-95.04819520381503,0.9799954660077534,67.47051337518207,102.14519548475036,119.20067153453141,126.82891679570496,124.43056702922844,108.30494285878231,83.87873223154652,65.87827867149852,62.096125184921355,58.0,120.0,78.0
37.99652339225906,26.35588170178925,12.416164205483517,-4.047511711058254,-22.69546208666525,-43.07164940456316,-65.33983104453463,-87.54452778147692,-108.9941036745433,-133.3165567598307,-161.71737633570444,-178.18469949709672,-152.20032242870207,-78.73561119060686,5.5129731084994145,65.48738458399926,96.13019879861125,109.89783516769857,116.28576576018851,116.41891124741922,107.70510017433597,91.23338118300616,74.83085098008722,66.18041840149905,66.2113702380907,68.7613234092677,63.568192938306716,48.093250157105516,29.778708598720485,12.644932133609283,-7.683918357446589,-32.57927389335802,-57.65818743195664,-80.07019918283197,-101.04140434425763,-122.65365973234161,-147.06483296713495,-174.29335723269375,-185.85859252148632,-151.47106465904602,-72.21002499551574,10.849343760995485,65.90245127810306,95.24626259794299,111.87899731250664,119.49353665386451,116.35706499720912,106.19069820479679,93.07030374668331,77.48495554433791,63.78468191395294,58.54528274653806,60.49114368240569,59.06143961263621,47.076251903087844,28.058461084082904,8.970185049828117,-10.695786486869611,-35.21203057688488,-61.988392237905224,-85.41064907310394,-106.4293535702145,-128.67420413128966,-154.83636365670162,-181.46843375080013,-185.78041351924875,-141.24946642344148,-58.20252921719975,21.091943080242533,71.33761228183029,98.28364813623975,114.06887722820092,121.6495540193957,117.70692577154446,102.69987834571155,84.74968816457795,72.02741003717817,66.96942473884823,67.86921472124895,68.52610192159285,63.18484033052613,50.46566678270485,30.768412465520555,7.1894328932465195,-16.342536849050145,-39.72967679328133,-63.72362591461456,-87.68931636719229,-110.00611004565023,-130.80180761356644,-154.53347866481704,-180.4155529941083,-184.41434856034186,-137.8597490551909,-53.24270461498547,27.752110895541875,81.31508781237807,109.88395722004553,123.32936879271294,126.30172397036387,118.93611829170189,104.57250080912148,88.56825593282082,75.35137939276358,69.92045783137134,69.67599748503086,64.88582113975508,52.530695879545966,36.87947608207719,20.225473809593066,1.4594337905158417,-20.0955275371322,-44.39467616186176,-68.69641426297494,-90.0040087820472,-110.06956075734293,-133.37746752621803,-162.92437064413215,-192.92844043595082,-197.51509905284408,-150.14378691330305,-61.41311167406685,26.679419661519347,83.83986927094772,111.9551131924926,124.9636225666519,127.9734953290235,122.20356823564012,110.42565528485463,95.33217564498119,81.02571560291369,73.82845834187276,74.92262038723314,75.99749018377624,68.8225351699559,53.52719645983451,34.69134187047863,14.035779563736565,-9.041357025949411,-35.482547204152816,-65.17042849059548,-92.1562985280169,-111.62269561127556,-128.52226688685002,-151.0527101780045,-181.62624452582403,-207.82429771004962,-199.2003068191879,-135.3662858630876,-41.01860306491671,40.52940630454999,92.25355453533042,120.70853490038587,134.28813984867818,137.1656571543431,131.65356076626688,117.97924798645492,99.46730036578786,85.6654763360215,82.37454709617512,84.72443901332173,84.20182547856321,76.79524472192874,64.1315947850832,48.72209452067263,29.354648613200766,3.84096379851288,-26.249085925211112,-55.81439415458565,-80.86373785412661,-103.07132663385028,-126.04285613369558,-148.81006708209046,-171.9854602121274,-198.50409749205556,-206.584322894396,-159.6700628440466,-66.00843607779812,23.996623671158776,80.15116101226334,108.33518577733076,122.25209159165395,127.36717311683469,121.20560450203163,101.51977083547713,77.38426450349817,63.401617922236355,62.916321507448785,66.86360390639928,65.49954301226772,55.054564387603136,38.51868541230738,19.460308380480733,-2.3442059021092754,-28.39810111239221,-57.719240173235576,-86.72850853182916,-113.74111044454423,-142.46481473711444,-175.80497549901872,-198.76521790266372,-177.85435707719174,-101.0478142889638,-3.0744733915915776,72.86030644101265,114.10625175984957,131.7260888879272,138.84303412934688,138.42890756221237,128.22932642172574,110.39820492451928,91.09335135205313,76.55634544608604,69.2992946628736,65.63497306429151,59.40235270838623,47.436124098647475,29.053754974512245,3.3845872305090614,-26.122577322504714,-54.365696944018694,-81.79695874567973,-109.4621255393614,-136.69499753387683,-162.9101772797075,-190.39573389303246,-220.4346693601069,-230.55006352231243,-184.16495478101777,-86.49442827819186,13.350141799114077,82.97887497563043,125.5775435983271,150.88042576046146,160.27434574968387,154.58903004958438,138.17936206365843,117.87083526997773,101.32730402407321,92.2914201033922,89.08060989855649,86.57149171131087,78.3858204188124,61.96348630452123,41.1644691105946,17.799381949648595,-10.393527608641012,-42.24921767648878,-73.99146195242247,-105.2391136214819,58.0,120.0,78.0
-135.73924450959322,-163.06977128518446,-186.4690786118756,-178.43284195217072,-119.54867523188614,-33.09880186265568,38.7578173323394,80.87916579936694,103.65559743036144,117.21562476828981,121.82383553649554,114.26624480528864,97.35932810113871,80.33163702608283,69.77908858145315,66.8108779594481,68.42450091116922,67.71812564822739,60.27722391832868,45.420586428207095,24.142230397886127,0.3014401388766174,-23.048629365335668,-46.61074862061564,-70.70587011439571,-94.3800989385968,-116.04035340129595,-137.1234689306123,-162.32373190475428,-185.45559798879307,-176.6041874458482,-115.57547911229507,-27.804834951345153,46.28951471163911,91.6818493773783,114.96955537373337,125.24509640559664,125.18808516680707,115.24731450730086,99.93045994817344,84.2222617658411,72.86434950813455,69.73140804071615,69.10637329776374,61.96029359098872,48.144326012351236,32.20105758572384,15.065787824846536,-4.460786316725779,-26.891381634323455,-51.60089894881271,-75.18918499119602,-95.73267356614625,-116.29053300261556,-141.23348661478613,-172.29760983972616,-198.3931693159431,-189.60915679162292,-127.14961035118259,-33.98140713075975,46.844858667358814,94.27797489649718,116.83730588341265,126.83468784822304,127.10102403279659,119.29197595198873,106.28175151486435,90.84913890830221,77.97716256008424,73.51688867951107,75.71954929405979,74.93210226268961,65.04140957512637,48.28680622600593,28.930476098546393,7.643981457673412,-16.273791866875623,-43.86813416345166,-73.61013390069687,-98.50854645472374,-116.37696903053363,-134.17134279728367,-159.2372808866845,-190.72749817146,-210.4243273791404,-186.26119352551646,-109.15145478044235,-14.730392916485831,58.48264415219956,102.39607653327437,125.92861084091133,136.0780914532565,136.3984840797653,128.52553700245798,112.78436858273918,94.54506665519781,83.67299816188465,82.87180205111667,85.17122614478689,82.7783962266583,73.52534404529358,59.93492825846994,43.66530412238767,22.637505365550997,-4.5697992399487495,-35.09603823840257,-63.55914313054542,-87.37329756068769,-109.57104569710965,-132.76375848528255,-155.21363739275927,-179.5589622932125,-204.56267646618963,-199.57215813847625,-135.4547028819086,-37.46910713607402,43.91430233785936,90.46902234310657,113.40103772944353,124.6228205033174,126.97198065640055,116.75805211879329,94.31471050761964,71.82900814265625,62.14431748564494,64.10085910490217,67.32806619310526,63.37894287955493,50.685181105852166,33.21464191373988,13.522341242948912,-9.410372201871136,-36.667946549114596,-66.29253883492,-94.67851875092731,-121.5963754841612,-151.79454086283027,-184.83893803989594,-198.623965713013,-160.6352873471721,-72.65380643171852,22.35528323515014,88.09995044338338,120.92136918352766,134.51206397494195,139.61005215898524,136.51035904214066,123.62555912509723,104.6713166132655,86.18217656970222,73.76345753210417,68.15671792992487,64.3190522278423,56.572258242638874,42.83156681270443,22.361605727352238,-5.041062311382063,-34.49211653538127,-62.27860314172872,-89.78385872803227,-117.411056022183,-144.37008341095674,-170.49232783187307,-199.16530976126268,-227.18860210401178,-223.93656843616765,-159.4031790787892,-55.64927764298057,36.90787657754899,97.49625035548493,134.47547733289116,155.26541879648744,160.04120669184834,150.69282372034652,132.3550899497464,112.42750970075232,97.92938664654764,90.94671030809575,88.56297120180103,85.04250959431246,74.39070277035313,56.20508663541728,34.75726090152392,10.216372462393764,-19.413842502228917,-51.515170659822516,-83.05713862946419,-113.98502399271845,-140.78204602794492,-164.18409429250255,-195.14902028678804,-232.0402341981347,-242.64563272865246,-189.21509303655688,-81.85554727118944,25.248341454397345,95.53782439223173,132.25114797517503,151.198483622734,158.42990356349893,153.17084484273008,137.29276613435167,117.58425418267598,102.01436445441847,95.07344660218368,93.45140833000985,89.18794437305873,78.60275002936756,61.09934678901814,37.907478857915876,13.995419795066606,-10.680788689420401,-39.068781374769955,-68.90250346439663,-99.47466409935548,-132.1987547911559,-163.9589031705875,-194.6546748251116,-229.50185896290168,-254.6437340269999,-229.2973083067109,-135.91290723477317,-19.616633062862082,66.13005888918144,115.4533567144908,144.84755147964532,160.71951614841646,162.24054617021898,150.34554299463613,129.36655810366324,107.78266129700742,94.86546229928501,92.78209557273087,93.08858811123213,86.59210877267331,73.36610292763872,55.85203683307602,32.76551244708636,4.349474627601959,-24.966995064042568,-53.155354129144634,-83.45178755144563,-115.44758223033999,-144.7270819977201,-172.0493634938243,-203.88127338138966,-237.53684791636758,-243.28948858184634,-187.0081566302865,-79.84181906281563,58.0,120.0,78.0
120.75825886932246,127.88562451283174,125.545381549436,115.95194509830893,101.91861771510773,86.56346892435717,75.68842650268782,73.82736690169233,76.23403509208507,73.04297941540429,60.6741439451405,42.8636050848453,23.012007107917146,1.036679479267144,-23.82426404162807,-52.48872144369316,-81.60553363063654,-104.20030754119736,-121.12781047199955,-140.4762910076637,-168.07467163338865,-198.97396175718688,-209.21051986696506,-168.53115292763317,-81.49495535020127,9.542299240009768,73.88141883822628,110.87138013323268,130.05227120844873,137.05688170444023,134.96601375659324,124.7005421004566,107.33671016963632,90.29705840238678,82.59388081890724,83.6296456930229,85.1830051473955,80.74814962542087,69.90012195932509,55.54889776835783,38.204233176087314,15.371491621730074,-13.276126312157224,-43.75324110364154,-70.86800462938662,-93.75093960274147,-116.20222079607925,-139.3779979577017,-161.76321711817917,-187.4464680286887,-208.14398928610225,-187.17135825832403,-108.2237246811097,-10.59954168900553,60.718775366743074,98.83645307249485,117.55306943514623,126.3031920909678,125.50298802217799,111.192137786618,87.09536722670441,67.45821783417631,61.920069197941196,65.37210624284816,67.14525186589435,60.485636248817045,45.932998457748404,27.75206421697204,7.314502014463873,-16.861408260319646,-45.15083716335867,-74.73761534349359,-102.46298097436932,-129.74739698707626,-161.52499539412284,-192.37851866402826,-193.89907066625435,-138.9144628498235,-43.749537461221344,45.091338682954145,100.48292882610755,126.15927210451136,136.67485075295866,139.70089375618278,133.72984647103223,118.49879221410512,98.98724278325201,81.81186394895349,71.58280600272394,67.16469963575655,62.64722934380303,53.23193021693332,37.67500513759184,15.039567371857393,-13.626576861649923,-42.674446656412066,-70.18739015833548,-97.78673961844225,-125.30381335384459,-151.94290148960434,-178.30321738665248,-208.1128705861895,-231.3675712366997,-211.78026308771902,-131.14800294054547,-26.005360774936506,57.58679491009414,110.07996268322796,142.0835491311416,158.28819455004248,158.60998245949634,146.03033458565935,126.39560293192152,107.47608108160863,95.19236589003012,90.00218887087608,87.95809553473822,82.8760726139076,69.72427688966104,50.2155103380279,28.112583406249158,2.163471238361571,-28.64327886551754,-60.69741925244075,-92.11499400163744,-122.3622122553595,-147.48979459972543,-171.92723491091922,-206.04256429344107,-239.84379848441503,-234.59378342661466,-161.68674776902407,-48.45442402953986,49.80023763607351,108.83963567632637,139.04017104277108,154.50235135129014,158.2083773788222,149.45259559718554,131.616136178636,112.35888406516509,99.0954452230862,94.41148713614776,92.7765802476274,86.80673746159498,74.28326332105831,54.789385272029385,30.903551075595445,7.138033522393253,-18.516734164354922,-47.68017476178591,-77.55728731254145,-108.75727377905699,-141.65790195019176,-172.68181674609875,-204.27779641932383,-239.27143481451932,-254.35623997417218,-208.38450182311203,-101.67364429016571,9.497616138751479,83.37921654170523,125.44694003718685,150.83392542222828,162.65610196802817,160.05915047433848,144.92215498802767,122.73530330119124,102.86070002475748,93.35090607878153,93.15876887702099,92.08347400311837,83.28952626720867,68.75366373324349,49.832180209474195,24.96065885132517,-4.246891626723959,-33.12646501035192,-61.567548527155814,-92.71897861031223,-124.31439692952837,-152.57750737180766,-180.5267992984945,-214.17272543432617,-243.96466468269836,-234.0493277553588,-159.34814537185824,-46.52214368708043,52.5197124416249,112.10742721196038,140.12635755855308,151.1001443573471,152.36638619190452,145.26310812412234,126.57606937490465,101.5253995428852,86.48968168541894,87.51882899811628,93.0603221210023,89.11539610503893,74.18857760732513,54.64419722490147,32.8468145070583,9.527475232101315,-15.89115503976463,-46.996503745100426,-81.00603951291015,-111.10913215461127,-137.35241985383507,-166.16282138697002,-202.42822620126057,-233.2711277764338,-220.85156650772856,-141.7605522525242,-28.907487656001553,63.80176343772811,116.24151181172059,139.7404430530156,149.40750317846525,148.30455792303312,133.46582218320387,109.03382915634921,83.53110238252272,64.97091630496797,57.63190906583677,56.193438564610084,51.709222933769496,39.704336210288034,20.697926868416292,-3.822700281837334,-32.108993164630135,-63.02669631885909,-94.8829908307117,-126.8878322042523,-162.29245218728664,-200.98544466778299,-222.71990938795443,-191.53756369904087,-100.932385052768,5.9422844581012,85.70995698926991,130.4999550808716,150.81318071261347,157.31219490527133,155.07874545118656,141.80723441656252,117.32157320957248,91.87312850104786,76.34018953625305,69.73150005366018,58.0,120.0,78.0
62.47556391371641,66.47505638999438,66.20458433225183,56.90505352237664,40.90646892392579,22.121166859998247,0.7858174489703941,-24.680482341224725,-53.74720092158796,-82.99377818137194,-110.17433866523334,-138.33446150535937,-171.36351729905823,-197.49270361928438,-184.1116881524863,-113.60554321692406,-15.549795950410626,64.81211235596572,110.3226271338628,130.18845275483537,138.28651082648912,139.02206830681772,130.13581018897605,113.00726471741464,93.5078891409032,78.06365513545099,69.92372491832371,66.1525298348443,60.53735797422754,49.382662137126545,31.92031762293251,7.165206217016413,-22.205365423089976,-50.700806520196615,-78.12499350811099,-105.78353434008952,-133.1214897683281,-159.44939093805127,-186.4812358843288,-216.7548078997561,-231.85329749367202,-194.0741828617179,-100.79303555235028,1.5306753783055556,75.54078644344912,121.02321606044947,148.40661361706267,159.95347505796497,156.08697823686245,140.76278369520674,120.50715724684586,103.11869399732467,93.07650905298632,89.33362848737313,87.09955643165725,79.9783628176688,64.51131411301697,44.05685621315531,21.144641903767603,-6.339731797552216,-37.956592739995884,-69.80668165442894,-101.12628891815513,-130.23985093531525,-154.07317450457504,-180.6255045563626,-217.14180462229348,-244.34302445559067,-220.44773820269722,-130.5793832366423,-16.57248010941194,70.82835348068649,119.7308533417227,144.69389484242603,156.84318389715816,156.91506146445974,144.94295351868658,125.8256025126044,107.66109965624462,96.9575112140509,94.0179091171643,91.68984047575674,83.87792030763977,69.36207883073453,48.08286036821421,23.977951482196758,0.11490348773336595,-26.6932337646165,-56.3100674318472,-86.32261972962715,-118.23005290941474,-150.90342664951908,-181.41943495744997,-214.387287721315,-247.55637123110014,-248.66496953767503,-181.93394398018256,-67.20967608360976,35.115152836898744,97.94570414860857,134.15302557145446,155.70628601583772,163.3653938700893,156.81105658153473,138.87789092136669,116.30338601621152,98.86785451810134,92.68867663570899,93.43183833324747,90.35782559952564,79.52420713903325,63.80251430687751,43.287735162127056,16.76456970887183,-12.776111920723466,-41.21725221237019,-70.25843103479508,-102.03698320780912,-132.8462289273844,-160.36963963561922,-189.57569506920666,-224.3690900047083,-247.01990770590606,-218.988210008824,-128.3228111203834,-14.570575104549158,73.87752811334134,122.70109819230703,144.5922606007992,152.29032163623143,151.28446397363828,141.13619124275522,119.32930594918044,95.5089859566014,85.39086694415585,89.40825729454167,93.24506152435738,85.66633055592023,68.7930398667751,48.58211833998529,26.20076896564155,2.563694143094802,-24.226856306642617,-56.86790708050805,-90.27617448975839,-118.8756984006914,-145.06978736398668,-175.9276559081236,-213.2207122778029,-235.99362349010997,-204.4921007781764,-110.00110566447376,1.68396248214195,82.93636187409838,125.19734812638016,143.55330146588565,150.3616155288294,145.4240617968905,127.01648564672963,101.41562473111189,77.12139408500518,61.75189976209877,57.03144000594225,55.53036664490625,49.04780037881919,34.86575184466598,14.104493317193537,-11.673066307269345,-40.82052061833781,-72.22913054373214,-104.04558517555405,-136.56995663177722,-173.52123851702862,-210.56389080741363,-220.46065552280464,-170.26607472061824,-69.24799872202682,32.771158847470375,101.88498552983093,138.35658559801783,153.73393053051387,157.56101863607856,152.5523033161036,135.61728102501073,109.44395117351783,86.15401313397993,73.8510634424481,68.32712957635498,62.39706442195103,53.05315790960458,37.21667389984824,13.000691590714485,-16.391327339257675,-46.5051830390622,-76.169359758052,-106.66387723701806,-139.49644682664615,-172.66741152359688,-207.80863887946828,-248.36739866800937,-268.6021823064978,-224.42309371522484,-116.14452052110617,1.8276456769814118,84.28311131064198,130.8632960123273,157.85115324560132,170.9444477095922,171.1839613250241,160.94975962296127,143.33514934062114,123.50132565033503,107.61584393328391,100.59639789284968,99.484061820233,93.87915070755838,78.59153415762837,57.606200557053,33.93331138978558,4.465945067712798,-30.005778689077527,-62.87723419935183,-93.32909809128986,-125.9239460367028,-158.89778294975213,-188.11267605745965,-219.714032215205,-255.4000237190287,-264.11783698385915,-204.97629495244306,-89.47177273465027,24.60293599033719,99.07277732997336,137.45728009698382,157.19562176654213,168.85299269422538,170.72087896506895,157.19454422636335,132.2040525107123,109.04640344008905,97.63027017307857,96.18648687695287,94.61305225611535,86.29423438468436,72.36134374590839,51.07910912579247,20.91159990545071,-10.680549507812728,-37.38495771286334,-63.78263001071213,58.0,120.0,78.0
-109.9891014989823,-137.57038666907457,-160.87512169912247,-190.35066429788034,-227.65990634184007,-244.39313017456604,-200.3354802540321,-97.40824590321753,12.770565872610113,88.4641357581251,128.67162336679942,149.36112091513007,158.1711825987078,154.5802396732906,139.81286615091517,120.12703343578748,103.62489204227421,95.52957531733152,93.66284180369392,90.10134905728171,80.39742776588326,63.83873645826766,41.1411539431927,17.13755582704228,-7.193117029384056,-35.1254253035734,-64.92838949540604,-95.27249509748746,-127.79465044929358,-159.89197226774183,-190.3868022128255,-224.75961591224572,-253.23686442466123,-236.86870021909266,-151.14310331358138,-34.085870800380206,57.13422881224198,110.34218252460889,141.72268492847383,159.4144913277091,162.86643829047884,152.5887095240036,132.41910922286996,110.32327461332063,95.89149118912319,92.6592078675557,93.32541920144052,87.92834677532,75.38525293889413,58.46243297082791,36.20558429278897,8.30170168653915,-21.158561780183735,-49.35444845816649,-79.23290546945877,-111.26253068445148,-141.0436923947124,-168.29457281108182,-199.24214840265861,-233.74593527021722,-245.6523567255368,-198.28785656132155,-95.32205219956529,14.996929908635725,91.73692528968033,131.07415357025138,147.92458771816854,152.78675902041118,149.47411036623672,135.93252553759618,111.8560662443781,90.76239030334695,85.58155240279655,91.25658026040742,92.36780494627324,81.41795969353267,63.17239463352687,42.32093103769212,19.476224601098895,-4.645508004600179,-33.12470407821836,-66.80519000846785,-99.0797892829397,-126.40984172829326,-153.19775975989492,-186.389331720765,-222.9801166057734,-233.96450643946008,-182.43025022866044,-76.81882432991247,29.421733852214786,98.66517316337904,132.18887892202716,146.50560481978994,150.34287724079405,141.34615586933853,119.96357675061597,93.90645651189783,71.49407160112605,59.496945351193524,56.698631342197345,54.409784749927915,45.715889912289946,29.481715306775207,7.087248498448163,-19.795082112688398,-49.73353224534579,-81.45070767437964,-113.23177464106838,-146.66530045220503,-184.93280389532615,-217.95920933396485,-212.85926602237558,-144.42354579495785,-37.63823075213258,56.59333241969011,115.28566150711305,144.46781878074717,155.7373943719629,157.1235356826661,148.98538494483316,128.57498070124362,101.83915711211877,81.45132410787801,71.94384054898988,66.84520357182699,60.151239000896894,49.30193903427994,31.03907395706439,4.799054457140508,-25.132434378155853,-55.100802553664145,-84.79782955683189,-115.92173201758683,-149.1733628228429,-182.2715977959144,-219.32612618083056,-258.39301835018773,-263.7706717145525,-197.92814021898346,-80.2795210674625,30.09088582019351,100.63972315614872,140.18424755094634,163.04352826897392,172.2376038337129,169.19466277455643,156.42877931222637,137.56738116628495,118.22696687955829,104.59331538716468,100.07980986472569,98.75842939351921,90.40286436535573,72.84669633001376,51.11716117048876,26.153792763083093,-5.250629403188875,-39.89808533073888,-71.71733945770316,-102.4198662892673,-135.69644798235902,-167.6741937517594,-196.53904710225376,-230.24351627940172,-262.87972748888416,-254.8597524518062,-175.1711868688776,-53.812708620221926,50.65360266648852,113.09172204323106,144.39735766706602,161.2426590277645,170.71462513410881,168.4714693670347,150.6516092840112,124.70736912063121,104.38486025635012,96.55503700362532,96.22383555557167,92.9195443174052,82.79936323637821,67.16525958968155,43.10452778903679,11.473591742500268,-18.879246263221976,-44.68148934059965,-72.36484570917924,-106.03418083269875,-141.63797087608083,-170.87004482873937,-194.22985169232558,-223.10754576157137,-254.84644379285064,-254.45517422260053,-188.40174804811178,-75.21068306291684,32.069509310538834,102.99113845478114,141.1645083794021,161.40949319169698,171.97109983846042,171.7696875583408,156.8456041410106,132.00569170283302,111.7210751497213,104.44765735574249,103.60647105817196,100.17031536297856,92.88710421945238,82.05792328592572,65.08332918396829,39.9214496013097,9.276338360375078,-21.905241869786312,-50.901276891970134,-79.30834591865346,-109.38157642303817,-137.50618224866827,-160.0981686108088,-186.3397035054914,-224.27970877211325,-253.30477696764225,-228.59359864888341,-135.26319626257504,-18.831526911416013,68.5799631864037,117.96749993611112,142.85609527231117,150.6783559468198,146.07428876780105,133.47879487948916,112.3833026857881,86.70730818038871,68.76915219267622,65.6364354269658,69.963928586121,68.53449598963836,54.337670219772974,31.399819505830337,7.80918338984341,-15.30344016210283,-42.230662694960216,-73.34848607704643,-104.52504722331403,-135.03174370530942,-170.86082734223373,-209.7955680528914,-221.5527770139045,-169.68588535568105,58.0,120.0,78.0
-61.78547853241879,41.472215533283965,106.3553061823452,137.62517107224474,150.29445115850714,152.6437664055643,146.81317306880769,129.72298821486118,104.63585554648583,87.48715292550624,86.7539411381918,92.65907332446596,90.3858128241726,76.57135061432274,57.37539095977805,35.87245048638262,12.687193381119753,-12.23222324911035,-42.527501865012695,-76.59413557845504,-107.41192508975145,-133.8789205167255,-161.91133533432867,-197.3325924458576,-230.70475226280266,-226.36535341519905,-155.49199532232382,-43.74122008338145,53.7775888157233,111.32312284267408,137.6429081544455,148.675247882129,149.2211401894368,136.17357564613758,112.5305540721241,86.69813222653138,66.79768738235234,58.06748716402704,56.3900354324009,52.70977430903953,41.74160791690119,23.58268296543206,-0.30343327565843214,-28.16822143539572,-58.805696461507765,-90.65199377229435,-122.53041419923085,-157.24875196172843,-196.09440630487723,-222.14945496683913,-199.5687595166791,-115.17912446686303,-7.325760415623344,77.24547150105353,126.21141845523096,149.10320218637838,156.97416533734804,155.92145308968674,144.3225130963574,120.94597585344681,94.83109326963825,77.74411405236751,70.38903160852807,65.19904768537653,57.575906382910446,44.912146276237536,24.15365277341049,-3.700285948310555,-33.852612344781804,-63.66078553697984,-93.54670440878003,-125.39814607466272,-158.77220351240723,-192.21298222472709,-231.29934957747395,-265.6572181342826,-252.53783905391649,-166.80218048293924,-45.255283407855394,54.711174498822004,114.40349102796179,148.2147684496221,167.08637431991275,172.50444403450564,166.38808114107047,151.38234824490883,131.75727430107287,113.43797350674606,102.40644579592775,99.86671900318396,97.37783948570461,86.10066159701928,66.79295577403292,44.39878762510479,17.777328682565383,-15.265963788418789,-49.48340336969452,-80.4457762591249,-111.79851750401781,-145.3486200855907,-176.0901171329387,-205.45400599334934,-240.96994279596817,-266.9336653139584,-239.12397094880953,-141.67682628610413,-19.850774173815655,72.9368845799852,124.50052201698378,150.19506624044325,164.76589378769222,171.59167943300906,164.83418046801418,143.38111277262405,117.73312443060627,100.85236424045561,96.14883832755204,95.95531873512584,90.61145128697555,78.89718366469924,61.236458661805926,34.42370041280657,2.1894095489070358,-26.61504262053088,-52.162536698489454,-81.50400047163612,-116.48948336390939,-151.01321031603598,-177.79249943928164,-201.57224415323873,-232.9618449067034,-260.1001414495897,-242.4855916259684,-158.30346010674856,-41.49386000044318,56.61936662713242,116.72702645771211,148.292219850771,165.357358186536,173.22847497826405,169.01833775686282,150.1325862738311,125.02835908489074,108.32966157512953,104.05994915377964,103.0678240501272,98.40015710024527,90.1889562108829,77.93890715042961,58.63158787224726,31.407744699179556,0.12881217784645443,-30.51498278374057,-59.01881291154107,-87.84266382945296,-118.01680501005946,-144.4586950803394,-166.6600086229427,-196.29945588694403,-235.41880424827428,-253.48831049320503,-207.62123365099194,-101.12238903526612,10.671295765235605,86.20253432672745,127.16879035417729,146.7130340471085,150.35108710508382,143.21206347154836,128.2858501307666,104.97480639365683,80.17170313893108,66.40864068497679,66.72122429271136,70.6429677329745,65.76901169292303,48.210464019893365,24.416218356356044,1.2562767261812948,-22.54368433652615,-50.94336498873189,-82.5214678014502,-113.23072144316963,-144.55075446624716,-182.54195515474888,-217.96145808293923,-213.84748975333184,-142.89728673995825,-33.51914735992122,59.81252955474602,113.89848015917782,139.13391655183074,151.12223596538456,153.76470573801896,144.63742252893906,125.68833418921228,102.42118137549346,82.84824157615435,72.27461316335665,67.49961719872724,61.034251221988335,49.266759471580386,33.70614803193296,14.286172707712556,-12.308138084132372,-44.73213440969098,-76.71208830268527,-106.22410946983813,-134.71254195972386,-162.7312526821437,-194.2125301896727,-231.83864190378054,-256.79941444539605,-228.19710980802873,-131.22121308164392,-10.02607589087864,80.5050308249771,129.5777010905825,155.99449488165146,170.21515256252076,170.76340391550093,158.0575525862681,136.0791896323591,112.84470839366303,98.21842191169398,95.14032223068781,96.51124785682823,91.86932641302892,77.10009549298867,55.49331162872702,30.187705334932634,1.4073957308233231,-30.396614022328016,-63.71988893976705,-96.57186874208388,-128.27291179952553,-158.3141870008737,-187.19297903857932,-219.0185385980147,-252.22654531599727,-260.1178652205419,-205.20248381907305,-94.1237295760027,19.53903105780033,95.5427685597022,133.70286577444492,151.3285733583114,161.27485518797437,164.20025698141444,155.04504518660895,58.0,120.0,78.0
68.97715903009724,63.3379217383195,54.59218065099145,39.81536587383616,16.642155052933017,-12.367774652322051,-42.525246988656406,-72.21550292393692,-102.4745395696708,-135.03034755244522,-168.2857540047345,-202.72684538287012,-243.16735942185247,-268.8446477881406,-234.74422553800176,-132.5399613018652,-12.356370425946018,75.72851133625531,126.07083726914816,155.07294597800743,169.98516196763268,171.81041034428554,162.82593831565788,145.93945186511056,126.05341863628745,109.28272511517265,101.00944468224188,99.66049992235872,95.18545294045812,81.09360078829178,60.54110868336615,37.33859096095918,8.794535228715498,-25.372252814676603,-58.723467376691204,-89.22422804679042,-121.42889959545512,-154.71145134984482,-184.31508147552373,-215.049808428514,-251.15972866487527,-266.29411291418296,-217.0804099015097,-106.10832363747332,11.350306890043953,91.59880637225812,133.77549014223808,155.14128706209212,167.71850257146298,171.29502451363877,159.87892901147998,135.7437831267442,111.56207148572368,98.41540494982002,96.1392565315683,95.17746765421073,87.76458541415192,74.54511938353659,54.481180263159644,25.242161317318807,-6.729159938001262,-34.02493750826845,-60.00692900666285,-91.16939288887271,-126.92722431879051,-159.6431618863239,-184.40182585963848,-209.70970468288755,-242.7088042391856,-261.492307196782,-224.51349961832204,-125.3623560876049,-9.606653962558372,77.80009459252277,128.06403933774996,154.27866584767963,168.59431028936325,173.48343819141326,164.9509029543377,142.84884259329513,118.83490954710038,106.08239170873965,103.91693073882672,102.1622569661781,96.34802114154992,87.17576134230238,73.21506458198067,51.47972989076526,22.553523238508372,-8.944527481947075,-38.91401837012863,-67.16959988605248,-96.54823818200352,-126.31274360392266,-150.9412758038626,-173.90439816875522,-207.29704262104926,-244.9322515503826,-247.9840882516184,-181.1661590640451,-66.677748912983,36.79970783508975,100.89442744240189,134.65995258840903,149.225643249068,149.13881807291475,139.74239905711207,122.32737147698501,97.39085841526139,74.63100623790375,65.32749076564966,68.11355380349492,70.5293619690383,61.86380404947305,41.56163184874793,17.554344396859772,-5.330912109998625,-30.214942121697128,-59.943316403356036,-91.57990025144014,-121.93617911673024,-154.72521545765977,-194.2406016673984,-222.78741636314993,-200.1137481279857,-112.70599045741704,-3.0225359424090774,79.4095252870287,123.33598486330075,143.52361740617584,152.97044930393167,152.35437070613418,139.9764288663817,119.09065799402576,96.02472569158104,78.84208948183225,70.629010103321,66.08961786481778,58.16730138512991,45.07021245138028,28.62525689935192,7.440552406393543,-21.343205915455865,-54.242978826055115,-85.42125022674088,-114.53860782059816,-142.7834689864958,-171.1894902150713,-204.69154254130683,-241.9859627428878,-255.74502461403677,-206.24549665816184,-95.78318711812439,20.740626680319934,98.26948121300514,138.72514970347763,161.33644632301204,171.86152544299551,168.32155150598987,152.40846122300866,129.01963287375904,107.4088122536926,96.28828147645491,95.57397093860492,96.14647731589316,88.5880482011489,71.34889045837207,48.52454734857952,22.232000350030745,-7.519907946852416,-39.95885129992751,-73.32718401192632,-105.84849868952743,-137.16500308462983,-166.6510432162429,-195.87855596572038,-229.05380021465714,-258.99531173213586,-251.6584431631342,-176.95253955274887,-59.009230694675935,46.02880203871566,109.76653051943812,140.13841197264946,154.72750178022198,163.08051458940324,162.916169408648,150.16464282227042,129.69227506777972,112.30492178545819,105.30204379998787,106.15095285639549,105.98794966053548,97.79100439258461,81.07051524907635,56.93305651248897,24.932203142148335,-9.060493048429949,-37.23529336414174,-63.458261377981756,-93.81034543664916,-125.81990448702506,-154.84631324945218,-180.80820027048367,-212.6413884364463,-250.82858490434555,-258.9920291995387,-194.95482612192322,-76.72308770520603,33.22541915316085,100.79121495687494,134.3822126379618,150.90212158909478,156.84545651270622,151.01947435398907,132.35590216568448,107.19257754820892,86.69939492626128,78.33519259676756,80.45145953145801,83.13320846246411,76.95399652945324,58.61042173599875,32.194462077155755,4.238625511013879,-24.43435013034806,-56.49812826201466,-90.31322097099226,-120.88034598611901,-149.13542685104454,-183.8265875222716,-222.69015767447598,-230.1796873810222,-168.55957945054067,-57.11640438116534,45.57991713527472,108.53148761423041,138.84588059731152,149.7602235305569,148.52180510396752,138.45099050239526,120.19175455758737,96.92382891034494,77.14355384804036,66.84120975888834,64.89521479921423,64.90115423758546,57.439101549266475,38.484213587816214,11.683552827907134,58.0,120.0,78.0
-68.33937894016715,-101.26987648529479,-137.10244505774386,-167.4921244766449,-191.04999499226312,-218.70803010688698,-251.45367995952594,-257.9639125397509,-200.93543971842652,-91.07039391067438,19.631481692859218,95.73888427605675,137.41426213311084,159.34345928161935,171.09055005389794,172.59708455029804,159.65239866631453,135.3892410802628,113.69321663184223,104.79255498248286,103.74990471340207,100.88013466633913,94.03827279448389,83.77783325167057,67.81410192335207,43.69543012864757,13.490361955313492,-17.861789630905964,-47.14456381980871,-75.43853579400768,-105.3392385671268,-134.10753380002294,-157.19709542659615,-182.14770280733228,-218.90782055838164,-251.5686353256746,-236.1920849190582,-150.44495071599098,-33.42235174179944,59.35770695059518,113.0821584394557,140.6061511273215,150.48508675334332,147.19047212497992,135.61872442634734,115.65889440528579,89.97214396904297,70.31219058990465,65.33845212485562,69.45577462575939,69.41953228201051,56.91994294084675,34.63076330637879,10.85281551739268,-12.09121108655513,-38.33954968297673,-69.10557798734787,-100.47644869575714,-130.81877623838648,-165.61890872214215,-205.2285879685672,-223.1522304700542,-180.52035724294657,-80.62384315245563,24.888884141824732,95.61945334655437,130.8191819102733,147.1192030382149,153.98704334448587,149.91855759614225,134.5930109899073,112.28955066743573,90.15452627660174,75.65059423285943,69.30055271500636,64.35535750630065,54.83797912795834,40.625004081688566,23.167446400026048,-0.09675755029663864,-30.741047341433546,-63.55831337799917,-93.95357701449929,-122.79060951041589,-150.82725324118476,-180.09672506807874,-215.6851322501124,-250.3016789062225,-249.09648877503844,-178.78073019239866,-59.937211353697975,47.8765177083907,112.83645974977767,146.51140486964977,165.71972486312083,172.2919395105567,164.83727866392783,146.09677167791187,122.1093887272574,102.91253526241594,95.29366179986496,96.11713851111502,95.04187221889546,84.45476945768718,65.1558666203073,41.28096049251035,13.97891872418908,-16.67723176973429,-49.60219127120653,-82.8464678676288,-115.03580778908439,-145.88688407160316,-174.93728344627334,-204.95357308248583,-239.04178505072474,-262.6626007381815,-237.13829549000891,-144.84943792782428,-25.215198521948825,68.80792189994958,121.16094882432272,145.31599435963506,157.696019105966,164.18819251749954,160.50723278826996,144.59841534912536,123.8824008865207,109.12648059475991,105.08770511294722,106.61601474123842,104.59204316295789,93.73426638363107,74.89771417637482,48.419403984813044,14.847324041549898,-17.873493206259695,-44.60879845323901,-71.77406352457429,-103.12113078360237,-134.6607172862935,-162.42670134284842,-188.90427176871682,-223.85221003100526,-258.6886880931736,-248.57949652008483,-163.7829040710268,-41.58866323705106,57.267503561149226,113.12164476348192,140.39871799636424,153.6806702040803,156.4931670081962,146.84213058872234,125.2684301927672,100.3340056058522,82.90591916531156,78.21201604038262,81.67130199772434,82.54014538151397,72.85580419929966,51.479962073974804,24.095150142299744,-3.8441675718705923,-33.294468375359386,-66.31909079480465,-99.62527494544902,-128.97618726162835,-158.11671354421176,-195.53629274498468,-230.30907327002194,-219.98294390807655,-139.0011534508295,-24.245478274598938,67.99240961865087,119.94379349800255,143.58170306138172,150.43445597918085,146.46671997470443,133.98655224124377,113.67399195006789,90.4508788477184,73.12678144534425,65.60571114706545,65.10952555693487,63.86927638294431,53.077745185871784,31.3054151269732,3.174671438945956,-27.882596087759968,-60.7636984476355,-93.78882098779481,-124.27736548320121,-150.81322565169856,-178.22459491579184,-212.28181013672315,-242.46890257014306,-233.07633264936254,-156.97056482126843,-41.322933279578514,58.06142489816033,116.85506073044428,146.15889874918128,161.21308102296956,169.50548900766026,168.42518003045726,152.564733680146,126.90975000273613,106.12219612576872,97.76324449215005,94.51776924127962,89.02456910888372,81.51469731980737,68.35588284351442,43.00243132531881,9.922400749591933,-21.68661618064073,-51.5814692378928,-85.00221425421567,-120.57133620721176,-151.29357892898105,-176.80723964773074,-205.2973090141133,-242.850869242993,-273.86747963060594,-254.79383361690407,-161.30351556426194,-33.52892365776872,67.87213749303486,122.85341640977208,147.50123640490847,161.5013178665678,170.47239451275735,167.9598472203229,150.46007978474373,126.03655273976204,106.975539223453,99.77294192712239,100.55795341361599,98.9150375129453,88.37871392729828,70.60055815360869,48.05860730817129,20.466054459380217,-11.738292641425803,-46.815881063733556,-81.67418285057737,-112.15258182156977,-137.56414801897023,-163.39587341368906,-198.4448137683986,58.0,120.0,78.0
-155.7560880123542,-48.192929096273474,49.59262651311272,108.75881550161932,136.78739734741382,150.01866851713626,154.06633157676876,146.51158645999172,128.61037259338588,105.49259631810341,84.97340627340482,73.19556723875941,68.0809352245084,62.192180277310236,51.104325328679785,35.94727112907111,17.222213511127663,-8.31285686547436,-40.31197478337045,-72.62059558158371,-102.37014023179252,-130.9688023581048,-158.93505790191813,-189.6030376307052,-226.82047513978134,-255.6548401837962,-236.2555783500234,-146.95558865972438,-25.25415600101935,71.10056149778065,124.78685109621436,153.22137696197203,169.05619762004258,171.51520889156788,160.39873633272853,139.30754880216156,115.62270835529326,99.45463332531367,95.05752192350224,96.47971185001497,93.07889489125385,79.57013201044418,58.612112472902155,33.755379982995976,5.4375840213919036,-26.029934438024473,-59.26995620815098,-92.26381446418516,-124.1236081297673,-154.4301748903431,-183.2858395089745,-214.48252510546212,-248.3741872848087,-262.09178725602055,-216.5802626832232,-110.37746482902259,6.1354974505658095,87.91053578139612,130.1985848779669,149.58737086554245,160.2522085200243,164.4261651760754,157.0018282993043,138.60893009463663,118.61183172493689,106.91859000422541,105.36186171087519,106.75832777209766,102.40514001315485,89.02573103956382,68.0967479181151,39.24216861820663,4.8505910845541536,-26.079545477285773,-52.05200459417785,-80.5017451914706,-112.44152965035815,-143.14908320998464,-169.8206338390257,-197.81970808132283,-235.3707265899272,-262.70976253012077,-231.38747695262904,-129.3193716459639,-8.755924135396414,77.48716755229648,123.09261221895052,145.33229693007175,155.61823801386373,155.08673264595643,141.60177646919072,117.88782641586207,94.14011061842324,80.24504274151523,78.81649571350884,82.64802516707933,81.02291187464307,67.72948083053107,43.84831064970599,16.005851149688837,-12.04599605261349,-42.49988942305124,-76.17389603908943,-108.54594663190979,-137.00153627284394,-167.91359270100097,-207.30060555996113,-234.06179741888454,-203.37759699167387,-106.4907848212108,6.419039643561985,86.83682248373267,129.03121628567507,146.95096513323296,150.22838143105596,143.71689365123342,128.83587632850939,106.87578468205842,84.5132276582469,69.97275781286025,64.98860551030805,65.27725451202886,61.97906574388927,47.75648285967042,23.609945642555683,-5.55826872325193,-37.24913594039966,-70.39154307536585,-102.99158153102563,-132.27606317351828,-158.28374259236287,-187.366840239179,-222.5788454968214,-245.70958279036668,-217.90494887757194,-125.0917193990073,-8.9346320216154,79.10502089176187,127.56399895857396,151.46998414953697,164.22842134141342,170.47424196219126,165.41298498368184,145.5849793546429,119.77198550705276,102.53647939678183,96.79341153445975,93.22843159511473,87.04699281373571,78.66614267193793,62.35045438280196,33.75853265654914,0.4127759028948441,-30.259875765268,-60.73687504706692,-95.36832907272719,-130.167554850076,-158.9450614643677,-184.28890022657617,-215.29695142550824,-254.04963062259984,-275.5812304261817,-234.86095461750432,-124.88618977900826,0.3472437775340983,88.20367748508438,132.05161860873432,152.0745667126376,164.7666207650138,171.2846156802402,164.28308141737227,143.5560757984866,119.50865921259188,103.65416605203029,99.58775886556097,100.79026786084589,96.82345653948505,83.81761881337741,64.56195059175664,40.621814746649214,11.574963368874364,-21.6790951752257,-57.09821177204434,-91.07257733993545,-119.88757796719733,-144.59945277385896,-172.2638932939947,-210.63278188891712,-249.11973985897146,-245.35709423315666,-167.0359471014699,-45.67799002644796,55.297889353977865,109.90510302332784,133.20835302960018,143.54105746958388,145.59756766697336,137.39591131603018,119.0671001039791,95.85289004527989,76.05089683892145,64.76371127517456,62.07099987890774,61.11298588261965,52.705168518781704,33.61024262420584,7.576576639861788,-21.899155059972124,-55.278684172849104,-90.21581794127036,-120.93105861554017,-148.0137792331332,-181.19490817947312,-223.62300300083655,-245.6791851535581,-200.8969464627078,-87.46540661040353,34.61536081010113,111.67502193158955,146.2353909306554,163.68209694435748,172.42162201920004,168.56972774491703,151.13286126587698,124.8895246647642,100.18371731877244,88.60516346751903,89.98152373905842,91.00432455415478,80.45227884013585,59.739857221945215,36.051279439422295,12.275147431834391,-15.669101368508095,-50.01298469493643,-85.45989156277476,-117.39211792211738,-148.02367229480873,-178.78813684801023,-210.28303257581953,-248.35743069835397,-281.27005537703644,-263.3596518236411,-166.88196626918773,-34.32590585846626,69.57432436373183,127.14648269503692,158.07262448285553,177.60865904275863,185.19277979785232,58.0,120.0,78.0
152.51436218467146,132.48250782213995,114.09217045075735,105.62495046608,105.88934481600089,106.38112573604666,99.42279395100935,83.71568812590192,60.61903682413993,29.531846803089447,-4.791352279424531,-33.79151985561558,-59.769737181658314,-89.55783526320558,-121.64639977117223,-151.24393210463154,-177.27029369154727,-207.73487583471615,-246.30677737637615,-261.56175708912957,-207.7675848196276,-93.33693070841795,20.832800343524656,94.17147633890886,131.17704552189448,149.34139715251945,156.6733166385564,152.56576721036728,135.44492324128169,110.51151416545642,88.81624857998341,78.69808600569284,79.88373476625016,83.13363257658874,78.48360970840285,61.67463762009664,35.9098628666786,7.949648338665442,-20.46033487747349,-52.02246988804675,-85.90700738365562,-117.06820105082518,-145.2105930741794,-178.61447545708597,-218.23672686848025,-232.75217254236256,-180.76401123552986,-72.68728616349743,34.023993824495555,102.37618093837627,136.14723967597178,149.122181272616,149.23077353728524,140.27363153871318,123.04845546460444,100.0283066783358,79.2835023975925,67.64964942340355,64.84839764497778,65.1389204040615,59.107997895892986,41.58193835423009,15.51953535095286,-14.493102508698271,-46.744426397942725,-79.9819153571987,-111.90389901635423,-139.94445067080665,-166.02469559938686,-197.1663732642216,-232.05341345432106,-244.53419107310825,-196.85483981695853,-91.20265796316052,20.77365447771885,96.67028407345288,136.26234990768808,155.9018905260847,166.77697862606465,170.4898076951427,161.07278591853094,138.05433470449603,113.44297575984905,100.01224304716067,95.95398177658768,91.67088160028077,84.95166621937288,75.15226937831528,55.211898211927284,24.12529723924136,-8.791469105715812,-38.801641448595404,-70.31165864466792,-105.76800203447637,-139.189038134127,-166.2608663159009,-192.27776315365784,-226.134263812261,-264.005948981822,-271.82320406409815,-208.64962110602764,-87.2370170191135,30.739482762232274,104.6894828076668,139.3041413739026,156.14846679052837,167.58203415695166,170.9076379509878,159.37983108792486,136.3701597854227,113.72271586363941,101.3866512507487,99.8759252896771,100.53532730166492,93.92669166798315,78.75177887306238,58.14980328938125,32.743746025536645,2.327642681774581,-31.81139327926164,-67.26689866367091,-100.00341291401836,-127.23928144243182,-151.86228055881347,-182.13666400630152,-223.09741874775395,-254.63867639663198,-230.33966295231318,-133.48000467664167,-12.19510907695204,75.6283280065526,118.82313561203237,137.07238826208277,145.0474694220023,144.35873029150835,133.01562542905728,112.4954028681056,89.46270037465081,71.80514087146229,63.267106668184994,62.06716219660817,59.74725391335795,48.21581001079744,26.562419007187888,-0.6086956316897738,-31.121299470685184,-65.48209062038593,-99.69089584751823,-128.83316968347305,-156.45424438531714,-193.06011297694158,-234.28872586350857,-241.05164393834835,-173.3504401912348,-49.816992446561315,62.41897383525902,124.83090032992186,152.22938109509298,167.22191191378747,172.76162676786,164.81861540073774,144.10655273030488,117.00704279648222,95.17285210078852,88.10731917324638,91.00646228951716,89.31572410345214,75.19998631295246,52.925224208749654,29.279355258347344,4.8650375242009,-25.050120905191886,-60.46928749203085,-95.04889322267893,-126.21491394909964,-156.9568472067609,-187.60211529570668,-220.4594376676876,-259.9316896945964,-283.60836810258843,-243.01367973080818,-129.02703076597214,0.5475695778932932,90.39345536795109,137.8070672257459,164.68753081351517,181.2680354583124,184.4300239514541,171.10848796388262,146.36781479055506,121.59410869855296,106.09605414446925,100.98527025037971,99.67202672690384,93.57554359849864,77.41459226617762,53.44495685227879,28.10420370360709,2.392574765639949,-28.60093788396464,-64.70538644561665,-96.97202270673773,-122.18581626793132,-149.34526708342221,-183.48890032807012,-220.52262801790482,-257.29380713126244,-277.9248400948133,-240.15935787712192,-129.6228876648725,-0.4973313629253425,91.08124718070552,141.06812640594106,165.92908631472892,174.6335826551901,173.42198582964153,164.205172314672,146.0260520640896,124.61218473977901,109.14385917373554,103.39027765799354,102.69956930150701,100.34644737920004,92.03616043519,75.40996038160394,51.506408270398694,23.065372425095777,-8.56634786706555,-41.37679975928532,-73.38872653107192,-105.76216342261083,-138.08489185058983,-166.35291424877488,-193.76919038719242,-229.9915863187706,-265.0891175430607,-257.06440775221176,-174.55751798065947,-48.346983408648406,58.87863117982698,119.38221738289383,146.51378422374927,158.7586160815211,159.9015850154352,146.17331700607087,120.32412310281892,93.04670047965713,74.59414596968254,68.52483818868343,70.84048532677627,58.0,120.0,78.0
7.127512512063541,-23.616867848160197,-56.32808328326227,-89.46950173641778,-120.46162112710242,-147.40052286786693,-174.2362625013049,-207.46125647875846,-239.78468476080187,-238.03726783780397,-170.56636276849684,-56.87993576203962,47.130620173897256,111.11959892804683,143.34355419286538,159.66287478690413,168.7926118322365,169.36688575006295,155.49796313531792,130.37961051171533,108.16564411966621,98.33203232905048,95.02076480587286,89.89649664930721,82.66932805231303,70.74239372388915,47.05170166594019,14.383939864638206,-17.678661800681766,-47.4856569460959,-80.29053415931759,-115.98193626502551,-147.6052442850974,-173.45923597548187,-200.99183220233883,-237.53850242336696,-271.55398680129724,-261.7200236877241,-177.18499943955902,-50.075287780709324,57.117184015374335,117.79479458940871,145.15065247757232,159.8812859588473,169.75262111506964,169.205480161543,153.45872942815018,129.22779822685652,108.86729711851079,100.087028161699,100.35477539231137,99.60478777880256,90.28414842834755,73.2609819045516,51.33996542137562,24.435200886088413,-7.235397712676111,-42.06785511957155,-77.20333569450555,-108.43301543672526,-134.33426765601584,-159.59956180806654,-193.0721934959948,-235.0179531967487,-255.28966616025465,-208.7411887561908,-97.82740192134558,18.110110752545225,92.02527868514595,125.72409204603447,140.17684048069697,145.8483031520642,142.20340744644363,127.83206677204217,105.70247307114722,83.55646542694117,68.34987375919961,62.438954041603814,61.96417792620485,57.56087418710351,42.83618579128396,19.078990906298795,-9.044837540409276,-40.707838792111694,-75.6846518098289,-108.67948571259416,-136.5435547144999,-165.73101533732145,-205.5929972377839,-242.11906751995033,-229.7591185771895,-140.75096325277948,-13.362129976905727,85.64619212388808,135.04441733480382,157.35889171738853,170.0063984870812,171.93512662103947,159.9671717978729,136.50777507743564,109.56713766638804,91.50773772340372,88.51473958476348,91.5940319390547,86.49480307047021,69.25519326633139,46.042387566743606,22.490123244412977,-3.0446846466342676,-34.9459132121619,-70.8209998740315,-104.30226038523776,-135.03865455547833,-165.8709471312384,-196.54314351250125,-231.38601282200557,-270.4362457387259,-280.2946974369499,-215.99200129896118,-89.91996824489739,31.679355123043848,107.51612333425207,146.86743961256778,170.538110040363,183.8001296774902,182.23024952006946,164.68701557742924,138.68664571501097,115.93749372468082,103.73468696159652,100.6119353598474,98.73859903239062,90.00300480961748,70.99985591523217,46.05174176033024,20.890444015982638,-5.82546635144077,-38.806771743815354,-74.83700853631882,-104.72378292703151,-129.3792475873704,-158.59209806004347,-194.08521839867288,-231.3508390679047,-266.4480912222833,-274.9143398619693,-214.37724558453343,-90.93300463400402,30.938288933330995,109.01339585235203,150.29962629504485,169.816214472648,175.08253331817468,171.66507553708772,159.7846166844733,139.74268100457195,119.20254276554698,106.55581933889933,103.0012658649025,102.42476621737514,98.6989803436309,88.12081348222259,69.1163315590692,43.67238218013817,14.201168333546516,-18.052004710565868,-50.71490466231108,-82.62036821660523,-115.27498854123525,-146.77312632187878,-173.89634748609132,-203.13223581453704,-241.62075554687584,-269.41109374628525,-240.82176387979908,-139.73971976235572,-13.165385336944508,81.05912483992908,129.63743094520606,151.11300185825078,160.39893552306302,157.54257425357451,139.56478308244263,112.05540062373157,86.49624387635099,71.61799792962088,68.66111603069623,71.90357609105288,72.42899589337645,62.75764419630864,41.45167859820829,13.670964557813146,-16.841513963833133,-51.39668972463607,-88.57114328795805,-120.6746197754111,-147.04696586347117,-180.89381433003805,-224.0525165013385,-239.93914124842445,-182.29380095255817,-64.5592501531666,47.23949554247478,114.42324372639449,146.81461527447698,164.45134335203713,171.35895455802196,161.55334042849492,135.50958112641607,104.29278579133252,83.2839922678238,77.01598670687213,75.90449917279723,70.34992603807572,58.34254289374317,42.680364883687695,23.054094058963265,-4.043224481090185,-37.81737475318862,-75.67191220383089,-114.22358579275031,-148.22944223594922,-177.28191610559313,-209.02219516713342,-250.6809973549403,-282.03691016861796,-251.34010272428048,-139.16404350469946,-1.0929983475674454,96.30142027948196,141.71330993704106,161.64452040815988,176.32251982333625,183.66606408256598,174.67952929652733,150.56973648474832,123.39420901711716,105.34112004441658,98.85890024579936,97.23138141171053,91.9838360662843,77.86716668628131,54.88858170625988,26.32249574081957,-5.13675671273828,-38.76114486490458,-76.26634294115763,-117.12986853275852,-154.17695811244536,-181.31410373571302,58.0,120.0,78.0
-204.94109798041114,-245.29194766229955,-249.99959248115323,-181.3110531504957,-61.8817148407864,44.52338864626232,104.95350327173675,131.116499341155,142.6255260900485,145.87002436007367,139.12259267486928,121.96181437679537,98.91728171402518,78.26048389967173,65.70951614819369,62.112439480819184,61.506758503696254,54.45713053604241,36.67540918868095,11.268157441422227,-17.76776676210892,-50.622038135026834,-85.70418633720982,-117.16955582439219,-144.32064449128958,-176.05951838111673,-218.11537746114053,-245.76134609321682,-211.55090076770162,-104.71837718889473,20.335719048045682,104.4081071460775,143.0772522065505,161.8283865724207,171.89279326317217,169.90759730766825,154.1231684858572,128.5785075145457,102.90716960749637,89.21996832185766,89.46857606025338,91.41432742938073,82.58704782498458,62.81885437631082,39.18930527846362,15.559675289345972,-11.543313192695352,-45.2090120094696,-80.91754082387058,-113.29977601570855,-143.9136185837806,-174.72532077874152,-205.82433970552256,-242.93266465510874,-278.6434643756985,-270.34055127799127,-183.37842758912714,-51.41918823718405,58.60185643608923,121.54235137646548,154.7524370477976,175.58297353546288,185.06651205528155,178.63176272368995,157.52900610603479,131.30990583394643,111.22257375683947,102.1773597243856,100.34009962381558,97.20479824352908,85.51202758684322,64.07737028853671,38.69923895700202,13.577701073990905,-14.630677982108548,-49.32517803035445,-84.37040158469425,-111.96051969617739,-137.0309935516689,-168.41402838043172,-204.78415945733573,-242.1437387498797,-273.58673564147574,-265.7704637438792,-182.8525439303592,-52.59600475660345,58.326629854120455,123.87185945520922,157.77947823026173,172.50668705366863,174.8559647162612,169.20552657350763,154.61528157714557,133.41676224735352,114.50238764682027,104.78474855776524,102.8522763888475,101.86883697803952,96.47183530987107,83.47015201470651,62.28564752272917,35.516133568644264,5.089368822585159,-27.564795284053808,-59.95912762498324,-91.94723079994439,-124.7135147517854,-155.0113329126175,-181.58873040744447,-213.46540139072096,-252.5858854836752,-268.8212179385207,-218.02136084787938,-102.72630476606534,18.95049488049793,99.21177477722036,137.68056199898896,154.8127334971996,161.04217336464603,153.85082475236956,132.11876806161314,103.97075329097288,80.89084151355601,69.68375831081813,69.33554522303737,72.73108324372899,70.89739839012333,57.65081994709281,33.81232574467833,5.138751029402137,-26.33844490600362,-62.13685384451051,-98.70076180861984,-128.46214406209194,-155.42936191790938,-193.23480612337522,-233.9233964481678,-231.82029903528,-151.86224194606598,-28.84442725511312,71.45527841006349,126.30660388545074,152.88531676163757,167.7938912336678,170.43143711391457,155.39301112507457,126.31366358785634,96.63753331194418,80.21708280643394,76.70652916874317,74.9968917433018,67.44573916116543,54.08864460058962,37.582835862566284,16.07060070700738,-13.260296683074385,-48.41849274330586,-86.98632469209657,-124.67807687244375,-156.94347636011338,-185.67767134822222,-220.1411869341206,-262.79749038014694,-281.75970605773773,-226.0840862810597,-98.3181273234671,32.90417104363793,113.87962924998139,148.78473344917612,166.1456622433616,179.6684138724622,182.95716830733278,168.8711854149959,142.38584244071117,116.90281640618986,102.46605209838975,98.28710203401853,96.4086647608963,88.91739025232603,72.01544438236799,47.060245726529395,17.45070771108045,-14.58805558932903,-49.109249621292285,-87.93484641634934,-128.63240966841397,-163.05682228809576,-187.78710226719633,-212.7821311756353,-251.5663708788557,-286.5058484809733,-262.84083883561226,-156.9238969329782,-19.677064141814505,85.96581602623131,142.96972514772426,168.92354982577106,182.9227482274611,187.611398717167,178.25389577869686,157.18567508756573,133.58602464462544,116.77829773446496,109.15497608617063,104.92793804377946,98.9346376340748,88.65465848148017,70.39719140190877,41.26149510900863,6.744715445853772,-24.072031759394314,-53.877350556053145,-89.07923890985865,-125.6189701548989,-157.52890058743745,-186.00572886162598,-218.48813116325195,-258.2272283472161,-282.1523239950605,-246.5520669401257,-139.97098569297907,-9.92058552469847,86.64064373172371,136.7952339243449,160.83049039367864,173.8471017322159,175.45236554389555,160.51406968723808,131.44259243121007,102.43312297685922,87.59817006254204,87.13914988026461,89.62693110524616,83.6416991545321,66.7862970755169,44.071451519658105,18.72357014245794,-9.866112554324701,-41.59142789577538,-76.65424818729758,-114.07949287414459,-148.83554538141104,-181.07898812012715,-218.21851099342643,-251.09913828256077,-236.10226183701772,-143.9379997428621,-16.01702428131386,83.63497556969392,137.96643690888078,58.0,120.0,78.0
184.95988031633823,173.7463693613064,149.9321554675238,124.49156680463015,107.4904800025883,101.25374314644604,99.94988109228336,94.91685902495638,80.15044368805994,56.83870363859917,31.43157763381685,6.011292272941832,-24.057547669844524,-59.894940354842014,-93.16959287104831,-118.95615639868662,-145.30341705011318,-178.66396989946003,-215.54378556773185,-252.66149230988623,-277.53522014251627,-249.83535667402532,-147.06108302541887,-16.24056300926531,81.63587984424609,136.1546091577347,163.69059579260872,174.16791782688736,174.01501396255344,165.97067324528788,148.83878180139143,127.298318342557,110.63193935920845,103.70318480079688,102.76409348651879,100.9313515992496,93.59629773546959,78.10738866868816,54.999458174163806,27.060423654538713,-4.222934175471778,-37.037272445637875,-69.15100368001622,-101.38338443591854,-133.94029161164553,-162.84146494168357,-189.75807647949645,-224.64800487784552,-261.78857337953207,-262.2798643906276,-189.39338897021665,-65.28762257621611,47.236767224633255,113.74879847353927,144.0338220002993,157.70240381398028,160.5475817779624,148.87065500490925,124.11696122829022,96.34284531852275,76.33099566901876,68.69743433958163,70.33364699223388,73.10523506119048,68.3631441316683,51.61815579179862,25.804153009925184,-3.5947017182536083,-36.236476114084034,-72.98914316903469,-108.1686011208059,-135.92184803407753,-164.86321547360362,-206.1272886349641,-240.18211216770783,-216.6360349319501,-117.59953955452039,4.59818688317427,91.59637943020198,135.861539317137,158.12072853838515,170.14137905975605,167.95580374820943,147.9923997682236,117.05377743474783,90.20190899685967,78.30754086796631,76.51144671814691,73.54641699898787,64.03572419736619,49.61338321925257,32.078246918177406,8.38483745539303,-22.950726284104693,-59.32467223036959,-98.23350941276207,-134.63327147015102,-165.3046216681713,-194.5712952134379,-232.20153591879327,-273.1374681001633,-274.84468082758985,-194.271885149823,-57.33752177975735,62.25695996139609,127.46137352114812,154.51999554743603,170.47997584926864,182.1533189789335,180.70552731308373,161.96622581172693,134.31114986033916,111.4151195770804,100.49501084054239,97.90368152702072,95.08899291856952,85.02795044776349,65.47837529271585,38.854154539885805,8.389260410810635,-24.22741823245194,-59.84712956238327,-99.8106473325166,-139.5787438202024,-171.0284350682762,-194.22707860440326,-222.42174035472314,-264.12110172786225,-288.1014477032411,-239.64498885937334,-117.13044117715802,15.817370908569416,107.01456633072198,152.5876556947075,173.7497828206737,185.47529302348502,186.43491359077177,173.0373580371622,150.15890337477225,127.73560439212228,113.79311520328633,107.89439616099072,103.50314936404435,96.52273055383273,84.40859135092921,63.05953683603473,31.35483659041575,-2.704283417372488,-32.37662711436977,-63.472130643358746,-99.86076877059922,-135.4083176084551,-165.8692692105045,-194.58117317073814,-229.57699188967456,-268.63868455181733,-279.6293750115465,-221.88251398190158,-101.82380520339485,23.00227324728594,105.25185295474321,145.42846517070043,165.51036575390026,175.73715149503857,172.9626657346498,153.12165700772255,122.26664639181902,96.36979268267565,86.36635350266039,88.16260112216656,89.08361744471323,79.73138004392158,60.58011791424345,37.014468017271554,10.82613851447294,-18.739012762723398,-51.33416288905349,-87.41409214222531,-124.58922147146691,-158.11657647925276,-191.09179191460566,-229.52876683049652,-254.0030099355652,-216.94598679510992,-107.39835208641547,17.528811430247725,103.46085896134085,147.53678404880125,167.8879391977913,173.22781564501364,163.7744139991214,140.27390437154008,111.3021789348682,89.08537794621516,77.25662473692283,71.65782426462614,67.35856663734052,59.50096196713071,43.47774767504038,18.99173598976925,-11.031933181632974,-44.277933278202546,-80.11534889161008,-117.63878469795311,-151.81760758843964,-180.07590343082705,-211.58356952824096,-253.10871041662017,-277.5857693885934,-233.19883868241004,-112.66118810087059,22.776573251381965,115.01354160093614,158.7604596598441,178.36625451157977,189.34149802066767,190.10436050889962,175.79269811773133,149.80074160595493,124.87419593353239,111.3986332805459,106.98203837542725,102.11725385432406,92.84178314417503,79.54419210246846,57.25096525636793,23.752324894039656,-12.944337961451932,-46.59320892981935,-80.26651610431516,-117.97529019069043,-155.74965888163024,-184.53164770259917,-206.844981202966,-238.68913451753357,-281.60860534109395,-298.3094812174682,-240.53176557894466,-114.13511272649112,17.80478639627865,105.46257605976875,149.10777939137614,173.16367036294557,190.2323218416176,194.7668389972973,180.89592473756773,155.46115896299384,132.51668850729325,120.26706750114286,116.11013251550517,58.0,120.0,78.0
71.42909875282251,72.82631782789507,64.77064977123968,44.8068503983725,17.54441279276999,-12.58794593704737,-46.531683532390986,-83.72779818000397,-116.89229834936408,-143.44034001188942,-175.5482844248648,-218.69130735972377,-241.40790960545382,-194.57215154467644,-81.38438900829918,34.68421206379915,107.98845229778246,143.66778539528534,162.6258048217751,171.28804234364597,163.92140756182707,139.6130829313756,108.15780288135772,85.14370767579064,77.27989722102419,76.17008744835614,71.49742690457785,60.21519225182198,44.92475326925828,26.044451297768187,0.021850980116878638,-33.04268765387712,-70.47523107325728,-109.2566495080178,-144.05795035496396,-173.49661133039965,-204.24212618495247,-244.8407042409948,-280.2590685385648,-260.51389907732784,-157.3730877434961,-18.130852255631257,86.67677175424541,137.8077004823452,159.4935744811114,174.57130042843733,183.49661987254086,176.9170288256465,154.27932520332627,126.68136387918395,107.00899173588691,99.24770453974615,97.48993546584865,93.13147551696521,80.31162429482833,58.348888089403374,30.337632558091126,-0.8334829141419574,-34.10726939031824,-70.9953239207204,-111.70349480058522,-149.77114635633913,-178.20965226252622,-201.08325863601692,-233.49430283968908,-275.4262136174005,-283.2405308356983,-209.7376847227456,-76.60720196336331,47.46388739633297,124.0933647830505,160.22591608265628,177.92055322035856,187.1353769607536,183.99028484600225,166.99754973629345,143.1808026622436,122.65503923873543,111.52900596156131,106.72859912738323,101.85200731050318,93.70072846024563,79.37685481913637,54.780327050211746,21.25195615860582,-11.668250844116205,-40.82385323170936,-73.5986412282312,-110.54589711286624,-144.72094346307838,-174.02352306922654,-203.73154945261362,-241.23977646633216,-276.8067141067043,-271.01090805496364,-191.61139940607916,-63.37229511889499,51.991579093537084,120.21558504008586,152.49556574724528,169.46157138809352,176.54556433582795,168.97500858558325,144.7291093473883,113.54268225793564,91.74720012694823,86.17717460094144,89.08876234731304,87.60682610788406,74.9672098515905,54.04088394444498,29.757840391640997,2.6290254777816617,-27.848722568476926,-61.39063393399087,-98.29392113083021,-134.73037211177927,-167.30363117922172,-201.7383073132217,-239.9419997025361,-251.5065902299936,-191.17161917137463,-69.632042279357,47.39859364765101,119.67492234863342,155.21966747156515,170.88274728515808,172.07099524937132,158.22936594875807,131.87618462265723,103.8020691619289,84.7148596989921,75.23428582309444,70.48082886960225,65.69219442132163,55.83146934131018,37.15871992002253,10.757144479502804,-20.370977054807764,-54.35385658604272,-90.92821278925993,-128.13495843239102,-160.4177348529853,-188.22181076716768,-222.89942223646574,-264.20584315468426,-273.66167397196205,-204.39297998899204,-71.6766693720846,55.10657748384884,131.71947445336806,165.8348050322527,182.26337318220226,190.89585186193793,187.58404787606347,169.0390093657336,141.84631534417207,119.6523473908045,109.59566415069159,105.98181504221024,99.8391221835017,89.51965696962988,74.3183012948355,48.51785180777836,13.023697801466717,-22.983051687715157,-56.06099831046065,-90.72765571556016,-129.30361753401127,-165.241920315839,-191.0412259163822,-214.40095527110594,-250.83624544893354,-291.61031845500696,-290.4940165468494,-208.8505739332552,-73.51205580025837,48.56131131063709,121.5896489175364,157.0939027917943,178.8254186935959,193.26461630384156,192.60860981703536,174.13210425066245,148.0088384776859,127.81079131001358,118.55387500933885,115.31545441702718,110.734008807654,101.13557780914405,85.8956635677915,65.08258940572598,37.5108311821143,3.9886833074418906,-31.591497423216232,-65.54043948484572,-96.42685453693814,-127.10757540813809,-158.15814819289193,-185.30729952586768,-212.3947638409307,-251.93091072188543,-291.95654641164447,-278.24697899375747,-176.29882998223056,-34.271755880210634,73.5503859314737,128.04506321073683,153.3434930692871,169.5101618160375,177.21248562745143,169.60447858696318,147.41616921035828,121.51851920717178,104.62339777199475,101.36722190904915,104.53308197219822,102.84441958415209,92.23566089654133,75.60624215648332,53.210397065702914,23.656757469537197,-9.7175984244866,-43.142683378188536,-78.27757294032757,-115.41842185183395,-149.0306068758594,-176.98193007694817,-207.17302934772087,-242.79296032101576,-258.29764124470347,-208.6548278369773,-90.27344900774672,38.19115451988612,119.36622061929798,150.0428958701991,160.23917950699678,165.20876331578728,159.09521340866226,136.8803525761201,106.0826068973309,80.3544294344651,67.44724818968218,67.73676952369115,73.91885942827167,71.47402409806949,52.81057367143693,23.665890288680224,-8.48979189173467,-39.52105992314631,58.0,120.0,78.0
-184.83206222223723,-208.813517838876,-245.7177723605763,-283.9565398906532,-271.0369231026427,-174.49003527552887,-37.12045858142326,74.826433753261,137.70166691782563,166.4261921432026,181.4925904616975,187.73276989058598,180.3244244099528,160.36954969044706,136.5014649874714,118.43192697375537,109.81435262799519,105.52398220421856,99.92707126521003,90.38176484948515,73.45121542402971,45.67948010402604,11.251101870135644,-20.2197471922363,-49.64213541628562,-84.13504299934604,-120.9523745066,-153.57933024496242,-182.18162138263992,-213.6398863454664,-252.98636142205888,-281.49930108991794,-255.80135448578378,-156.9814735344069,-26.2236717103635,76.69534527636633,132.14108993530925,158.41111736945726,172.6558056327095,176.11120893533464,163.50602156371542,135.70149394930323,105.67727628142882,88.58638339922324,86.72828811644764,89.60361326541143,85.12448809251572,69.49910441640333,47.26257171459212,22.26685100963926,-5.860121782859691,-37.19591045519801,-71.76967189956382,-109.13738311720743,-144.4689355020153,-176.6468540671747,-212.94644887656568,-248.30591878483978,-242.56677801567366,-159.8367054982307,-32.486940542949455,73.15896600959941,132.80295218625173,161.33821650403766,172.7050623454317,169.64061717339183,151.57116752188878,123.33140936171655,97.13725731115242,81.17836203526825,73.5989396622271,69.30539289635834,63.59900906503287,51.38468464137443,30.18478992355203,2.1368158627109497,-29.934427530464216,-64.65549412019358,-101.8319286282335,-138.18002695314635,-168.54391347731172,-197.00361941014032,-235.0696216969591,-272.7588488866419,-262.676114035607,-169.8611580409048,-31.421004047385786,82.85802799133933,144.77698288528157,171.56462506930401,185.60883688672746,191.44009008212672,183.71973773330774,161.50504640331926,134.3589234396004,115.54244818036157,108.3540974968598,104.70249168077775,97.20532394501222,85.84810664755332,68.15100993184127,38.902121971606206,2.3066101295994437,-32.715334295310136,-65.67912451822542,-101.58454093645544,-140.43242304437416,-173.76406965476508,-197.2707038776292,-223.21711271089424,-263.64648359330585,-298.09314658934676,-275.43957090934407,-172.38208831160443,-34.263825995217,74.87364216083887,134.51676173638705,164.07377972567625,183.9849669602112,194.9907211431875,188.86263758581637,166.7072791412311,141.11678363882103,124.08949954275096,117.3581887407173,114.37563585879248,108.54131225309615,97.29648877228148,80.48667697703058,57.85900236013242,28.28769947749329,-6.25904025226808,-41.70704635658999,-74.71555990658527,-105.15620154901535,-136.20952431473617,-166.51908237230077,-192.5796655786598,-222.222499691175,-265.23440245485796,-296.2841770412833,-257.306128585518,-135.6173992276251,2.5513686794367976,94.05240198193758,137.1046134300874,158.59582799597908,172.92719416995305,176.7806621035108,164.35451896881364,139.6962411819774,115.28151183161451,102.39809238340428,102.15955988632517,104.92182287837153,100.61661995819613,87.931336999694,69.83322998691314,45.3660731425131,14.15431724522427,-19.380379629960164,-52.99236895455502,-88.96730690879352,-125.77338064532458,-157.4906836266544,-185.0212698593404,-217.33541259453784,-251.35776564049624,-252.16769282270917,-179.76045657674126,-50.92904304215028,67.77606694812762,132.23826322168387,153.8675896480287,162.25318563224596,164.99023591899166,154.24750103125,128.25050229095726,97.61519555003296,75.17961990816183,66.31547727781889,69.49505469389864,74.71949894987044,67.67225677360751,45.06829680622316,14.453226864495736,-17.693643139604,-48.00760619674933,-76.74765745984996,-107.69394217685708,-140.38242428587338,-170.35062693983315,-202.4686573526547,-243.66331416807185,-270.34367520431175,-232.44755915899432,-118.30003926307339,13.503357879951142,103.32698056697234,146.302846857414,167.4392267042059,181.56879779405662,186.028391108979,174.74680470834772,149.8584481906464,121.98183441922146,102.54385915687175,95.596272215315,95.26058862268154,91.17209590750826,77.34861737345462,55.57145430614059,29.730837474730944,0.44345228984874946,-32.19809961980147,-65.69484027737411,-98.73936476851718,-131.13679647852857,-160.20149148165618,-184.5612455657115,-212.11895900495753,-253.11118807126851,-291.6971326039756,-275.1979558270237,-170.59131322015344,-23.10170561364499,92.19222411909485,149.58844599307483,171.54892111295365,183.9880894525432,191.79737170873065,186.0866584542529,164.3364393249916,136.49241825433063,114.83038485576817,104.74727496835014,102.65602326759489,100.5684795421592,93.32418500973148,79.97834219714242,59.598237076095614,30.48820207129149,-5.267000556281544,-41.52080841649069,-74.4406519238135,-106.33076472085277,-140.8095089286547,-175.0598252123492,-203.6945783453158,-233.19810561478715,58.0,120.0,78.0
143.382683140242,166.1072930293773,173.34212494548683,165.9197631492192,143.99928075499048,114.9902737092283,91.40719529372367,78.35502506490391,72.23007041477686,68.02079055096755,60.94577345107451,46.14931025459406,22.63975007000287,-6.810654864799254,-39.70452522107692,-75.18739938611154,-112.69181975989845,-147.6555696071758,-176.4313528967553,-206.73051356321076,-247.51917534841812,-277.27247726727416,-244.199998447349,-131.27923513939996,6.465797667474946,105.91108792981144,154.89047790026623,176.3778987774982,188.33233280244792,190.81812420024335,178.5663760888083,153.52627339037485,127.64497223885809,112.48924668460081,107.39975012533078,103.03096027486576,94.27938296860947,81.68236650767848,60.93657968953559,28.632028982781538,-8.202491588301115,-42.2369532596102,-75.57966893499858,-112.7583456203844,-151.07828353800664,-181.32688242189013,-203.6873425491049,-233.48029686062895,-276.21668223602705,-299.6239728500377,-253.12265560105038,-132.86408485801,2.212656247520356,96.76948917150854,144.9479155970131,170.4060720182009,188.46389856523098,195.20915206216762,183.6912406078754,159.00309824904892,135.01796413300337,121.28531001462879,116.47166470495965,113.16508973735276,105.88316541562243,92.99237511942069,74.60654498816959,50.02690870537735,18.635867474119348,-16.576221271003536,-51.59982020543337,-83.64211170909225,-113.9769901793413,-145.2797440409902,-174.43004324538603,-200.1017974579567,-233.42304765617445,-277.84509544127184,-294.43395165066755,-228.8115656033251,-93.62157712815511,34.98302751505611,110.33388501297088,144.4818357183189,163.3811719719138,175.47993440723292,174.91297131771668,158.02301179229428,132.0045885663981,110.07988156333987,101.30840099353797,103.20369620956818,104.65129694111815,97.65458710072514,83.21905816166948,63.52310589542875,36.91337452963534,4.477479095718015,-29.00658946890097,-63.072227070006676,-99.77003039197264,-135.64921895682818,-165.52720791523512,-193.53257775540263,-227.88726618768445,-257.2377677896988,-239.47926333554085,-145.76835254367785,-12.618679331566431,92.40149891455107,141.4201116907467,156.78367918046956,163.9004654120028,163.5932439499052,148.02974912294633,119.22023642312816,89.89505809710369,71.17347241497981,66.24768613839846,71.47026418380214,74.40418580073151,62.489418499421596,36.68078051515255,5.13018682458145,-26.72360325816445,-56.32720881666238,-85.3296874577043,-117.18097530339251,-149.3791161370805,-178.88037203789557,-213.6599225767683,-254.96925681385585,-267.9399938883974,-205.75847454556882,-78.58109429187,45.03667957857401,119.58548429129704,153.59590837847986,172.12463423678204,184.19124771445854,184.49649901648553,168.594082025844,141.542854031704,115.1242419554762,99.34657819110667,95.26788164348494,94.88357533362031,88.21930798752507,71.67559794292956,48.417896619168424,21.67001665395029,-8.730253086640413,-41.900142501736305,-75.27857591793105,-108.22967885062565,-140.04199361202814,-167.58726805873474,-191.60186124805094,-222.5018199695776,-266.3335327680734,-295.2000023220723,-253.55850927926122,-128.74291379306607,15.924554502199353,114.26606750086573,158.1406275085077,175.46928737398406,187.026031844221,191.91571804079322,181.18694221712153,156.31406407449714,129.18355044066195,110.73323604286858,103.65528690190834,102.3869213970803,99.09072700206028,90.10539406611653,74.89980248489968,52.10506440078123,20.60139078825562,-15.963551949002703,-51.38459280697088,-83.54313625964943,-115.99465021457146,-151.0374967942347,-183.9444025147362,-211.47244714258755,-243.810680636671,-283.8813253907057,-292.29297435600665,-217.48753012095688,-76.31292914695545,52.164175985014644,121.45673319468055,148.6125453280818,161.56373321478367,166.07828630940486,157.5692131203803,134.29901624086534,103.42335060171737,81.66659099921533,81.96263034637725,98.52845160371739,111.85008347732476,110.21443877916069,97.06520759583374,76.85507906665202,46.920812183043594,6.892945497643096,-35.21975688415872,-72.87794987574041,-106.73553694472606,-140.2883321904124,-177.8896041545018,-220.9843620443465,-254.01441636435032,-234.68366598790737,-137.13206948706238,-4.9626920471297975,93.84421776089539,139.1218343071736,152.42730598254477,154.81370447418183,149.5316081362104,131.30579367088455,101.09646059782808,71.75160467244798,56.488691156829375,54.05224865002663,53.58987824158652,48.94416450122226,37.54927957763986,14.666939524305718,-18.78263267582278,-54.28167619594547,-88.3059019711983,-122.82307541147934,-156.03002845932187,-188.6416390005179,-229.8756241812931,-269.3276033541533,-255.49949103833794,-153.38257844037022,-10.163796248106168,97.83257015829929,151.5834293088879,177.71814116706787,193.54969784863522,195.30042396046468,177.8907972168877,58.0,120.0,78.0
115.69078858797276,111.59554177384922,102.74497882906125,88.2376102211465,68.2150122653138,41.59166302193868,8.663864276127489,-26.874119800465994,-61.21147206923103,-92.40880079828311,-122.93460880328865,-154.16584027322784,-181.9378053915084,-208.28643629654573,-245.88236878024375,-288.3110796085268,-285.19309196799855,-193.99408952135695,-52.45368783382546,62.51934529871954,123.11518360611693,150.72945021880088,167.70229075025347,176.95190289934527,171.59940333682124,150.88799823123645,124.6823391391093,106.06028918889908,101.1747433380707,104.18353449087577,103.60276282109805,94.06776636779021,78.10695802567427,56.611240191188244,27.93709118227015,-5.24446476635907,-38.659343546783056,-73.41945759898877,-110.52625416122626,-144.9460669353918,-173.36230702786528,-202.7033118021725,-238.27877680161606,-259.1248052191913,-219.92494776013103,-108.2537430471915,23.024305255755408,111.96953247546023,147.80000616660305,159.21820774616265,164.97568399399555,160.84486937737984,140.62267797415316,110.16578918163144,83.120861524835,68.35222771457596,67.09626616853855,73.26593954923699,72.73445370100912,56.10071370303372,27.845020504729337,-4.2054621396369125,-35.535978671690025,-64.57456733434046,-94.20305224945297,-126.7136448462135,-158.04508932817245,-187.87390154876158,-225.6832922053084,-264.04453310882894,-258.82924329601434,-173.16246888121907,-39.38344966461976,72.06258267993707,132.36704177406398,159.7364867056317,176.3701916581498,185.81983568450738,181.53932366122646,161.46315087589397,133.29214667390107,109.219264117807,97.18991961592947,95.26244808676032,93.93317742512201,84.39155726653912,65.44434930283016,41.006555371413405,13.28971825483507,-18.150025634290085,-51.60019048673382,-84.82601253143818,-117.65029566123368,-148.56852102461417,-174.5964802056856,-199.22392805100628,-234.21003775730753,-278.56364625327535,-292.5109973142869,-224.35886330186585,-85.24463276877054,50.61972665734898,131.552021121005,164.55465230895717,179.0702302435261,189.56557077283443,190.64094190813535,175.0304836550859,148.1150164793871,122.6578854055099,107.6438794697213,103.06433214814678,101.91163894834352,97.11701738356054,86.37664349794383,69.19254236371269,43.844975487646025,10.271434430221612,-26.533657208667748,-60.93039136682675,-92.6781928755391,-125.93400757754472,-161.08854691268198,-192.25727817712124,-219.67238588645642,-255.40769940769093,-292.3284589420095,-280.30188134188126,-180.455959773621,-34.46962865910378,78.40257809260778,132.0756477324986,153.15116872379662,163.90783269953607,165.146592205023,152.26119305047197,125.54351911442758,95.38778744565415,79.32781119629784,85.8450257350865,103.55701285064472,112.96428745378797,107.27783424504896,91.96346386479965,69.38407976490552,36.158540488965436,-5.4929254826194205,-46.634901004438,-82.91645664180226,-116.28173038248583,-150.54223109433673,-189.96896902567525,-233.0070315805203,-255.94520607785805,-213.98008114452608,-99.12387934219717,29.08287366642317,111.8716730113411,145.0210075195118,153.77219562817479,154.29055263100375,145.7719543505587,123.44123093232065,91.77676676500067,65.62590322608445,54.91086422415657,54.145836093637044,52.76928326181569,46.53071051291807,32.28644217323724,5.761150764281954,-29.174211524065406,-64.1805945322201,-98.20830706446039,-132.70684620901602,-165.17443939395065,-199.3717357677903,-243.0915812467341,-273.5255633455673,-234.6084716375447,-112.41131949663263,26.911916112576307,118.07628246414998,160.70812992693084,183.2597026261032,195.87799968374236,192.20497179563978,169.893607350025,138.7679384491036,113.77050577957432,100.11546882227726,90.73327139264526,82.50589357007047,77.4469173639911,68.06629434119718,45.90285566512082,13.866830831318575,-21.781691255596186,-59.88110839168896,-100.4603196232853,-139.23813920088375,-170.46035992398586,-196.06973078489844,-230.2550090263139,-277.335992332316,-299.27804689966416,-239.28224351877716,-103.28925138317534,33.42506145492914,119.02248291729504,159.34705824985366,176.7860851831768,183.41510075759257,181.62355395724688,167.57833883906986,140.1426945295571,111.798585714569,97.52350049423477,96.55551921858918,96.57930826851879,89.40001403055389,71.93368862466855,45.17383184075813,15.147607191462143,-16.07617153427337,-51.45134605473429,-89.14510455325014,-124.04146758818291,-155.3438497226562,-188.4640279676276,-231.09789368628248,-273.93957208643286,-268.23796343571564,-173.72407033416312,-30.939246911651182,81.24800761015888,136.23845792203085,158.0940248245173,168.2219223692996,167.76983843921928,151.68325882597392,122.44676190504505,92.59626061131331,74.6018013003769,69.75790394296607,69.96777347721961,65.96981589003508,51.158738407656564,26.132887994006413,-4.250780341219904,58.0,120.0,78.0
