10.154163736432533,-1357.3163505749967,-1734.5635990831781,-1457.9376492157767,-1229.6105877324392,-1168.9561086944507,-1103.026056114104,-985.1725705383444,-865.9348466133202,-764.4352884836508,-670.2930137953181,-580.5311275678646,-497.9221874948915,-420.28598289714097,-345.2109911107938,-276.4208454723501,-215.18663770550674,-158.29514167675535,-105.21516025431542,-57.67954562908362,-16.566558083185395,20.29237213502117,55.03501964731303,84.59905223712845,103.05704781307337,111.22038995960419,123.9106468764576,161.15262025202526,222.83954184343804,279.23093916704545,305.0952821455202,305.69921013253276,298.5680144729052,292.96007655675066,287.9281771351624,279.96928438591624,268.58091883411316,253.7231021918133,237.9812713842546,224.67302465170536,211.64040842823653,193.81416279253418,169.40680646357066,141.52028345733595,113.29134490519947,86.70797472947207,63.44697824392975,41.74260673217189,18.382466010142938,-5.875579771262136,-29.036439964431576,-51.56039928719388,-72.36190027840257,-89.38218592408256,-108.33879425406097,-131.92417616573712,-143.12491602913175,-124.03145701877459,-85.08680235023844,-54.28926419071079,-45.004797084747786,-48.02160493843548,-51.21771432180424,-51.770470138368694,-50.04258153364345,-47.79976056255694,-47.66866372543212,-47.478903635616376,-41.579101927619675,-31.494650281635916,-26.377535814400304,-28.922880586585308,-31.58228867176142,-31.016058984642687,-30.26290790915766,-31.95556716790643,-35.20551303443694,-35.67955984222934,-33.576745023674064,-36.583344561903424,-46.38886972345661,-52.95260394003768,-49.535296774414256,-46.781123268208574,-57.3907480886839,-72.449940414642,-70.31380162306584,-38.48154010920575,9.452016712700528,44.7652701087351,55.76334789937677,54.57245478060052,56.8821945976941,64.24540897680701,70.68528367376321,73.1337370389572,68.8984992513269,59.916245733901064,52.79162623852839,51.084659054098125,53.11820780397383,53.85447252023638,49.02895007491207,39.74763295277922,29.604381444268224,18.962522043141075,9.672626257266172,4.091121697094058,-1.7578986203833515,-13.092946189112446,-26.529937074533198,-36.62980922344318,-46.22482373815407,-59.02072597794354,-66.67910831373439,-53.067780730990535,-16.783583384085265,19.302325830028565,33.78490703191867,29.74160710702857,22.791059869073635,20.6458370233149,22.313021782729372,22.27197315239636,16.810439909148737,9.44336187783548,6.471476128702489,8.602903158908422,9.738753157246935,5.401142869687776,-2.9654698182622075,-10.381830765598377,-15.423846298347271,-20.30710392530541,-25.358540351788683,-29.369542647074773,-33.44005683228448,-40.51533801919537,-51.14164541663309,-61.99953629956926,-66.90911389248807,-57.088729992320104,-28.217804014351405,7.194647222770632,30.470045701796874,36.88080305491889,34.50757709236098,32.35915127679466,33.48649242057335,34.893104875478535,31.996159772577943,25.290815940120122,20.7949790458413,21.88352807205827,25.657321442373807,27.24237574180416,23.961733574995403,16.454506551364084,7.461814060301721,-0.4436615294448782,-7.1924533062318865,-14.584881825188475,-22.4289480740417,-28.119054334507425,-34.204066885434095,-45.61529774060281,-56.52795662554978,-51.330193364548826,-24.630055729467852,7.5257678286179095,24.675861150710954,24.95931145513221,22.56572337752693,24.709916670400673,27.447640213754823,27.602102496952867,23.999975029291875,18.52598297394441,15.876976300240637,17.03119315343244,19.685512399262663,21.12658874785728,18.59185644389153,11.062893146929238,1.3109896114231405,-7.442607727845778,-13.595282028931747,-15.966473306761586,-19.084621302226576,-29.483731980065492,-40.31498923520708,-43.859181798463936,-47.137140274435026,-57.56964615321819,-65.31074245521727,-51.168511723169324,-16.767172209588324,12.492500667118323,21.855601430125663,21.66293322046675,25.34933215176704,32.428592225763246,36.671464299757034,36.64328593385865,34.5678161944937,33.249533133415206,34.71305181002922,36.25508485665891,35.59437461010919,33.80080789363581,29.860333045265588,23.019611906475134,15.152539853725681,7.712567883824178,1.0102313629665534,-4.53288583916101,-9.246867477839661,-15.097357110391304,-22.458639239474746,-29.173576776304994,-34.934638367474946,-41.63877134412259,-49.164500884136004,-55.26130642050002,-61.803865566014245,-69.43385101521581,-66.2378372849442,-39.73022621919524,-2.086827276552351,22.490993008404732,28.447867365288516,27.388148953826885,29.535088672466927,34.78428695286185,37.560001963546874,36.00247618644087,32.08210055238249,29.145230985898877,30.05942382133452,33.57205128074966,34.25291183820663,29.176089320123978,22.765605872165928,18.383465246936684,13.637841907407486,7.73322647761476,3.0323674118406534,-0.883342952297283,-6.670369164202818,-14.438890727003862,54.0,108.0,57.0
-51.63284152712345,-51.47803824422762,-49.3060402654876,-47.50450716592261,-47.88711819582366,-46.51029208245686,-38.74398531087402,-29.127801990219584,-26.57272351295124,-30.011111869131454,-31.6681954907004,-30.653867801160082,-30.457587943639453,-32.89230538544187,-35.80336109390433,-35.06227218565279,-33.59653470387961,-39.00366132642581,-49.16798121847502,-52.86229100957403,-47.85850655836351,-48.40779671316179,-62.19242791719165,-74.51029803254328,-64.12913685336366,-25.01771721259787,22.007731873080957,50.233327310768324,55.82504302308236,54.49939787878505,58.76621109544081,66.38895367997549,71.91448249477092,72.67153551043523,66.5056029635585,57.41606594964845,51.71320682882131,51.48688472942698,53.69957691624784,53.119592608847526,46.6036666575014,36.842964612121996,26.576904552590303,15.969801903243313,7.713899185238993,2.750442428660315,-4.4314677204991995,-17.097817786263363,-29.834791324884186,-39.1636686362855,-49.679658103148824,-62.473790125885245,-65.49564518912733,-44.24857145388278,-5.051955849688687,26.067605565570464,33.82697613092023,27.467485111677295,21.606296115946325,20.923498273701195,22.753592326886608,21.23303477995207,14.573394420076438,7.93690330097591,6.76143274537163,9.3301321415354,9.103379776665673,3.1846195505249835,-5.384212924227849,-11.999996645342959,-16.77161966263646,-21.810917374311167,-26.642051655738612,-30.40909659301559,-35.07502353412687,-43.30188498191313,-54.479816101291775,-64.37312357390033,-65.99366153863481,-50.50565658019814,-17.7239444461911,15.72075763548289,33.835860140243724,36.62748796616806,33.59211672028449,32.39309543855851,34.089778796762744,34.62457910625593,30.234210511923187,23.488398445398612,20.570866885489895,22.918959426950735,26.52636877945995,26.8193001464267,22.135081248902665,13.860179789322181,5.01363490577255,-2.4529587195326403,-9.184502295909164,-16.931928754994182,-24.332369125117218,-29.548355144007196,-36.920990161905195,-49.44986789481992,-57.316714673161925,-45.47023020106054,-14.838752677014332,14.576537733303423,25.978229288166204,23.92175945039395,22.800470500363378,25.649444187702475,27.82612048071437,26.959878455416323,22.40006582786727,17.31865378650859,15.903118111255994,17.757144020444805,20.35532771717187,20.90737103564698,16.875388385704028,8.290737272117749,-1.4007128199240029,-9.564506087614616,-14.640308462616792,-16.38011948562854,-21.349627880309054,-33.13977920357511,-42.028397357833285,-44.30562235953162,-49.45830424110599,-60.98746962193424,-64.03644658331162,-42.39277590400261,-6.632476733594785,17.164122572071296,21.985770148681656,22.0896549130158,27.34268014723948,34.134229052437796,37.022990977469405,36.144177937004564,33.96482374214543,33.41086924464159,35.3462278480307,36.25318122493223,35.17891470638155,32.97376381206469,28.128358511427574,20.755734939939675,12.936615580020733,5.68710436574485,-0.7272371210467994,-5.914834617027068,-10.732031426424854,-17.152832782985165,-24.54083750509788,-30.86983438800438,-36.6976333440457,-43.846266677116965,-51.0930494260377,-56.92938551592338,-64.14863705096133,-70.4308299114287,-60.99921579618826,-28.82884373326937,7.095314471707873,25.765551894442375,28.255608362404754,27.47479899317754,30.9795111752587,36.02780583878697,37.51149845817688,34.98059827864104,30.96810113084931,28.96507248641566,30.998617734717655,34.321887421000206,33.29438439431907,27.186873843025975,21.331246302083322,17.18218209225209,11.956971832917658,6.178240604106738,1.9454131514460962,-2.284321614854119,-8.801507824930173,-16.7048640569005,-23.610796531210482,-29.442929525025033,-36.17024387681509,-42.304367693577454,-44.155622502267356,-45.75074526594388,-54.747873602174465,-65.57202502658134,-58.69138197095983,-27.009708782754103,9.061843343392503,27.576865410019156,28.903673192168412,25.59079061831844,25.669327752760832,29.095118764143425,33.202803661424404,35.57280766355849,34.637656523426855,33.04688892069635,33.55744142206398,34.12880375166771,33.18457753290382,29.16226655858644,21.168289180873987,14.057174724737822,12.10754865716622,11.56751523494446,7.51700343091871,0.2347404404908741,-7.723170165768157,-14.204279296894196,-19.74005272129177,-26.28230305380573,-34.16622412838765,-42.22314446178052,-47.76911010681157,-51.082403573400526,-58.89002385164997,-71.43209800454396,-72.5149343839596,-48.60798268770497,-9.239873796415988,22.37991122130621,34.40454252707962,32.794108123637685,29.719751136231817,31.38100567168912,35.190233728598415,36.17420652020137,34.04317259671147,32.735138429144286,33.33546060588558,33.473185737870445,32.51369522272011,31.112620047388326,27.759152938568572,21.26049994086932,13.664259749151272,6.9192379520423195,0.6383554867339263,-4.078634750660017,54.0,108.0,57.0
12.337113245360518,6.940086597599446,7.4044109232869975,9.790795298468735,7.95061977524839,0.7328167689250854,-7.5980758319663435,-13.450173549163189,-18.16687102708478,-23.2999208959483,-27.812477420771042,-31.51730767192905,-37.03309175923794,-46.359057959590515,-57.725005760309514,-66.07903801672809,-63.599283806732466,-42.33652957121874,-7.1846362358803075,22.84016432951292,35.860264399478375,35.90671081538362,32.877394097131365,32.703715654511015,34.59831928409631,33.8928185540757,28.246217059723783,22.046444340400207,20.825192786454654,24.061830103806454,27.095807286550027,25.961029590221667,19.996541220958118,11.226638183065797,2.6983444311169102,-4.387528147451509,-11.290026862300941,-19.260328662124298,-25.9957531737104,-31.16096202579177,-40.17102855006668,-52.945111285845364,-56.33773195755221,-37.89373161635793,-5.172303463359527,19.953572553919827,26.0825749537243,23.068231579726273,23.418907279051094,26.502693883644433,27.949356395978835,25.97648796054237,20.745663972165765,16.45952294392008,16.210941066021352,18.547354482682444,20.853525516553855,20.290031486988237,14.748265941244245,5.438745418552402,-3.977010681059164,-11.431547147432894,-15.344653917172133,-17.07245289415963,-24.315490799508968,-36.49510880640167,-43.07628227655481,-45.0384024860426,-52.45816581965718,-63.725007877241296,-60.48235157698066,-32.31354688036571,2.343726946298728,20.083954153641837,21.774744818889136,23.05303969221054,29.469170501462365,35.46495824737775,37.05091669796343,35.53278056799123,33.50609159594464,33.82490006727875,35.86320228281479,36.07135649243206,34.69720000075057,31.908228323248082,26.16935725070548,18.466353316316255,10.773882117161815,3.727053542750572,-2.3536333444755124,-7.252002936690529,-12.374801231840234,-19.30145570429145,-26.512199165383787,-32.511475752676446,-38.59847091617328,-46.069234700030194,-52.857964006285144,-58.74446565768628,-66.52789015434305,-70.0708369355897,-53.64082185256159,-17.60501436598668,14.653967530887163,27.613793741776092,27.83573151533791,27.998743864923867,32.565819668354365,36.93346377338165,37.110546116730724,33.829251972104515,30.02819294810691,29.158444705363838,32.07120997652844,34.67109320035408,31.85648535188173,25.25769569080894,20.0760217409381,15.856770073120074,10.216010287902225,4.787806245661592,0.8618543503827952,-3.9024005129769233,-11.060055067166726,-18.868296716901508,-25.328209522744977,-31.238159946565784,-38.22124869362973,-43.29510292700241,-44.24043687015932,-47.45144382834876,-58.445736852807684,-66.22661702622622,-51.62504040006901,-15.751612961186638,16.634953042400067,29.22266850874664,27.89129416011121,25.154372019157805,26.42814491111271,30.324973911843973,34.17164032043506,35.62566076920615,34.03347183118798,33.009406866310655,33.831665666359285,34.043435851286674,32.45105028059676,27.157772214300635,18.71414142840862,12.982286031639672,12.107557904085985,10.83293326012986,5.643778681694787,-2.1167347608812292,-9.787900968023056,-15.80489758102102,-21.473973435941,-28.44828207878353,-36.57276898270286,-44.20013535188971,-48.7397211821189,-52.56467362006538,-62.48828478174157,-73.83164464630977,-68.23819200883736,-37.83009978544839,1.5984872289128458,27.870186220953634,34.79470682573453,31.59673169012054,29.695545919553528,32.50907035212752,35.906027806314434,35.72687210411907,33.428595178479,32.797994052945135,33.51513643031382,33.26149299057324,32.175839151107105,30.446088928211662,26.1747447745814,19.034000127941493,11.634694875935265,5.048881602602694,-0.9551284862835915,-5.069730972900634,-8.656448622141891,-14.473942610230495,-21.1964012150047,-25.66545230197827,-29.097188329851,-35.46786402598773,-43.19868556303447,-48.69566901349175,-53.932054016479434,-64.84431677259812,-78.22811454004385,-73.56877564320243,-36.96588048573548,10.269213634718085,38.100171351772936,42.59493290445388,38.19316229154662,37.937037751783976,43.37462029117793,47.778639215770305,44.66837122222712,36.80758935589192,34.22555385520922,39.73097297081029,43.931878317223976,40.641213179897434,34.097846865957536,29.021818005090683,23.228682080604706,14.24102913855791,4.719722265087924,-2.7236128913542217,-8.343830114347943,-11.97778261206277,-14.729970417326387,-19.9847001561945,-28.64993729385989,-36.9262853633462,-42.084249233649466,-45.03915036367174,-47.417149995075576,-52.777861845011216,-65.92805651435124,-82.25046671601643,-83.35400186330592,-55.817126442426016,-11.039710037654007,26.004331185895797,40.02388678474957,37.06439317880979,33.854336012352874,36.71799222030598,38.37253265316545,34.350520761861254,30.87416637085001,32.52540273055116,34.574436387711856,34.11075949443515,34.55506081435105,36.02971902532653,34.65539237334468,29.586717509811272,54.0,108.0,57.0
-15.797736987267196,-18.292310770404875,-27.791337629871833,-39.27431741987391,-43.66453597578684,-46.316051503797006,-55.91830636423697,-65.20337717070063,-54.605510136291215,-21.65982106915543,9.710047788484133,21.552333449579386,21.62564640976407,24.527418369138697,31.539720020802868,36.38414157267379,36.81974377036109,34.870660372171095,33.26911248742125,34.413810130005714,36.18331966081919,35.764536330701766,34.11670268845513,30.570651534280135,24.040608662503562,16.190195385923396,8.665899711605574,1.8462602289562815,-3.868720774740831,-8.60199767471009,-14.198028172737546,-21.470869713754542,-28.360450336612,-34.15699651526516,-40.649171942694196,-48.21881503141755,-54.511328920676576,-60.78357261315546,-68.65051431357482,-67.92075329236128,-44.449968923611216,-6.771783138170381,20.427244462597162,28.368117988323228,27.47335188666307,28.962252633932973,34.121412645998745,37.45349814982026,36.409360637125545,32.628456698117624,29.349800287184966,29.70455913166363,33.1319247159111,34.5121041265492,30.07054488128492,23.501192545639576,18.914936422290285,14.373274589417075,8.49664008081228,3.5571964235108555,-0.3004911210969647,-5.747801888801683,-13.373928021559205,-20.897299794556268,-26.986902494186225,-33.16726902379941,-40.11148221967694,-43.86681439608739,-44.5103798290459,-49.93365277015534,-61.95129507906231,-64.85899373662875,-42.58503635910791,-4.867410744392258,22.38349108411812,29.67060551417312,26.82116221635928,25.10032035616887,27.40942285862876,31.54635391065596,34.937838204816806,35.38024017543613,33.500253995729686,33.15965164390769,34.03255548615084,33.82184704292018,31.394494387235767,24.838975525357043,16.516870777568812,12.377650201314239,12.051791975108586,9.735068371559416,3.5510250449875214,-4.456434500566321,-11.689471825116938,-17.375232422799566,-23.332673916716438,-30.71579626226703,-38.95268811188569,-45.883106395872296,-49.60140226319442,-54.64276474657542,-66.32581982515599,-74.73621310559565,-61.70706351630732,-26.251384381044364,11.207286871017862,31.638624197525047,34.32805897712799,30.569660832679574,30.119393880771735,33.6846227741924,36.277641252789614,35.08315844862543,32.99081883042088,32.98867166016306,33.58888516858335,32.980483160101045,31.80593749526914,29.554010196789587,24.32403495059669,16.802413684189425,9.686290374437377,3.204799726094485,-2.364790252207242,-6.002740131901598,-10.072259918521251,-16.485161551040637,-22.789852611254698,-26.554210491565545,-30.57127411968832,-37.7699190224405,-45.06702267013944,-49.97520490739893,-56.31894413717576,-69.09295294068009,-79.84123685783166,-66.02671901831792,-22.778830434127393,21.03248942909862,41.319796129909356,41.491117030941915,37.39485036797619,39.12946055593797,45.13045511644446,47.75686176882448,42.47934981363962,35.121289682246314,35.25734046552484,41.562851582652314,43.71671941317814,38.765871885463454,32.46125924486963,27.616404963832647,20.92542587865757,11.361844292636228,2.3425926871138083,-4.5233474845689265,-9.605883886209833,-12.735748674325752,-15.846406714250067,-22.25165775548106,-31.274755657196465,-38.74964605474552,-43.0830377113224,-45.70473225418453,-48.403651586997285,-55.69534167699502,-70.93408150631822,-85.07874406320775,-78.33551275209886,-43.584004768472596,1.4832603406268048,32.56377023211731,40.174678612474786,35.55321240500036,34.223867561555515,37.733070300001614,37.66711601527735,32.91104164882291,30.90178507205465,33.3676915153151,34.594280483175666,34.00719633049557,35.03911314685001,36.052835186120454,33.511973173374884,27.60632037713044,19.036877558223043,9.030710032040222,2.1062892859791593,-0.17424202963755778,-2.068969945525217,-7.6798852589137505,-16.211682249768025,-25.293911966345114,-35.565400823059164,-46.08972680249619,-52.92346525396467,-58.45754996513687,-68.36778255998004,-77.41765257211826,-66.99353402630312,-29.88403860926511,12.376086788498608,35.3997047695029,38.900659418787285,37.53287329136031,38.55368232194076,40.15673028000938,39.690571913831015,35.70043839589145,28.88383592901707,24.591030282017574,28.22341994463939,35.32462044114253,36.39057266437051,29.97684617394232,22.82493735333725,18.245659265374318,12.69201295315425,4.179308485606325,-5.2273535405744305,-14.075612691775639,-23.35801509875892,-32.397876925802635,-39.46897612976911,-45.63380425169893,-51.17441918038313,-58.200122785571935,-71.63484068461077,-88.77243303361746,-93.12531289833954,-67.6567746643328,-18.76924977131703,24.908308639991855,43.654554685530265,43.27810089425756,40.77300863864792,44.18543139886476,49.223281327367324,50.755810521026014,47.9901751330792,41.85103008897488,36.7857581068194,38.35708141107787,44.83652647370118,45.418609429953044,36.651266258765304,27.29256719154509,54.0,108.0,57.0
-15.670088650191243,-22.784585508839513,-28.652995775340166,-35.210148344823246,-41.701970399006086,-44.10992699001162,-45.216876869457934,-53.1117756116394,-64.71058482603787,-61.185708592058354,-32.12169238199903,4.996764191688426,26.32489550982921,29.27366676537238,25.912791425553216,25.41362954835298,28.54161658634806,32.704684081018485,35.44181688689719,34.90462055045969,33.13936750494567,33.42255798554839,34.12597112451357,33.43373759475264,29.95863683793823,22.33673375581881,14.722566316829683,12.1379287347561,11.788880090918312,8.289549258116182,1.3041122302715797,-6.720192099339007,-13.439171421646822,-18.976581750276917,-25.322474460963257,-33.06422248467738,-41.23072950585152,-47.243734974542356,-50.55194688930718,-57.4001962261081,-69.96467987463762,-73.71652809037664,-53.138937736363545,-14.52172317006623,19.251737464859147,33.846271385166204,33.338054383969514,29.88796119063412,30.917873485129206,34.76242071276059,36.285417076467866,34.365121694741866,32.76698747172589,33.229373655498236,33.53743083989523,32.66470066496475,31.36013466038267,28.392261855165298,22.261506434515997,14.632975562278599,7.786682592810826,1.4237665373386232,-3.578530191710148,-6.97533008863139,-11.721725578523406,-18.488208716193885,-24.126775945242066,-27.459758760607222,-32.36727524637195,-40.07214892951256,-46.686577525260866,-51.35569390368312,-59.3388567093369,-73.30122517574681,-79.28323513983749,-55.734691732775815,-8.609114610756754,29.620165418434294,42.782915444582954,40.078417851173974,37.16977265565477,40.7171460676394,46.58718391686601,46.99299272480191,40.08306081880087,34.14720614539813,36.88165985312188,42.980143698089705,42.839592658569764,36.80629156371465,30.999544049123507,26.034148908390414,18.34332338050144,8.54893735054609,0.16144465416775766,-6.187029260491688,-10.685756400177585,-13.477260633883068,-17.270442623419658,-24.76682768993895,-33.747027678359835,-40.28533726469295,-43.948043404869644,-46.34978129094948,-49.77197180263745,-59.36661430164891,-75.94468344811905,-86.07088234042403,-70.78394586359576,-30.45134350591097,12.733185047765636,37.00664731911427,39.27570060586298,34.42941657769805,35.076856366925114,38.38304420557502,36.49783304187588,31.751867581461543,31.370204462084008,34.05373362702055,34.429215643333514,34.08697271783958,35.53664292858985,35.741655806535064,32.09016852142582,25.40671575800123,16.13468393514456,6.515658035174594,1.0808273786652114,-0.509185950246224,-3.2494525191737087,-9.979345634817683,-18.811241304235324,-28.072646781611724,-38.776526539204724,-48.50962327047081,-54.35307853925527,-60.782105563592864,-71.74935831506895,-77.2460140062168,-58.5291413880538,-16.82905878153873,21.537705026214475,37.819962462180754,38.43313858730042,37.57491838798945,39.10233557063967,40.315868734689154,38.93535203972608,33.88075951111614,27.048910537367828,24.79036927038984,30.378838517345205,36.53762148585709,35.082755568914656,27.672040684291165,21.323351883541847,16.929717089408925,10.487018626340909,1.436844716528574,-7.8242992511493945,-16.669707597764802,-26.111546770554636,-34.631893195856904,-41.29445818006456,-47.29870582513022,-52.82887235955346,-61.286880826444914,-76.70261639711235,-92.29837258371845,-89.15334630694062,-54.870005604399864,-4.29498719813168,33.07881381490156,44.76323763160132,42.131014131032096,41.18379362654198,45.7906714699768,50.1150201992389,50.390187271254234,46.4500382634105,39.99160297944076,36.41360857232759,40.119218244993824,46.06842258001026,43.5773197052082,33.590050816124574,25.3857405981359,19.483242569037593,9.690575681326923,-2.16373745580077,-9.914729560001867,-16.03916038014997,-25.56702059670265,-35.8096036917873,-43.856082983866294,-51.63932792569358,-60.27598079217585,-69.23736690873132,-80.78244202486088,-92.64504205744383,-87.74153623721418,-51.32967766697348,0.2648225449572646,33.89294833453427,39.59792027295683,35.55858811772728,38.19932335252672,44.42317887820974,44.764300489284516,40.805670040883726,39.08558923354597,40.275437816718124,41.56583089679954,40.74241185112292,37.131142291805304,33.393584802159275,30.42974256116505,25.533108013061092,17.84524130430094,8.541054716165704,-1.4160967119585774,-10.983392975689389,-18.739062524500213,-24.55765174478911,-30.550595279107927,-38.588725653831666,-48.015788269324474,-58.310363414676324,-72.05518516004759,-88.61343005987665,-95.70759736484764,-74.65203546943499,-27.150442205757287,17.405168116629696,37.348114220660186,38.346069175528825,37.235440583155466,41.91699632411957,48.219198826579564,49.47651552540956,45.66319614107974,42.367514199694824,43.529803697181364,47.35271225389251,48.51208289221055,45.11890397126928,38.35889524709936,29.429934386343568,19.53691638846418,54.0,108.0,57.0
-4.625545409167361,-8.081124917080757,-13.571647425325486,-20.38334433406204,-25.223080425207087,-28.52224199757883,-34.4422476184075,-42.2567135206323,-48.09426273260646,-53.019467072845075,-62.986630582883095,-76.92761553895522,-76.04755707276243,-43.24508002092974,4.6578142979507176,35.93345029968904,42.885941219087194,38.71977316215392,37.55940624641278,42.52370592165497,47.54766107472639,45.53673150052543,37.76716000548743,34.006189060869005,38.819380339796524,43.79157190548654,41.42602197837046,34.91663306814415,29.64199384633906,24.185184859915847,15.561681656289338,5.884317953397299,-1.8478444362985844,-7.701476456306865,-11.600621322609452,-14.297176618950207,-19.046624866666814,-27.41718552177732,-35.9866186986306,-41.56608273257825,-44.71312828002663,-47.04782729909407,-51.678955338713855,-63.72962129110152,-80.47533776036994,-84.79060915814009,-60.97630903999429,-17.091782839029783,22.27055459270349,39.47416925032291,37.80660807237142,33.88774200985539,36.1903416363204,38.50962827364197,35.049268623714234,31.03332203180165,32.12953187657852,34.47730432271272,34.20170910020709,34.36760477629578,35.92242108377697,35.077031485482,30.42755894601186,22.978769072357714,13.175771950624863,4.393008180001543,0.41131231830921017,-0.9583167371188812,-4.8012225536166495,-12.45163754431732,-21.416127591574114,-31.006097467769344,-41.918028195011686,-50.53779498468925,-55.82860356774538,-63.59048057542537,-74.76302130762859,-74.89882542447789,-47.93996107719674,-4.1230340733647814,28.657787214736885,38.883662790426285,37.93636909448153,37.85674989950361,39.61374195384703,40.25416313101368,37.855715769349914,31.87362371338048,25.611832042482458,25.735875920535435,32.585756343799154,37.037063455341865,33.233343399112144,25.512597808883484,20.02338494334976,15.407896277084468,8.04344818485437,-1.3078569585157216,-10.368609022763424,-19.341376758644763,-28.78246036418643,-36.686827997256266,-43.08715379791992,-48.893108874982474,-54.7125808230736,-65.03405060689437,-81.88263136725469,-94.22666234382991,-82.36922514006568,-40.60943380659548,8.940399249496384,38.92608975547343,44.651810580265774,41.222125092795466,42.130393273992375,47.344491784495794,50.64324855626093,49.66917634884638,44.66544469488909,38.37612781500225,36.718456661560914,42.12768335510241,46.4928852088076,41.040711649704534,30.75785213942683,23.730148613904213,17.202078347302262,6.138160085831645,-4.918211230083085,-11.532018029491763,-18.419821808455872,-28.686063326669448,-38.329669577972425,-46.01891414331185,-54.08373771670584,-62.79256610061354,-72.18488456398322,-84.6514965205989,-93.96036885876208,-80.43139909968916,-36.4612874474577,12.959148553751746,37.93290789684385,38.394834454367306,35.4119125843198,40.14388451776033,45.30825324659783,43.7240064973825,39.91738222102803,39.244678160246636,40.754129020696745,41.6232631151273,39.92548628644436,35.91809849129921,32.560873712588965,29.31605925729294,23.558118755834997,15.27119023633404,5.693370745863005,-4.279139904209955,-13.465296561797745,-20.554551085409532,-26.15592815272322,-32.64000394645922,-41.24713806158711,-50.829096055327255,-61.802717743418164,-76.83171544418629,-92.50564036988796,-93.0919916008994,-62.65862999860291,-12.523678854914833,25.911959100528478,38.83083525548564,37.62154204626298,38.00592727241671,43.923419643850686,49.26601090527297,48.69371736386223,44.398173200904985,42.200896328624864,44.594822775233176,48.14592000296602,47.96617151422672,43.44748401998067,35.96247200429962,26.59320510234879,16.753929265072657,7.638167236461925,-1.870342950565201,-12.425561167413361,-22.09149410663746,-30.657361399296473,-41.18151017430841,-53.05903235742789,-62.645963609158365,-70.19680440367455,-80.6388179395982,-95.866648958495,-103.24197983900817,-83.20738810883219,-36.9829367140971,8.583265628313823,31.998693223740105,36.29206222827019,36.83719618006792,40.34928380713611,43.89283064827291,45.00278546868575,43.48253913198309,41.587180139137,42.55733940239916,46.4647258516906,48.844968791314315,45.86371188002324,40.56997837868932,38.158229850709276,35.94762895678362,29.706272792150465,20.570038628448522,12.401836475625979,5.135309101713125,-4.193154254222921,-12.99844849900699,-17.8977830126426,-23.723991027922438,-35.859029628985105,-49.92874254489546,-57.059982918552784,-58.217874406775906,-64.54010685758436,-80.9862828874071,-95.72928470784029,-86.88326558272738,-47.78013580892541,-1.4088514820796498,24.578910129038018,28.37161936818609,26.87489563190166,30.650494073814166,37.557107887899605,42.39265447727747,42.76428530453381,39.63277455999199,37.56052294239912,39.668479610980945,42.58796586917871,40.5938283118573,34.41446086730333,30.429437868440672,54.0,108.0,57.0
28.54606031391494,20.326622169255206,10.293552993727097,2.7221342857095627,-0.01849141172963473,-1.645883184761811,-6.701383007577929,-15.016130421062435,-24.05332665771142,-34.09871690491987,-44.84612536345746,-52.22706082564197,-57.54182298568287,-66.80379923955049,-76.89092514132886,-70.07624586618124,-35.80180963328358,7.523362445408585,33.71724631606288,39.026810664187934,37.60329450859359,38.31041446858885,40.02006392453834,39.93440851273419,36.45112554438172,29.809123264267008,24.75327705725161,27.325429710176653,34.56168122405627,36.76750395940557,31.04196568904643,23.606894458511505,18.811105256184298,13.615668315026653,5.425139714285386,-4.006331475887965,-12.899855161575049,-22.082245580130202,-31.30086181447542,-38.610748089538085,-44.8426296212839,-50.449619040870935,-56.98203992061117,-69.42468631957811,-86.76070577619132,-94.04207482447431,-72.86665172550647,-25.662378857428255,20.36309967485209,42.605865754246935,43.79620710201363,40.782714024210776,43.47811472184809,48.69714649475308,50.8038803261892,48.5977151569174,42.74442064060858,37.16645077988624,37.700049072405186,44.063045811522606,45.97672777107252,38.07837222783404,28.293145135233203,22.13664958764458,14.451534596046105,2.5890477430248926,-7.217586637183546,-13.18951386564273,-21.149146813343396,-31.720817883442365,-40.65716506503371,-48.23509831938975,-56.58844269841253,-65.33134855188965,-75.44730867806747,-88.3796840515327,-93.29234606413051,-70.31251724357936,-21.101035437663377,23.37207801758415,39.77055070348843,36.993474642140015,36.056004505336524,42.11510769214996,45.52693332349844,42.502176793862525,39.34375823315884,39.5934625065809,41.17117782869883,41.456451677849024,38.88433178526242,34.796220462597546,31.751786017516828,27.968200293175588,21.364756901542346,12.594850223743114,2.810058868604044,-7.0810225024008835,-15.756154822084016,-22.232552533898772,-27.835483393101157,-34.92928916038943,-43.97363731133847,-53.733427205628246,-65.67452272349394,-81.75454997195779,-95.16654032801462,-87.67358828197275,-48.85238015452235,0.9727431170789791,32.10167775990411,39.1132502183338,37.12415698162718,39.31014766162992,45.87328722140606,49.75883195069934,47.57436664500649,43.33514411734868,42.461613866607344,45.76905239108526,48.58781038717626,47.0490649340928,41.53241682797943,33.40558061746696,23.714726089502157,14.054133627090483,5.010014216910325,-4.8628182130987625,-15.409049548177071,-24.557511187693496,-33.403415453110476,-44.64345345873731,-56.16954419024146,-64.87265109999342,-72.66738447740049,-84.76924944668518,-99.75459899324761,-100.83502084154905,-71.64176704957129,-22.405699535193243,17.958693753336664,34.53969666410416,36.2604974996836,37.60323488925021,41.52925520349419,44.51322179973865,44.782113236207415,42.81719884936249,41.475019410118264,43.51626727081815,47.55849143983811,48.556371084132195,44.26165026180817,39.5326493137107,37.765423344586175,34.610810701732184,27.19402065116254,17.986578264564297,10.371627272806103,2.6735967665769897,-7.041269658036503,-14.765729079755241,-19.121522641432907,-26.57261095293812,-40.15185509340434,-52.949661728152776,-57.590079398523145,-59.030755886832786,-68.43600243854137,-86.3586678196483,-96.43696664293135,-78.1732275371555,-33.634117138826724,8.86658519426744,27.326074752697004,27.733702083517247,27.345791942556644,32.5814604569345,39.337095126483085,42.98218123770107,42.07891681737749,38.67993934173408,37.773339930927726,40.704906021390876,42.678173166675826,38.957186487759856,32.851637889381095,29.83608236241547,26.253986355397124,17.31171932942526,7.215668766995199,0.39176635539485266,-3.4105154212756794,-4.836919834767763,-6.194222083715127,-10.42019045304228,-16.654507378926763,-24.046621813221076,-34.273204548878944,-44.925909528428356,-50.24465321429737,-53.14350252060383,-62.363532663498326,-73.5274496215319,-66.60689113782517,-33.331567343761776,5.307153521163559,24.03595996846865,25.010817153851438,23.610083998325223,24.392372129564368,25.426126434101306,25.551713713755507,24.957827720626035,24.628457428476406,25.114993554288436,27.017229301447227,30.08119158298211,31.78502169213462,29.63179215035628,23.667731235387553,17.00471939629092,12.138815694409928,8.244317906375313,4.770196597942757,2.7866216671888413,0.9854978056427695,-2.9093736782140818,-7.61998309639127,-11.574813820937694,-16.282920028607606,-22.275001569392852,-27.514993744484034,-32.77434969145928,-42.323948807511826,-55.768221363714645,-60.25072890565744,-42.751778089061474,-11.121214373907591,14.259638433353562,24.450844742614255,24.45437512387251,22.195621970051427,21.414551346559968,21.172504010178802,19.871274604652342,18.826553864246907,18.64482604625738,18.05132447053872,17.746564351449845,54.0,108.0,57.0
26.224314848810717,20.392128188962566,11.26907842260671,-0.7457809291107915,-9.127340720524282,-15.065466255619695,-24.138306367430296,-34.57148130847188,-42.86019955968306,-50.54204590250377,-59.11341248700731,-67.96461614929068,-79.03732938114737,-91.53295303948174,-90.13472643967984,-57.76255642466812,-6.201327123081458,31.18479557561618,39.92568654640875,35.87806597472081,37.400977593567085,43.80674733661596,45.12346572214045,41.303393695018336,39.09737290666335,40.050207317212546,41.47597808576951,41.030573032584456,37.69847414216542,33.806832715311344,30.87802997416969,26.36137191854924,18.99045213647537,9.83601535226556,-0.08479324210862067,-9.782954856198845,-17.843300730090228,-23.8302249284277,-29.653494524936256,-37.399554360637,-46.73412308457172,-56.80891059639857,-69.95353535036958,-86.54834298811302,-96.0470166682785,-79.3874877308813,-34.05597551108499,12.70810568418806,36.13287684676004,38.66990586816416,37.073844197659575,41.03041609661925,47.56949356458179,49.68690460235116,46.27606607129669,42.585378020352564,43.116698725000184,46.89324524294828,48.630247898463274,45.79777766319669,39.404587946161755,30.710594557680565,20.844617824462183,11.426041181797753,2.298280754541947,-7.931107668606729,-18.247693293257253,-26.979593946678598,-36.395523622906886,-48.136238955294665,-59.003639282216355,-66.99701052808535,-75.53409924450159,-89.26803081422126,-102.49293515395622,-95.69359083214752,-58.254456315281026,-8.687307328158553,25.167326489978304,35.80843289150367,36.29721576334954,38.62556521478561,42.60999873419699,44.89473792666077,44.35716582074894,42.202012937669195,41.675924307592005,44.672768291506074,48.3797948038166,47.76486911632892,42.63257037626148,38.81563073011894,37.23446250820956,32.87943615675883,24.521109111388274,15.582021681862273,8.340146682336009,-0.014151308850306077,-9.703592852837659,-16.179464767057123,-20.634052237024104,-30.010342659315615,-44.38997750319939,-55.187028968973976,-57.80400672659718,-60.588313822714184,-73.16556440596223,-91.12305390826093,-94.61136032720258,-67.05937997942344,-19.71175505886207,16.912115848628527,28.492436569310684,27.125179112800136,28.360547738840403,34.634065965589116,40.83423217499398,43.17221641863691,41.15580929844447,37.96587533912912,38.35196247508476,41.66681359765826,42.224419448818985,37.09896426271332,31.630443865466486,29.206173149051274,24.186687778293617,14.209593026838972,4.8701226001297595,-0.9791915240616844,-4.026174425108462,-5.061894085158743,-7.088370825075501,-12.109699640326024,-18.615310215573224,-26.669439580440496,-37.60068503028447,-47.122211735990085,-50.91022821818425,-54.946274290471855,-66.13485213692563,-74.26604198811869,-59.277150015927035,-21.29769379531956,13.265860280411722,25.398318692100446,24.394052929715,23.680698801733918,24.74463072175066,25.572181632011677,25.41363752962768,24.79707059442175,24.672584105180132,25.482845622209954,27.866919893679864,30.8452017223524,31.626214152173628,28.202340736614556,21.64892254544774,15.39635947790177,10.990011441189543,7.148252476401489,4.032142221627615,2.3829826562306753,0.0943619864879549,-4.310478444328409,-8.81775357747354,-12.767714134272351,-17.95518720096736,-23.934813990793394,-28.866522311245795,-34.919872077185175,-46.13996621304556,-58.77908149215485,-57.59017628064488,-34.156549802498475,-2.406099796749747,18.71425049249283,25.116857528584177,23.7600328288691,21.795327227294027,21.394593064056885,20.900947126108125,19.45273957040897,18.740975995502346,18.546719117487136,17.82726933381687,18.035140167119646,19.828647335258875,19.041643740910132,14.938798327752405,12.073145326373846,10.338915800218063,7.839156848200247,5.178975953886892,1.724669971767439,-2.8688735469615727,-7.3158714721420255,-11.143572645525829,-15.196425107243325,-19.630178782930713,-24.457829405221197,-28.739315937421217,-31.388267642856526,-34.326339507809905,-40.483761540395975,-48.48013099883003,-47.00516015531781,-25.757427895043907,4.748680818815254,22.69697758238459,21.22217021318109,12.471430951553202,10.92950078578878,17.59896769854631,22.399203552998976,20.52523529255055,18.645693994175037,21.175697620332468,23.871304756801056,23.659727650976862,22.99403726235923,22.464718910563587,19.189325760069135,15.075997430319811,13.125989997386819,12.408254168256212,11.921549350035736,10.559851671215421,7.442811072966178,3.9666597482015917,1.518919179719112,-1.1395550186808303,-7.448208788334877,-16.082662941309163,-22.860360189962147,-28.248803840589922,-32.245186068826285,-34.820818360265264,-41.24616713096153,-52.27018959767979,-58.57680797331919,-50.09591573640747,-23.836089969041673,9.612989218765449,30.76209114612901,30.998564990153298,20.48960266084954,13.55843625113691,14.70056828635269,54.0,108.0,57.0
18.026992985195694,8.834270206885813,-0.5270630985080456,-11.016708310288875,-20.915513346562978,-29.4630175053678,-39.6263367339623,-51.54493285043618,-61.554970198171794,-69.1518523105159,-78.90355429225949,-93.84463566168898,-103.50445322259796,-87.75869250269133,-43.789509965512806,3.5595132581586437,30.282187832955067,36.24934810411916,36.5914895410666,39.79383527842793,43.53265045368349,45.02594795643572,43.78043655951558,41.73135756092499,42.20651707552209,45.90762372756204,48.80651188041703,46.53947568922309,41.158644829688356,38.33669171776583,36.43352549222461,30.780992243032973,21.80494445872471,13.368543219536505,6.191420586755251,-2.8601049787388444,-12.048148336370783,-17.371146670437895,-22.61705871467838,-33.93379014919367,-48.30316773540169,-56.63240487465638,-58.02299786481141,-63.066250866396175,-78.46039665040092,-94.67146284646552,-89.9809785371363,-54.13746925181801,-6.818579316784275,22.66245459198625,28.56639017374244,26.84294659287078,29.843272916890733,36.66412746754506,41.98775649074955,42.97572223311346,40.11372031402955,37.59740596952969,39.21114774582863,42.38401607516675,41.22158097883316,35.227329126606435,30.747426859073645,28.328009055242838,21.633146895086657,11.19610846314309,2.841542328704653,-2.12622399793813,-4.450512373504813,-5.3753258932320485,-8.265916064211023,-13.907495560076988,-20.685405277858074,-29.585146119839912,-40.81837318495674,-48.75049804781849,-51.57917119523728,-57.48187669050053,-69.74179141635878,-72.92059590382506,-49.81531450537531,-9.606652068902058,19.111111840129283,25.65706856270039,23.90687330534909,23.909692334921658,25.06660617755752,25.627550232486783,25.2341865951521,24.683777453482783,24.788050834360245,25.996142653353736,28.77937951427692,31.421408965235003,31.093580178848967,26.49246532261101,19.669914842720228,13.96863782963782,9.87114941112474,6.105578043197648,3.4441397574581023,1.9220655000253235,-1.0076113027227749,-5.705426865406757,-9.945367415885071,-14.085398860201293,-19.709796206212207,-25.470161671663707,-30.29435071360246,-37.54731027580484,-50.17539999348864,-60.59296843432976,-52.886748387905385,-24.837140282669772,5.298659395745283,21.86768515492354,25.13912328630239,23.053063557979094,21.5519805348625,21.361706367442956,20.52134823696454,19.118827281192925,18.704547654884195,18.381978115008987,17.681555375216018,18.505925758741057,20.066192322490057,18.004762631433106,13.852915479341174,11.594506304438559,9.685047612113298,7.076630263382981,4.317098173352358,0.47382381203606155,-4.229115159855497,-8.453214283591228,-12.263765736734497,-16.44652546907411,-20.98586870717479,-25.83819484036837,-29.64489181990214,-32.06492340374564,-35.68682984097774,-42.91226654803746,-49.71053235703043,-42.90628901408738,-16.886575076289922,11.962892464189471,23.99089053574319,18.6624856364824,10.919612478999007,12.37216758387537,19.63196488718711,22.399130926458117,19.597570082659747,19.00560782380638,22.19135333022596,24.067470811632177,23.375298621278525,22.958244495634414,21.84826725502433,17.876804076470716,14.286963745063446,12.854901513544144,12.276158556272376,11.685375018937414,9.82037053336586,6.38128257515122,3.1429420122937195,0.9240029929136524,-2.4972353736705277,-9.934455838686231,-18.297883674468636,-24.483163045664625,-29.633665496737343,-32.97494678707957,-36.03539822210718,-44.23693000029793,-55.0928150164442,-57.96989745929656,-44.16340056150411,-14.074270460000198,17.74684684068515,32.818225229761985,28.33472007137866,17.697578566453366,13.127588123374334,16.10619920571464,21.690753439310384,24.014657721306897,21.24858636347547,17.571356248809796,18.482776147115597,23.603267216404692,27.23975992128218,24.685326723484575,16.92115569420436,10.561886132943743,8.961915662946145,7.208726856346374,1.732820635913552,-4.382773930761736,-7.532122943919307,-9.085928091411331,-11.974573780582984,-15.507500859897746,-19.029931370027732,-24.916428023280183,-32.34343234975894,-35.043384956606495,-31.294818073202514,-30.339593865766634,-39.733709782141375,-50.95406783387242,-44.62133244890231,-13.323942938992488,23.12122896149921,39.80741550785079,35.81972530836227,27.44031934985843,24.62467591795199,25.63982892430177,26.576828085456086,25.8616309228355,23.056052813715475,19.030064998090786,17.3863694341296,20.21454872853127,23.861799189827988,24.457425642694986,20.899251044949693,14.526600110984747,7.627419315621687,0.41050956194856625,-6.184416020059196,-9.175631207938777,-8.964795511847354,-9.975622566595504,-14.08826516418828,-20.440509500914835,-29.707433059526842,-40.38464799477186,-44.554937724039895,-40.49466261195892,-39.817413428909916,-47.72910453247486,-52.201339218834235,-39.06562289412135,-10.35200222612102,16.70284151210812,54.0,108.0,57.0
30.10126720434274,27.026831818538092,18.72385647809122,8.404680992150832,1.1041755810987717,-3.0553635419534175,-4.7332960721572634,-5.877720111260778,-9.693186170079397,-15.774429215283053,-22.93174759243842,-32.754309896459276,-43.73205283722924,-49.86463092825403,-52.53456861342921,-60.70290980311232,-72.61578925428383,-69.174885181978,-38.76502666061572,0.9751924756866509,22.904285272997676,25.282753309532968,23.64818014359853,24.230376327660963,25.32995728863448,25.59404916923042,25.042508146809304,24.630829772839224,24.987991142962635,26.66247679907003,29.685804013143805,31.74108721916006,30.17818417169743,24.58622239460872,17.808268618914344,12.690840172353294,8.756882163947028,5.161295979890329,2.976870858915541,1.3242748147093526,-2.2818953362545846,-7.0366550224515,-11.053166727421406,-15.55467199179795,-21.476671658250567,-26.887928384614924,-31.921434731785443,-40.70067706066972,-54.1050029638984,-60.79242843383843,-46.314873664925535,-15.377030065928045,11.745291009648064,23.866081395162887,24.732002424024174,22.434168390948795,21.43726545133952,21.256948788725627,20.078820967774725,18.894241391631386,18.67097795629531,18.161688941418568,17.682447677453823,19.079968951063805,19.943535013958012,16.770901297625382,12.98384825281136,11.130127708222561,8.957679487470534,6.321295042769444,3.3515357103161425,-0.8582579976521576,-5.535919938706795,-9.55056376315215,-13.425441804708193,-17.719788997052067,-22.383389284278874,-27.123297153226126,-30.410408256104212,-32.841672521596465,-37.387303833865104,-45.38730933445242,-49.759887729004404,-37.02041234941153,-7.7579719657494115,17.62199216679205,23.72356639752841,15.929965530429163,10.251242061421433,14.352571524957085,21.214533761393774,21.856974024576555,18.915599180548135,19.734094723188726,23.061016809968525,24.012448804124354,23.15108588264462,22.881299607235654,20.934558656522455,16.61747863981742,13.702594203226205,12.64480355982796,12.149812040976173,11.33809991058535,8.928754325230873,5.346972932520781,2.4235386160399286,0.24405116832330764,-4.24787097518673,-12.495731154119397,-20.286420699969913,-26.05029308441535,-30.849567832693317,-33.6366925875812,-37.74647124918276,-47.51199768969584,-57.22883661637149,-55.9160173940633,-36.76501889261646,-4.128980200816795,24.35979836191201,33.120277246929106,25.173974190242348,15.496548477849462,13.364630303027358,17.736929963646233,22.891269124750284,23.65876454783847,19.984400278340452,17.23665436279896,19.72720689469685,25.089365271220984,27.22563881036085,22.751665846588228,14.62246507907716,9.718212587383283,8.757287688004917,5.972217434759689,-0.19057195450978634,-5.641413176533418,-7.974550050029655,-9.742698134243083,-13.021023115770213,-16.45171651426124,-20.39224990402507,-27.128450236136842,-33.88754025703643,-34.38439765234305,-30.19237907641579,-32.01513987868385,-43.59087563783836,-51.71766258704335,-37.750883014077075,-1.971927912095551,30.563983577638652,40.16170950604214,33.14020486424394,25.9820486421176,24.733929294216015,26.028048105804576,26.5686820773415,25.269235992879025,21.90898680797985,18.116056199454235,17.81794901092143,21.412374262540187,24.437506723783514,23.850596607679886,19.222967155280728,12.542121216624665,5.587680419887189,-1.6824275433480302,-7.517865237260327,-9.270449880984225,-8.956590087162953,-10.87758482429241,-15.704162032724975,-22.767104214635914,-32.90888833285115,-42.62701623422217,-43.86617174285939,-39.38869952116099,-41.48418085024052,-50.15617615777605,-50.5269665170846,-31.76111507376092,-1.5296430312067197,21.98320774048859,30.627525534779437,30.99242387521922,30.578082049710144,30.11704029887249,28.86124893067853,27.925585726974834,27.555401363228167,26.535596866337915,25.177198876138362,26.986710932236058,31.634333763841852,33.03412807041749,27.38868552471732,19.28650050444438,15.147042065177931,11.958931012437882,5.113388147244097,-3.348634281118918,-10.346485987455717,-15.393101425217083,-20.30537853868696,-26.40853363872674,-31.949122789551353,-36.174239524366435,-41.00613492395853,-46.566587582513094,-52.424977126912204,-59.63632874588994,-65.27171505621142,-58.081932830465696,-31.180182584112746,2.4374394470628196,24.030893157900906,32.72335203770789,36.92912069961682,37.61182332977562,35.09679211190122,33.80401353904754,35.56503312622868,37.573443474992715,38.37822745983145,38.051927182798,36.323448279268696,34.03626491022709,30.988441492520522,26.093505491851076,19.03631660222002,9.636662157414428,0.8242255533222345,-4.123385917748191,-7.0759902528790315,-12.558513133868292,-21.092340291297994,-28.35668654577163,-33.07950539249934,-38.247985397732684,-44.238596607290525,-51.27448941387135,-60.39481798084287,-70.5239273900671,-75.5366107703977,-63.512454857189205,54.0,108.0,57.0
17.876913884173515,19.62748872185997,19.415067134878587,15.49783566980709,12.323560542263689,10.609121077720292,8.193797237128924,5.550042322567301,2.2656720713408345,-2.232767367624975,-6.770992161038456,-10.637792128688941,-14.629335231339471,-19.019394744834145,-23.804776088375085,-28.266960338444665,-31.08715865293869,-33.80094740879088,-39.43540489972736,-47.62562959048003,-48.27631214408918,-29.589964982694372,0.9989143796520091,21.513888338593176,22.22021759780281,13.439952751356813,10.513406335535388,16.577062870125808,22.18090932919899,20.976610263614585,18.627259133910286,20.697156955423583,23.68278303550565,23.790222289500274,23.023468807333135,22.65095239766056,19.776757480023043,15.51450246467707,13.27999143775733,12.475895540179886,12.004216716583821,10.843804922254131,7.926677076943085,4.3811969542361355,1.7918836772147768,-0.6356420855874596,-6.368567991694825,-14.988297269562327,-22.081314521182932,-27.571101388450767,-31.85358836344423,-34.391122868856954,-40.01729279402088,-50.81662096796272,-58.41501898320879,-52.30138033712077,-28.1355222971288,5.460171801595172,29.179682086848405,31.941346203117142,21.92173022257777,14.000027253870114,14.171078112273209,19.43102622523882,23.688567193327835,22.889977632716914,18.804982765055648,17.391031732711088,21.238782264384575,26.284291193259605,26.617162244256722,20.475357090340896,12.643899866349843,9.259306752304102,8.360775452107484,4.408915574900106,-2.039595584135806,-6.59705999376111,-8.3762599120102,-10.558004320443532,-14.063032765184271,-17.416375010235523,-22.030422984086737,-29.37582470165664,-34.850108932981335,-33.25359660843421,-29.644249887384333,-34.635038322716554,-47.20769001458184,-50.502317594787925,-28.855569692808665,9.06119377232669,35.884357760105,39.06258276236991,30.541816263309315,25.083198129093518,25.04483162514391,26.33678504238145,26.404779464787506,24.494125165423565,20.70155784266973,17.521619154257102,18.616282066020112,22.542989351877956,24.69739467388321,22.887047504759636,17.37709303744419,10.553569615666708,3.5053723633070524,-3.668684648563759,-8.470260710348239,-9.173354042324556,-9.1685268458206,-12.03246065005567,-17.484996833406225,-25.382068775800544,-36.128170771127856,-44.07203512924233,-42.612515266801765,-38.93547175873418,-43.81582707440484,-51.85977205475251,-47.11376488294981,-23.418480813160972,6.6504452446748585,25.906628022541703,31.13879835937666,30.806903846799475,30.522015879036456,29.803227918620657,28.51040064136408,27.797972947894817,27.3850451635409,26.052029663755825,25.239249759221966,28.253946966720914,32.661435854215966,32.09332317383911,24.91830064144826,17.61498300928947,14.44799682031229,10.367439324009272,2.658912394947686,-5.594003000748562,-11.958153435208747,-16.718810248579363,-21.973405864063224,-28.175357729765928,-33.23215167450025,-37.44546602974285,-42.58836695515797,-48.192860803252586,-54.34658404391501,-61.79352071042885,-65.09426844201725,-52.158990418254696,-21.163018731489863,10.361267899332221,27.451197372224744,34.19613591488816,37.575377201105496,37.05288175111715,34.4045952107114,34.0790092522099,36.25110439516779,37.91810698274515,38.42046165387993,37.6767787799343,35.68565980499589,33.292326332562865,29.783992591647092,24.300201677527486,16.511192405171066,6.824569544851943,-1.031770681746754,-4.971743970589746,-8.254228710890544,-14.85615979211488,-23.5122821085844,-29.86040850068846,-34.4393566077825,-39.93275785086776,-46.09666110349495,-53.692806005366506,-63.34719013555158,-72.97507781955872,-74.30050600886129,-55.88188034852386,-19.905892602878136,15.37951915397998,34.157992511389146,36.905799291105545,35.668732011145515,36.98102209053688,38.63255290624534,38.781877511078505,38.67902909286227,39.477180893465444,39.84429331903225,39.026915196662614,39.310336360741815,40.08942045574767,37.80731452663634,31.17618690418085,21.805021177353318,12.789638739222163,6.207573248740698,0.08996248430916427,-8.276954478792982,-16.82426578541224,-23.55919973772356,-31.491809341911477,-41.66918055201691,-49.81451219613237,-54.830169615686295,-62.851921757818815,-77.53230549179179,-90.46884524223722,-84.6938668871156,-52.37981027070334,-8.341001327656798,23.42270337869375,35.28681750708721,36.780636377264294,38.760729817767334,43.86395918089548,47.75357917454769,47.25071579393795,44.05570456574022,40.77029076553536,38.46578630659155,39.212540993537516,41.6517969821202,39.1473744427725,32.070150460327554,27.162706856898925,23.193504656247693,16.235533052405124,8.511820469526295,0.9377611509495632,-8.121076854439309,-17.84487816378941,-27.86037144629873,-38.29822422885237,-46.48130079308076,-51.7050932503414,-57.28353111677731,-65.12182550493596,-74.02298976254237,-85.72121285275699,54.0,108.0,57.0
15.420632025946546,21.028215143938613,24.022504999382143,21.811500464145816,17.876331443480037,18.034699693616076,22.863013897039213,27.055512331568572,25.42072785238046,18.04043565230535,11.107150972142401,9.035543956065336,7.65551221771662,2.609220119118379,-3.702461815856668,-7.285041275453477,-8.834707569964175,-11.506314961449359,-15.062972266742833,-18.48114174866875,-23.949878067680718,-31.4774170744004,-35.13978209362531,-31.904933223570865,-29.902338686197997,-38.00957138354261,-50.052276604401314,-47.02074800037091,-18.446690816876366,19.043034863173304,39.040341938911844,36.979168973055216,28.30303683284676,24.676191206936565,25.447879240222775,26.531626200030537,26.073543829272573,23.54534840529589,19.528111533460365,17.329177996519565,19.675127958792793,23.50059526521107,24.61522347027079,21.593344282326292,15.436526180969336,8.555840208656676,1.3889338175491122,-5.454531264669242,-9.035019613749462,-9.01851180101053,-9.654187672401445,-13.398094118516449,-19.456106496193293,-28.285193163362248,-39.13863054996177,-44.60962489125882,-41.140285922184106,-39.331229998920065,-46.49117557393111,-52.4227890335864,-41.97399696142882,-14.509287858172176,13.81486980890684,28.572070803324454,31.217983965233714,30.67524688764782,30.418621103994916,29.43004469625416,28.22117210951653,27.704609684224113,27.11779613237388,25.588202201859488,25.672342595606878,29.666462709271066,33.24058777690778,30.532472703652864,22.45143416139188,16.377813528629613,13.639951261711182,8.427193141286,0.17116130977697572,-7.664288458366738,-13.420732755282987,-18.097721239398854,-23.746547425887947,-29.821969935165825,-34.431533026842004,-38.81928415016009,-44.2009801972072,-49.852581911084705,-56.420041026909175,-63.66900346685452,-63.491317836705065,-44.56591970881713,-11.12357077780035,16.916510028369718,29.99931260717286,35.46473029471027,37.861953715007694,36.293988704248925,33.94218568522732,34.59007348582315,36.867829102870175,38.16569854925383,38.36128163782946,37.18459496835908,35.03155464135682,32.45497918267982,28.407552674911496,22.318905457245293,13.792685557112653,4.178684040599062,-2.5171949583885067,-5.759703512918997,-9.750633915552012,-17.354867855066612,-25.692728579096933,-31.19940751362303,-35.9104728290112,-41.65454292447811,-48.078666130690245,-56.29677926069241,-66.34038019531887,-74.77412210513316,-71.31278566547,-46.658345065396375,-8.725533745499197,22.839080256327982,36.134478766951304,36.449886039561754,35.79013661209437,37.57916507556138,38.81021467013053,38.695147221056985,38.82648543619022,39.72604319431074,39.656847948184165,38.912226195070275,39.64376859364867,39.866414180115505,36.311518506351305,28.62737394952609,19.019657106096066,10.639996589230819,4.566116260183465,-2.0884659109387096,-10.906949207736735,-18.8929168671067,-25.560649556886418,-34.33245637771106,-44.43629855226592,-51.402369334429096,-56.52050593912191,-66.5112862624875,-82.155256395308,-91.41987580467718,-77.87509690843578,-39.711296324207524,2.876346747607217,28.6682044761249,36.20421352457055,36.99788129534465,40.03852072632373,45.340518967617754,48.06492517457744,46.454639075700484,43.05987513072225,39.93799050037069,38.282764213899355,40.01251800011775,41.66287317807597,37.24975027613048,30.27594851851518,26.18491062123184,21.48512470871392,13.936919348623885,6.39624806386135,-1.5135034972419643,-10.930981124693469,-20.66151180277544,-30.91164445054475,-41.02000678487919,-48.194572667631846,-53.10975784268378,-59.35965096389128,-67.58689774815558,-77.01041610841966,-89.48230711473968,-96.04113140813219,-77.17800205370607,-32.588679255729566,12.16357251637541,34.81002233017398,38.232274299613344,38.81424897945259,44.44306166963386,52.79871468780483,58.656194115337335,58.45399883310691,54.30158453779327,51.01157209609543,50.22034719196173,50.11938566677791,48.37970058366563,43.55249895830441,35.78967242473267,26.474806127771895,18.18688384679582,12.230404350362166,5.0313192609365185,-5.034571842117007,-13.951383508915466,-20.514818251730805,-28.18910163914932,-37.88159009798209,-48.876247815227146,-60.16901294170195,-68.11009696419934,-73.54412966311556,-83.93954049905877,-95.77205920050926,-88.28428316549474,-51.28588754367249,-4.404116973355014,26.551503105942267,37.28717283866486,38.92306933589252,39.83884542154767,42.066426791622526,44.710265564506024,46.7301817770595,46.69313151190434,45.10269402385194,44.501242561953724,46.66975583988337,49.11298434954357,47.44998270121202,40.386174472639496,30.453866829257944,21.487846243783636,13.959068349287692,4.328291756305206,-6.843175514192365,-14.67876324770837,-20.430534191191683,-27.920520162692796,-35.50317300412988,-41.49218862598603,-50.907905062180845,-61.67695169092061,54.0,108.0,57.0
19.71872166188416,30.176504835475313,31.081695697512025,30.601340220663957,30.233509820311525,29.03741034769522,28.0031300105776,27.610512679063334,26.741208051584252,25.25442816623746,26.491583732696228,31.053484338086715,33.246578761454266,28.464713421994652,20.203003686181066,15.486259416949142,12.568363480710278,6.205847392664416,-2.263136781631037,-9.543984422911546,-14.782594173237676,-19.579520056599964,-25.570444690879683,-31.313820818266407,-35.61534894954411,-40.2962900598064,-45.82005619271189,-51.587253832742704,-58.611571977641944,-64.96462052093212,-60.20481695333734,-35.62694362764982,-1.6261566144823691,22.08284796035971,31.955291463120783,36.52553909134416,37.77184971565878,35.46497622222119,33.77542967490368,35.243711898185936,37.37754591493687,38.32960535175493,38.18026612895824,36.60769199948996,34.35844943087049,31.48693005533479,26.86219921045009,20.12475193100638,10.955630169030805,1.805025872959321,-3.676158665745277,-6.620302162596699,-11.595159386074316,-19.92386009346834,-27.582266832810884,-32.4806630846152,-37.49051644009226,-43.410979668279865,-50.22371600668491,-59.06864428823695,-69.25474604092538,-75.58874448854107,-66.41770239429027,-36.23969707614008,1.8643704019250777,28.642944662809327,36.97853796560819,35.988881637183844,36.16313552244835,38.10447587856705,38.859128185025675,38.63585102795949,39.06130761295898,39.87607543933098,39.390119697579614,38.96278113424146,39.94090550026615,39.30473055369111,34.454393153155934,25.91105260686944,16.34895339768784,8.718103192637471,2.866686149684452,-4.492370470391425,-13.442831428880428,-20.8140646788815,-27.776303207423645,-37.31814587186221,-46.89310061998267,-52.789562729992774,-58.659961112334784,-70.73975779957455,-86.28477832089135,-90.36565128204876,-68.82617845702832,-26.66800223322476,12.532662803005161,32.301457362029026,36.585437748434686,37.46934505639388,41.54015739666189,46.575549984029664,47.979084251730164,45.51887496220507,42.097263941429546,39.209562989148665,38.42837722915664,40.83692101894684,41.07964526996318,35.12078625085707,28.810413695881707,25.136879580777563,19.48805441664785,11.6791814200949,4.2528650314820915,-4.116165017885192,-13.747444383813107,-23.52852327821477,-33.97554907583613,-43.464872087964565,-49.695268670848854,-54.65263511740191,-61.61932108729061,-70.10592337241746,-80.33507288740392,-92.85959955077853,-93.82757290028138,-66.1207344104606,-18.328096980398445,21.357152931956993,37.06901490326482,38.077606621077926,39.90742877755407,46.794333292807714,54.98025281171475,59.246904585671,57.43336358022902,53.103137797672844,50.567149979485855,50.23154096717051,49.8734281240278,47.32819237270141,41.565780891827835,33.171485726074174,23.838703037417805,16.305721983588274,10.481560365430147,2.2953776888693076,-7.913548888238556,-15.964690006823652,-22.486524641029927,-30.836700488393085,-40.9232609012849,-52.24008384575474,-62.951001019426585,-69.63998169047362,-75.7957506984452,-87.93545782904772,-96.56641371478047,-80.2658754173123,-37.395610057828684,6.860665919038989,31.33565926547979,38.183084304187425,39.07618332030008,40.36928255324569,42.83169602234345,45.42086486995262,46.967242205634804,46.30215805268266,44.697782958835056,44.860174834296224,47.56001127482578,49.19253491948508,45.91456353306175,37.62831456543532,27.643248082504915,19.283575635384324,11.534090306333654,1.0193913762932652,-9.55203242083812,-16.335150503790732,-22.362268473267758,-30.301889608257735,-37.24266773101856,-43.683753848457826,-54.28241761275942,-63.845060912453555,-68.5421377227594,-77.53572215440985,-96.45799095691709,-107.03304327879576,-81.92835458808487,-26.11631122233449,22.628226068125876,40.98515214240722,40.67211056345279,41.07549112005305,47.30361053694459,54.11193183685684,55.612498458056024,51.35028551224221,46.66542629817232,46.68174862941108,51.99279832871947,58.86642834502072,60.29842689988395,51.57381157809685,38.49123513748945,29.829559825303736,25.227553780347034,18.42977355448431,8.714366547823616,-1.1370444205185013,-12.784228323013448,-26.13175947817798,-36.343740668135176,-41.1489784284304,-44.9605978264763,-52.77446127685568,-63.36464691566967,-72.69434485513388,-80.37603068518222,-91.3720476285254,-104.05502130598383,-96.93530989415353,-54.58004275335464,1.4402901541750834,36.79001138454858,43.79031388678291,39.640796078939985,40.01988234911598,45.94699123006578,50.02089682407291,47.93873081892257,43.55780481691808,43.62547490173557,49.50925113976997,55.121777755769074,53.861717893181094,47.38929893892053,40.94732472564934,33.84499481234013,24.772368431348905,15.37258023776783,5.455024555849804,-5.2830718834169845,-14.71496856703321,-21.4254639574838,-27.193019091113747,54.0,108.0,57.0
-59.61691680204617,-25.120408491841403,11.42120151526052,32.78004913869037,37.04132648265842,35.70866520574947,36.70411516963803,38.50058812383023,38.81811064340761,38.644392226028856,39.34537504698425,39.888095732415685,39.124647326793614,39.1732282579496,40.094325523755835,38.3687274073736,32.27496324437779,23.105539323206155,13.861390174179999,6.974066254849847,1.014604518174828,-7.062518729749473,-15.80457180537993,-22.68299030799219,-30.257838991621398,-40.31993027766883,-48.97788292743741,-54.1536180206141,-61.38102698741115,-75.3529665827725,-89.45768527063456,-87.03525714426665,-57.90446008453357,-13.934099839093259,20.408616622426944,34.59342328127362,36.726256965132684,38.27399743025889,43.136177831264725,47.47187669933954,47.54624325590583,44.52063004010069,41.177307471995036,38.64767507625664,38.90150802769552,41.47706299701508,39.88340707876425,32.99349818205719,27.636675029790425,23.874215097726616,17.287572893263192,9.496191396172197,2.015266839325215,-6.838725126096232,-16.552919109049984,-26.47425229680857,-36.96853180587288,-45.59992399401397,-51.07770942220103,-56.40051525358198,-64.0001007662065,-72.74128588493167,-83.97560805146202,-95.31872485927798,-89.01291877206091,-53.23547712185579,-4.843480415161071,28.353276178535147,38.06508929953631,38.08937652596585,41.471386108085646,49.26141589038446,56.81614480126933,59.28290613147942,56.20008558983072,52.08501334810166,50.324590109083324,50.23826260071632,49.437878452050825,45.995788857625925,39.3551169244828,30.462305650102174,21.371758232670103,14.608143271276974,8.494040317260046,-0.643812125680274,-10.567468573023165,-17.82689366089951,-24.64958050533182,-33.621315351125396,-44.076627137442124,-55.5770620189583,-65.34028272199708,-71.08391249471804,-78.67431822757564,-91.74999327597475,-95.12534212194235,-69.81365664280833,-23.4304271139848,16.285876724065147,34.59239865800485,38.633015906674004,39.298167196383176,41.00802120828185,43.603956591663405,46.05175471310215,46.99648487429751,45.82376886807125,44.45105407244401,45.46813415261064,48.36110937429252,48.83368043960286,43.93730117982996,34.72628653597977,25.00132695930344,17.158142586615547,8.819221973193036,-2.304919455179408,-11.878978883350863,-17.936036522777734,-24.506039966998223,-32.57195148104992,-38.884401910337154,-46.32713259530748,-57.558406226870666,-65.49269958441391,-70.14852226173169,-82.27124184473907,-101.76429340892025,-104.124267412581,-67.56735325707304,-9.58945360131562,31.07643901021724,41.785953769218715,40.18712401277203,42.40749457285376,49.526133906126915,55.24726917715703,54.8095157919137,49.75063556097584,46.06546214767756,47.76618810418019,54.07781395133997,60.184402835088044,58.78132498238422,47.76394580854836,35.33809369305848,28.351053292984314,23.6967008367844,15.74948429525642,5.884202882579356,-4.212464208790041,-16.62590371451441,-29.63564162809882,-38.19574178838371,-42.05943706574734,-46.72970557469654,-55.74221165220012,-66.31597012338203,-74.94018796982417,-82.96485350949273,-95.47133115890813,-105.24097853639509,-88.09289389359596,-38.07911838220906,14.790980097454895,41.217131110797965,42.80748734397862,38.9642276788343,41.43626983584001,47.646682524450995,50.027864996359135,46.581466280096095,42.908536487928316,44.879750276530686,51.53780270907647,55.580424206050104,52.241558322904766,45.43274504606964,39.09794707264542,31.368942252282242,22.038101834268506,12.62582951811048,2.3663661448943727,-8.24414915075049,-16.92995015177275,-23.01847508988182,-29.240374192279145,-38.4858185628099,-49.02896202619185,-56.324824722091705,-59.992378858047125,-67.21856425441031,-84.3235113924226,-96.86251563879654,-77.20873366178884,-27.097181934368987,19.720076976572827,41.074701074707804,43.0428350963495,39.850662755051346,38.17387824200633,38.49232071714103,38.306317573745744,35.09923885179005,30.695201217662383,29.904855815832033,34.90496933404509,41.560957944766194,41.395862346874836,34.11811822449583,28.830849520127465,27.16978494351157,21.655511025459187,10.043548530094665,-2.0678733608463378,-11.642105330309636,-19.745935134050136,-26.502882808889616,-33.788765392112865,-43.9511544749658,-52.81581259384427,-56.201183213599734,-59.74666262012187,-71.37827433017009,-85.43228842572077,-79.74881675521269,-40.968008935998554,9.089916720256014,37.32825088199361,40.216942430956436,36.375350740184516,37.03954051446563,41.55468926626527,45.359061126226734,44.36778168215002,38.935758391270916,35.14332188758041,36.251765631589436,38.8929298980491,38.51816195784211,33.95906128847518,28.641179711392578,25.078595906983544,18.483536885433452,5.534994243506072,-6.729372463156571,-10.749164846814834,-11.000828291735779,-16.576118205920473,54.0,108.0,57.0
-87.76789411997657,-96.26827323308771,-81.50703636699777,-39.21753061391131,7.219293527824859,33.21875580523458,38.274431551706435,38.47725397478158,43.43280514877337,51.71207666376714,58.196076556380326,58.814376894540885,54.89352508614491,51.29457737952652,50.23066676994301,50.181916351082045,48.7725427022493,44.38500579005775,36.95250584791574,27.725083252004385,19.1339778949767,12.988050084929737,6.197706027217538,-3.658219206503654,-12.946374654118788,-19.652876723353668,-27.025848720760344,-36.514248461172706,-47.340691882424956,-58.77512128767137,-67.31980687653628,-72.68468167108452,-82.16771501948625,-94.79988067885556,-91.07588148213772,-57.44563340462798,-10.133225142160512,23.753442873696937,36.649642308962505,38.85336985504186,39.6375184701823,41.72162925746954,44.36680598652296,46.55468316608921,46.82839827366639,45.32213049109822,44.42608104875474,46.26473278781619,48.946861974399816,47.99846806244394,41.57911364867589,31.790354060027656,22.55367026879616,14.999850015097778,5.80341159751052,-5.474589041695755,-13.858228653908986,-19.608105077325387,-26.820783808266143,-34.63326163568863,-40.61161506871048,-49.392071655723925,-60.490596558409486,-66.77395252601887,-72.45090844011472,-87.82350318516848,-105.63984241271392,-97.65155586555305,-51.25023292931098,5.274967172338668,36.79044299178037,41.598189024334665,40.13564100042171,44.193219826326924,51.61935367406009,55.82225336893893,53.5861564581565,48.28333788426353,45.949590411825895,49.25921564498035,56.16921208352064,60.84412525304736,56.37139499038901,43.851967535939984,32.71900779458563,27.08785970922863,21.823486256707117,12.912611407247612,3.074715372143252,-7.517566295036305,-20.54793223979862,-32.7266941190155,-39.61196728796436,-43.051192845641125,-48.91558525739721,-58.8416679026725,-69.07061620068629,-77.09380164279155,-86.01049817501325,-99.50420708180293,-104.04532028060765,-76.20949396251424,-21.35892366464285,25.689737491666996,43.44864642613342,41.441509375451695,38.92037962452311,43.1967853941627,48.98307232597718,49.4898184739685,45.20548545854077,42.78003372906666,46.57564000078002,53.33094550194835,55.348101163707796,50.33478449832876,43.57257488017815,37.107705939615215,28.74417238214691,19.32362908452384,9.793725746642805,-0.7652563872317552,-11.03402571505865,-18.900690203201112,-24.618917530147268,-31.57705611806306,-41.59598078355682,-51.62731889167332,-57.574198184417725,-61.25856815419575,-71.2473359141064,-89.71878743788623,-95.29477385311242,-64.63399705052332,-11.688704056246234,28.675562487872043,42.93406439838654,42.19022656435262,39.11027997027074,38.131933712771996,38.64237672618512,37.71317736191042,33.74598482475333,29.90711550681302,30.79546575829304,37.02952015464461,42.49745924528,39.67494556747702,32.040504961425434,28.257663457480415,26.27319036902729,18.75221696701403,6.331129154956166,-5.063436323336123,-14.10388907434978,-21.832505515771185,-28.377275695176564,-36.478089698859115,-46.95635299113326,-54.30822978813463,-56.75418762467171,-62.15968328037409,-75.95152910032752,-86.9200175364252,-71.67383771247721,-25.963318763892644,20.37401180694345,40.05519982375634,39.0130397785677,35.97931365113931,38.13493416553894,42.93384754455421,45.686242403268004,43.04368386670648,37.39149779906758,35.01190016893109,37.093748641914516,39.23013173949288,37.5593523908205,32.277930708207904,27.519356847497477,23.7878387329564,15.277944380158745,1.4292666799530815,-8.782359480929568,-10.754070378207974,-11.808914560566645,-19.594667687590864,-32.19402703985068,-41.99563282243918,-47.51751433711551,-53.72204830249496,-60.622965789072346,-67.50619921675292,-76.95768527548621,-82.13142565883291,-65.23881267010303,-23.170705755771753,18.91295865110068,37.772636505098454,38.411670835626026,36.28057016743913,36.23025122462337,36.56242386723847,36.46089319498055,35.75744484822769,35.43965055749187,36.19259351962958,36.61817607876943,36.73710687996755,36.810030459716074,34.22301630367839,28.454399471674225,22.61676102813057,16.569314804035585,7.731598458211225,-1.459644655087606,-7.110971898123108,-9.936220055098024,-12.951499104478987,-18.926391874690616,-28.794720329177515,-39.43781797560463,-46.98588031525761,-52.01268466015709,-58.8542102082208,-70.54895820564424,-81.23889012028863,-72.9670844258626,-35.48252091550113,11.41770827773842,38.781452089356065,41.25451002810452,35.407519229934124,35.1929170294006,40.03410933061484,42.03211151063252,36.293650403437326,28.262930396651143,27.173061606110185,32.840688287655034,37.26826118361837,36.05215035987292,32.31046567000599,27.912205760484124,21.930828488877072,16.22379349077509,11.465261024017137,5.818382816032966,-0.5729562784373079,54.0,108.0,57.0
-62.91474968658258,-67.94830930543334,-75.6915742332003,-93.76107982443062,-107.25452999581614,-87.63878542950926,-34.04099620489259,17.778296394216348,40.11596575252037,40.97623901814541,40.64429181542223,46.284285046670306,53.41976639139587,55.810009326715814,52.087891478775624,47.090577453112736,46.33697715863895,51.07570599311117,58.0912821504165,60.6811422677008,53.21689614399276,40.103493582019,30.632643578286164,25.845417612345457,19.5785658587515,10.033887287988511,0.21896873043842838,-11.07012158962364,-24.412285393507105,-35.32213250689347,-40.709335660977196,-44.28000064646064,-51.48357452402838,-61.95459489941718,-71.60069832530525,-79.29630429651459,-89.57359113254441,-102.89741370941869,-99.91777636272333,-61.8307341093704,-5.410125492072351,33.90507927896631,43.972550190161726,40.13124575787266,39.53353196259611,45.09007482231989,49.82292200621421,48.50384668333186,44.004266726314846,43.22604360591206,48.55524444679284,54.688192656501435,54.46148673461755,48.317371596923614,41.77533175488612,34.922541338022334,26.03380374984412,16.62224137275552,6.84981707444273,-3.8750840080400373,-13.608899822206638,-20.664183217185702,-26.335490038338047,-34.20642368331063,-44.71954087162268,-53.838945472358496,-58.58068236733344,-63.077821568383136,-76.17860697121151,-94.07942973116603,-90.39315398485155,-50.03992161516824,2.485714115088013,35.26730340791313,43.55234815809094,41.20604997103204,38.57457765964125,38.2295796677962,38.66642494856594,36.82710708681066,32.39263469049532,29.54288001970193,32.179637242586736,39.11328018398103,42.649052244166974,37.50447617851833,30.382213206697887,27.873989654601747,24.84595815625736,15.396570602542676,2.751987646598509,-7.848627987272618,-16.472792507688656,-23.790736941127296,-30.393409656574043,-39.42532458836223,-49.67219034993846,-55.30801006275716,-57.569727186820465,-65.39302034496818,-80.40048626515693,-86.08453695046198,-60.774671108729436,-10.930228778082453,29.157968983861792,40.974230181248345,37.747842191508326,36.0789794182788,39.45864706361427,44.138252760426916,45.519706184860354,41.43328240310966,36.16448811206426,35.295669752499094,37.93135628812303,39.223476347791255,36.26401226383346,30.666617760180316,26.54322606138065,22.0564801571979,11.542511782710116,-2.3361928025166905,-10.048894512800102,-10.684605502006837,-13.25389017390909,-23.059808823312434,-35.5921676838177,-43.81941421375883,-49.10125198986175,-55.77153858769986,-62.49035446208612,-69.97126972518983,-79.61034195741772,-80.21159687211843,-54.983702017528394,-9.558611525925304,27.050731192675965,39.06754363997513,37.61700873393295,36.11199212593196,36.34896094565472,36.59017794946546,36.309552130672024,35.55092318759691,35.59040921564287,36.4028082880134,36.6255998048525,36.83896720165909,36.460470003209096,32.76321646615603,26.66878667722756,21.034315228736872,14.318441080814347,4.880465614712146,-3.513726230846529,-8.091494263978253,-10.655666311244033,-14.270729831061038,-21.437852120626392,-32.00638341918196,-42.01499978208696,-48.5436542231199,-53.58821313426205,-61.75006688677668,-74.35721518023676,-81.69292209479038,-64.8443161892113,-21.422139512688446,22.15328761078915,41.54750401958355,39.54683991329419,34.541108458247614,36.37460180861543,41.26702663773949,41.138549552520914,33.73513779361255,27.00516667563511,28.412938424654826,34.604695259779774,37.45371635555032,35.03963192836292,31.163822463000386,26.31966647566111,20.144938805270353,14.824947041648977,9.983470056802917,3.9675537148700095,-2.2942230115955464,-7.239639632817678,-11.301754383689012,-17.630540444328716,-29.130339480672443,-42.99601485647974,-50.654851138829294,-50.9806887538528,-52.06204704081933,-58.85133558355631,-71.65902741995384,-84.25989002058895,-79.67416968858709,-46.299840619106526,0.6529992250736996,33.44511843748308,43.68651681719421,41.57795952095243,39.09507489641945,41.45118561960742,44.15434297116838,41.10464220610364,33.949226813278464,30.565885510227478,34.751355330373976,41.29019561132626,43.0895001141511,37.94341582282913,29.554788129508086,23.52711605625742,19.344160403787164,12.915352496483155,5.48504085269388,-0.08223442099130172,-5.292604671035645,-12.123467197298975,-20.661735829697918,-29.091488444273814,-34.421349324840484,-37.33330484405216,-42.13799988025687,-49.87704578498255,-55.454513844868174,-59.36096397435704,-70.67522088419794,-84.42714439894833,-74.55439482737154,-29.60338033161441,22.501008809403686,49.13752319874089,50.02576396787275,44.773129393981996,45.41794423256924,49.418250849708414,49.527990344876905,43.2641933261826,36.593751766821754,35.192192068733156,37.472763424494175,38.67345286682201,36.961426989734726,32.55631301460929,27.330937150090122,54.0,108.0,57.0
-28.262313553066022,-37.0902586023185,-47.72214288707771,-55.63300432610417,-59.51995265613087,-65.69465111279132,-81.71023202063468,-96.5649013253846,-82.09947289061867,-34.38924872520602,14.791703391788857,39.683106847643344,43.3304460162828,40.25097260760249,38.253281913870154,38.40544858564529,38.48080677988636,35.688308572404445,31.17437407998453,29.67044779133059,33.975423598485946,40.90335571397519,41.97113712009043,35.16973293852547,29.214132576514242,27.446567663637396,22.804938841577776,11.76152683023166,-0.6049213621848011,-10.473496004170043,-18.74006396740004,-25.655137323315106,-32.65000177163934,-42.51936969091113,-51.944704492155005,-55.959298452456515,-58.90157252605158,-69.36093147699968,-84.13478372562163,-82.44644161718789,-47.595709665661225,3.152875697695813,35.32626739079619,40.64003153305629,36.71788636700927,36.64315365639681,40.89076839098848,45.05893266163947,44.84214886192555,39.71318256970556,35.35879684337376,35.89960097927835,38.63975591492225,38.83198361043542,34.721035004483475,29.22962419622162,25.57329101228225,19.754941051501703,7.462282527664001,-5.512472230984904,-10.64537339197363,-10.81085662951013,-15.377299230544141,-26.776036145542506,-38.55587044788705,-45.37338516957321,-50.86287424611643,-57.79824283828047,-64.40037710483615,-72.71815642858544,-81.5731571455712,-75.96316315940072,-42.846335051379945,3.2040909803948985,32.918568493339954,39.24210804988732,36.91784520203162,36.10017962909362,36.45636790639198,36.57531599799305,36.10351605938195,35.423196119844356,35.82003205029397,36.54127155818795,36.64240087124551,36.91535659923265,35.80069007201423,31.084304549507994,24.963274300873383,19.365447451385887,11.787796328660226,2.1295869559102525,-5.212857407633625,-8.899556563215134,-11.46520567856406,-15.902994822377742,-24.265570801329588,-35.16305516947753,-44.263736655168316,-49.958865610262286,-55.44219507620339,-65.09172249433301,-77.81563565548458,-80.01216944180749,-54.26412077837708,-7.375437399724571,30.659676772072505,42.414555375439555,37.667335497338364,34.344958213954676,37.83655537141581,42.04217211792164,39.555236135235646,31.234739484625266,26.515980295105987,30.087000666583883,36.03797806844546,37.150019984604356,33.94441981188845,29.94200074837024,24.585233847743797,18.458836801238075,13.475982227260022,8.378301538136142,2.095343452404036,-3.894020153113887,-8.405041651143902,-12.72384442093371,-20.385535565791322,-33.2415848673158,-46.16068086316423,-51.20526510831546,-50.87043030542179,-53.366030254134664,-62.011941240694725,-75.903740053064,-85.56208452137406,-72.88906130733943,-32.811335940225334,12.475364036738219,38.44930702619371,43.752929972738904,40.48614138600255,39.31794508585762,42.545833106610125,43.97620075035135,39.153969426719684,32.24702813534859,31.08163285340283,36.768391112079755,42.50466343044913,42.262544656611006,35.56419609182226,27.434172714714524,22.339497342926972,17.792875975292155,10.685390537459012,3.674605908275289,-1.4955034693080338,-7.070211014785076,-14.447488949381595,-23.251968994708715,-31.029522749825333,-35.341483297420076,-38.350589155891875,-44.22731217042218,-51.934909819644226,-56.38703590669771,-61.59003736441734,-75.32405063049976,-85.20022968128616,-64.599186894664,-13.438514999739992,33.50644410272502,51.269470993019894,48.301367328312395,44.249209985968136,46.55872428629691,50.11696719797615,48.24120361852438,41.010593398934,35.5850628560326,35.6901290512217,38.09048032353909,38.475145119271005,35.94105611712551,30.97136332879313,26.12869504621401,22.50163410974287,16.44482353611075,6.837493506305165,-3.149733332467585,-9.583667966517089,-13.714067549860417,-21.77204015228883,-32.793938606752526,-40.43709877383893,-44.88012843773628,-49.727916457920784,-56.29410658445035,-63.59435706297902,-72.10835983804029,-83.38875304426267,-90.15520253213393,-72.89335205825053,-25.857299449307416,22.8830886844599,44.468196442353864,44.10032896064902,42.44451611176212,45.599573132358046,48.061107202668325,46.773344326331426,41.60685324562463,33.44901316720743,28.33526555058162,30.41314970875889,35.153628625888764,37.00150821015944,34.41830355535681,31.916038600591655,32.4722990424152,26.538998547629713,11.12416377850038,-1.5305044566879937,-5.7559795219694045,-8.192664162607251,-14.818724825608726,-25.12282630596531,-36.10000987506894,-45.70360735308782,-52.80580555441633,-58.22968839014572,-67.64174124259709,-81.5904819061307,-84.1242080530043,-57.94121136053081,-10.18033632193349,31.25931982197726,49.505853961661586,50.335575738790325,46.13722893895931,43.28713270213154,41.14626584690896,37.07589652546109,31.27350163017993,27.572563856813915,29.515786093280852,34.64430653897054,36.55062106338522,54.0,108.0,57.0
-18.13733952054477,-30.520279483486245,-41.02095259686792,-46.832294941091014,-52.7926405390731,-59.749716586826665,-66.46938372244317,-75.6270294118856,-82.33264188232472,-69.1982245459936,-29.503784975488177,14.412682313635678,36.66861332498133,38.75137027073753,36.42802110704495,36.179034379168,36.53677856691141,36.51020537784234,35.8663944740214,35.40674092850882,36.07846637964131,36.60663070319155,36.69739020004014,36.88533627286342,34.79803091187988,29.290999999352234,23.34434774643104,17.51006078624482,9.040863279125762,-0.396502861717808,-6.579328492181024,-9.615523119353254,-12.433192127202568,-17.887974939715924,-27.330771678487817,-38.14692633262976,-46.19243349105568,-51.347063781876386,-57.6760975203414,-68.78148907940948,-80.4503103775599,-75.81065225840618,-41.72795540438971,5.821725197766645,36.76589708818054,41.850991596610505,36.013287883986735,34.795272252480665,39.366863480908286,42.197883721982926,37.413113082944,29.07546105484831,26.8015091731112,31.96892628034965,37.002293760909225,36.46219761008582,32.82826281925769,28.59004534583608,22.771496431242472,16.900629110335334,12.114164068116445,6.649732224693478,0.2535137874517011,-5.353700298712383,-9.536486123216175,-14.433791313661006,-23.625775603659164,-37.39338255767361,-48.575157732368,-51.264764224499594,-51.046460219461224,-55.19893681218662,-65.6659171389369,-79.87782488170703,-84.91403428773397,-63.593138420963164,-18.872988729400255,22.491612734927052,41.64674529137248,43.1206687259944,39.62537299879329,39.976559487580715,43.473658719510475,43.20973954912333,36.99934758116915,31.076728199048762,32.23233604168868,38.77623231046969,43.18316856500902,40.8547053655861,33.06672732926931,25.62730828788144,21.202480744425053,15.972287329025553,8.475950015324862,2.054142453615246,-2.9570480786253115,-9.006326704463612,-16.906823527329916,-25.761314309710304,-32.63884714761327,-36.13683704460146,-39.64539167182667,-46.51599628082133,-53.64053894797872,-57.33227093765185,-64.69252215243769,-79.785682509562,-83.22611364200397,-51.80325857786869,2.2802517262898223,41.81272169263727,51.60493565376126,46.588106557919204,44.34666016507307,47.80761108285385,50.3159810577439,46.445408588193935,38.941725947109695,35.089857838626315,36.38654052420509,38.50711001604239,38.032614308991064,34.69761556017491,29.402882118905996,25.07650556073355,21.152741669881124,13.952261189069956,3.790628394614112,-5.474709125268987,-10.746071811067665,-15.452046866914655,-24.968765683750114,-35.49604151848918,-41.881381280934306,-46.117517814072116,-51.47428931308149,-58.367355132200615,-65.82851476377569,-75.12497285862155,-86.53712506396046,-88.49128514203248,-61.67920853412156,-10.21988521387246,32.3699203233931,45.63621982535667,43.10796647850963,43.03588060172467,46.63147413072226,48.07795261448417,45.70052261711254,39.39036472089113,31.321473194827057,28.26147858665329,31.81928743426969,36.13603258112974,36.6435804970043,33.35845374962002,31.990906948869117,31.93501989417951,22.6520652522373,6.633697866472134,-3.4616974562571303,-6.259884152270517,-9.59138816775019,-17.55314204441152,-28.33978237365126,-39.07640229518429,-48.048763674446874,-54.376016922161845,-60.25497899974002,-71.60795882219779,-84.49215079399933,-79.79988878478521,-45.27404182787131,3.6552777807941066,38.99545894107535,50.94883383699372,49.19826168449815,45.1049799338627,42.72482901870156,40.241064434595785,35.45983410651413,29.77102932338108,27.517435808572944,30.95747675435929,35.73981237463634,36.093914744732906,32.103597370425724,26.415528197393712,19.80507952442194,11.75954325593751,2.7915130608687106,-5.697547287588943,-14.04268933791381,-23.098866590658155,-32.17354830358244,-40.12681546279588,-47.503821499756675,-54.71690234587873,-62.03763386376979,-72.59663135582127,-87.49497102777887,-96.1809443541141,-80.58747742984433,-37.76659460938018,10.727435492128489,40.155440025113506,47.6364793005831,46.76478140961904,46.376266113066826,47.36308376173654,50.19008374504846,53.42860987218947,51.66553454225058,45.12807969409629,41.944405978523214,44.68590296658992,46.47332577482143,43.02416206017482,37.53814936095635,31.31613396749649,21.53200409636841,8.727972128282335,-2.777905506077517,-11.810169899199352,-20.09646380442622,-29.55460620859947,-42.38547745583687,-56.35123697260828,-65.52837269223645,-69.91964622290166,-76.9110144885452,-90.66226241656283,-102.06540447517332,-90.11960949028844,-46.086194432298356,6.955329709765781,40.093171805559244,48.815743060178555,46.47602640488511,45.524443973254506,49.22865955858917,52.55510968770001,50.4606536672517,45.56182692236773,43.63621127147843,45.264814640546,46.22301499260644,43.839640442262045,54.0,108.0,57.0
-1.5141329966100494,-6.67294557290201,-10.715869093285521,-16.52095805069952,-27.31023954176561,-41.32790080084097,-50.17771586075239,-51.07950320050531,-51.63243068785624,-57.57342122791655,-69.71108421222635,-83.13681663114858,-81.91825278515006,-52.14651390176742,-5.287612668355247,30.467915514667876,43.32980069428242,42.100134039999695,39.15479078242088,40.9470883406871,44.04906652295122,41.881246223148594,34.86369632316361,30.563905979848588,33.87775233030516,40.5767145896558,43.262667275227855,38.95225450839415,30.622371226527427,24.130425612338612,19.97430390842673,13.918202955973376,6.387698894503906,0.5736037171378527,-4.524234180782997,-11.103173159545957,-19.464698663859544,-28.097027574355366,-33.92452984058117,-36.93178552542805,-41.27354541013166,-48.84262764302574,-54.95892218004275,-58.59109017506557,-68.63590240519984,-83.32595406313413,-78.0596819164304,-36.910693881062095,16.59146883190016,47.40983904492296,50.7029264062214,45.223332979342395,44.98307972444829,48.96649510772852,49.920508504991496,44.30743101986472,37.229637452950705,35.06679257579795,37.14136909829556,38.679865624103805,37.35347605532875,33.26424853543288,27.9463342466411,24.08714867343561,19.49295650936094,11.188966159201675,0.8195940945379001,-7.414255106159016,-11.835419203436453,-17.678398206808694,-28.2568153728372,-37.7874426120737,-43.14469526091599,-47.47042563870836,-53.36145292435736,-60.46702498728013,-68.21162854451342,-78.40527305252421,-88.98304775594607,-84.25110811575166,-48.15851758023505,4.566060707947064,39.13234748121245,45.471602618183425,42.46521120923248,43.97526560337634,47.43858446597746,47.77360866410644,44.29052529584189,36.97767965244126,29.655514824320917,28.80346157221936,33.26654049522887,36.77784558350432,35.91335346427132,32.50248931906492,32.282261171192296,30.50463327264734,18.118137885223998,2.7412880875291386,-4.715553204599164,-6.846552205440668,-11.420645123110049,-20.525396243783586,-31.543751499786822,-41.90119198155142,-50.15783281903325,-55.863769755016904,-62.80788270713256,-75.83098575048136,-85.88311631335019,-72.76886026597413,-31.305294489423993,16.2031058609167,44.63739402590683,51.25105566449018,47.92001951803462,44.2560157916976,42.15543353395725,39.11611874096765,33.74608335241942,28.567247331883276,27.990702222582573,32.52459243185933,36.41292409084526,35.26031410399566,30.552291954294564,24.621291212297447,17.639824467330786,9.194518355818724,0.26040619871442994,-8.066731676047052,-16.58441230856785,-25.784688590560553,-34.59846393396701,-42.266150976447534,-49.62797547562166,-56.735445998535056,-64.5818812925177,-76.63804395114727,-91.46122280958124,-94.78715034186614,-70.44591270897766,-23.018409737198308,21.82655996910776,44.07900951388424,47.636366712267886,46.491172147856595,46.52383415396108,47.96137556147052,51.29052969799572,53.637827835593434,49.96328035310779,43.5293329921869,42.3227916572809,45.65783094816021,45.960953152015165,41.46523816770332,35.925320814823756,28.94731902574873,17.966348702672384,5.115576626870602,-5.5741562519366346,-14.207824158035894,-22.596419534088284,-32.880353703030316,-46.57306962352816,-59.678112595161835,-67.04293832977399,-71.31054407901964,-80.29207478039146,-95.00617809242917,-101.937656270377,-80.22874240235409,-30.133285156306815,19.312067470056185,44.68322273652129,48.589814013893,45.72110841451193,46.224887617172044,50.55098608590694,52.54902655968005,49.04700365477599,44.53705632332764,43.889244101170725,45.80430325676418,45.894582251954915,42.58430105004685,37.4308204677667,32.333299099789286,25.404726465721293,14.468030193142058,2.682679281855111,-7.1675981324945806,-16.708053691873733,-26.950877145649905,-35.507985387228786,-43.14974318479681,-52.35661249699196,-60.77763252750127,-66.67960797931703,-77.00192957367408,-96.1779779815072,-108.77744103593322,-89.26308270286164,-36.56729791601361,15.097454111227059,39.70500208672079,44.89961239497505,47.12001637570749,51.05074424741124,53.76597461720621,53.43613998917667,50.51419578528552,48.277657295624,49.05616277585449,50.829048975258516,50.72146992459956,47.35524457211349,42.515329749637736,38.261357051550156,31.805208325913274,19.821635067529783,6.525951918222722,-1.808701723227531,-8.054720357022607,-17.985530428180862,-29.622646819411568,-38.30165226476017,-45.148821298829546,-53.572664307848925,-62.44724866111833,-70.3008848571119,-81.2008830060074,-97.3188923769965,-106.45538073754797,-87.24625358847487,-37.66064022373287,13.659628438603036,39.59560489457463,41.65829123772186,39.440929738485316,42.498451844502156,47.81871159865153,52.03669404648352,53.169393981117,51.065978223364276,48.92823749943199,49.60561441374859,51.75041596821741,54.0,108.0,57.0
26.66103666928854,23.039279085588138,17.48645592421142,8.235812746423708,-1.9610855214868699,-8.973964314634793,-13.054092011518767,-20.387235773509737,-31.424142300792937,-39.680764171452196,-44.33207091819009,-48.977128095966876,-55.35245567458307,-62.59568178354938,-70.81616947513182,-81.8267300440134,-90.18363815201985,-77.1471525397019,-33.07850655193556,17.62791003036207,43.309987102701015,44.592636798609426,42.32911320599755,45.08331370004693,47.9412570469282,47.16015340687581,42.5314398817321,34.532276035518606,28.5967512245158,29.827165416443968,34.60566820832291,37.02703783131486,34.919629295755286,32.005664249813286,32.497423195503295,28.029419763638565,13.316768621882604,-0.3737462967582791,-5.493134045151574,-7.686451756415442,-13.661510025964693,-23.651322651640516,-34.68484755881942,-44.54910557423555,-52.022692827720526,-57.42899247156592,-65.97711223358705,-79.90393163413971,-85.23196163743317,-63.15220053695755,-16.814609949705925,26.975629416074895,48.36038174154824,50.75062516724661,46.67132875310624,43.566069572591616,41.49859796342719,37.76676196954426,32.03217403175598,27.77493037715157,28.94332417041829,34.025170555799505,36.61522411412338,34.129438304375334,28.91749577578274,22.74254814032553,15.340632065728617,6.5851749889489275,-2.2005283885934266,-10.456335748238127,-19.196125118871894,-28.437245396658565,-36.91025726204704,-44.3920746208538,-51.72530204697512,-58.78940820826391,-67.50578834719792,-81.01253936398257,-94.4953891376629,-90.92683592421605,-58.21242745669151,-8.53023858969944,30.850010452032155,46.37456074072228,47.32177126661016,46.35258412476471,46.774204832152826,48.74424014060108,52.338040114887214,53.27213698806527,47.98924812569162,42.44011750864898,43.13866915710194,46.321963302051856,45.00064090601059,39.86341814621091,34.209831728692286,26.203780388107532,14.22660202760736,1.7237105132862904,-8.192768353876394,-16.58446772934928,-25.24949204764818,-36.53845899191716,-50.72474335327115,-62.462659499517194,-68.25552827066885,-73.14581660765741,-84.25143939657832,-98.77786276212123,-99.26481700195899,-67.73047250580306,-14.292843605248692,29.455126040221312,47.40784732811664,47.83954318022907,45.314338732585774,47.29456754283576,51.655409821116066,52.02041058052234,47.54883916280418,43.88426995547545,44.37969218957514,46.16463141533549,45.2625523778057,41.16886741474197,35.9435347343046,30.695118129266305,22.606622261246812,10.943388768886376,-0.3556486918034555,-9.835038684957853,-19.672247355906986,-29.677167581403122,-37.64906850831542,-45.653314852406496,-55.06413958961223,-62.60176268229166,-68.76290039457146,-81.88247818008561,-101.68108459223807,-107.2649818166719,-76.38354726356751,-19.752375391999927,25.17726811112018,42.35568910689441,45.375237190999215,48.176940537073506,52.08493011685656,54.01217285114389,52.76258218404802,49.6150145180173,48.21849170064847,49.607402445115945,51.09523821353562,50.07223602324098,45.958796513999204,41.24981184869925,36.84528773697697,28.89704464748622,15.745781713680175,3.5314959786716402,-3.4885680827540506,-10.47006301237558,-21.429455578757203,-32.51872106461129,-40.27482185475626,-47.37128783984331,-56.234371238176536,-64.74184770932827,-72.87801995950163,-85.52372902152139,-101.63219764388145,-104.55370415884964,-75.19982395489738,-21.417611856874856,24.294389657547907,41.858762922860834,40.67405949179596,39.81219178796661,43.99760981691789,49.248965248275354,52.749041642647384,52.803122464517344,50.273595660293566,48.798605168474744,50.25450548104964,52.00670004687114,50.236635437812396,45.2413619774418,38.13046904644286,29.156775550510602,18.81147381243327,7.974408902185065,-2.587895386707914,-13.180233975541704,-22.908104939186767,-30.891426652985622,-39.261080574756214,-49.28493885322432,-58.93145811314201,-68.45250515821624,-82.55018396474804,-101.77721985243633,-114.12212758980648,-98.88240609610332,-51.67406342062233,0.7633901823900645,30.80222530315867,38.392497119827475,39.47055372193259,43.4815802525215,50.00399486960696,54.79437012354146,53.51698145861646,48.42406834061858,46.98167236748413,50.689031723042156,55.033468653980194,56.205719298857886,51.58452282940735,42.24075798825474,33.46038145352711,27.924248298210827,21.525589081770267,10.125876415597343,-3.0799497527398296,-13.173327944586983,-19.84360684061321,-25.554896834979104,-32.69823757251816,-40.88068134367903,-47.945404020051726,-57.62518929096508,-71.00863151489098,-83.17739666095055,-97.18508713916349,-115.72198339701833,-119.48597767449957,-83.78645491925441,-21.215512449594403,27.255651371765282,43.148989474049145,41.771183287293134,45.09161363470183,55.41444716738608,61.998085158894725,61.39279816364745,57.61980311396273,55.10604224378945,54.0,108.0,57.0
36.35579048961887,32.78001276954476,27.21918310978696,20.75951045671007,12.914803957511122,3.9796097281988176,-4.602514752236302,-12.895666406113236,-21.860534354374142,-31.017318097203656,-39.127548600864635,-46.52124206451856,-53.78168767398028,-60.96486589851087,-70.88119402105991,-85.48932740730656,-96.07817116020638,-84.44849155543189,-44.443791364216516,4.988940573040062,37.70347676236735,47.44293164719172,46.92939072120012,46.34265358097366,47.14419665500021,49.70253664755531,53.1676713836804,52.30128177996003,45.989079896480455,41.95828156314469,44.188091988045116,46.54112454972652,43.70097723357701,38.27026287316916,32.29356523933006,23.08468730361664,10.447187268559054,-1.414716489431207,-10.68789988337385,-18.976479087312132,-28.130440990808665,-40.49005712746268,-54.65846396369156,-64.68262946829216,-69.37295689391775,-75.57197316953481,-88.60328034385796,-101.40689063250989,-93.69846154638287,-53.2292830993005,0.6013069179183649,37.26336175876139,48.63943206046476,46.89761422758928,45.35031067455881,48.597234802836134,52.38089572389398,51.03538415718361,46.13933751140668,43.627695849666026,44.984078250100936,46.27150322175577,44.34710680049344,39.662294118876964,34.49303111139086,28.80186791520034,19.46669492060479,7.474517346396524,-3.2111925126326195,-12.554053720716709,-22.675697117277554,-32.187216567046875,-39.800226579077325,-48.31852261289071,-57.5892244720685,-64.23455118696157,-71.48658347029145,-87.48425460855947,-106.02667390299297,-102.45826902993956,-61.12565853556749,-4.107820481402961,32.71410027010292,43.846277146487786,45.93494708905411,49.347204702970544,52.93634071945565,53.97949323162922,51.90758209236744,48.884150854267524,48.4217825519695,50.16198012585874,51.140619445602816,49.13776140387903,44.52402574825569,40.05133431312965,35.12086884581546,25.484155902932997,11.762059246080604,1.0545075488851035,-5.1791822009567445,-13.284702570023079,-24.878606013850813,-35.081954192847235,-42.197989002418936,-49.78429685018959,-58.848141986192395,-66.95856666034625,-75.86929428944408,-90.25746353966264,-104.88302236823009,-99.75195506533451,-60.914084289182185,-5.955955855385719,32.35607610843756,42.48721390465021,39.85009649579993,40.6563893384716,45.56623809629833,50.53081786133747,53.156736630587716,52.196534250922944,49.58316055609553,48.9477422549372,50.940930118603085,51.92732545844699,49.043264824678964,43.39442314094504,35.71079592527286,26.283186554909562,15.674403346719064,4.902036858782599,-5.646047183445406,-16.160036795573944,-25.35107860942459,-33.144690671088476,-42.03613360400866,-52.2119237178748,-61.52251503160403,-71.86058054389564,-87.82847735242957,-106.93944215286231,-113.33689559067088,-87.83146155295998,-35.46476693273646,12.30883940485564,34.66096464339146,38.71517079941887,40.22396554908065,45.25311778675149,51.80199943675745,55.130510282776385,52.10852001865855,47.38349891598858,47.6835851293995,52.08440607857944,55.83343638063771,55.528154360307425,49.17420357025912,39.4093742152812,31.592231759641987,26.45040665712336,18.74239113211003,6.223795569751782,-6.428578395328104,-15.355409996498137,-21.47730366064117,-27.395667852631227,-35.09832868598543,-42.994461724794824,-50.23292060614005,-61.33482961314287,-74.73926272539344,-86.67539740369438,-102.43464101556691,-119.71495770496121,-113.62367200116539,-66.73991790654226,-4.187045365503787,34.99373512938373,43.37968805267519,41.673275663971495,47.80536926851813,58.078152805367225,62.44530328207531,60.41149150655186,56.59122204623268,55.109414055381144,57.89254550302748,62.26472402511362,62.659239717470314,55.68712201651538,44.92245364727743,35.90260007519521,28.74301535047083,21.744006552585475,13.94728291994861,4.951837178544089,-4.558211764273507,-12.882232317652466,-19.660281292010897,-27.861648659355392,-38.85760970485037,-50.07034691916653,-60.47744559130157,-70.15659967099172,-76.60028991585867,-83.01166568712979,-97.51980479551929,-111.83004116650118,-98.33973235478251,-48.37515080082932,6.720603265537265,36.336809595609914,42.80110560800457,42.570110040578946,43.913403782349654,46.653279792176754,47.12535584988294,43.33839089040995,41.08010289811533,45.20502154318389,50.20939468730381,50.84242595423264,47.84349099637493,43.552836130809624,38.187033452156534,31.437412641915664,23.43028892747094,14.462735356645307,6.094675533331676,0.4294512685974431,-2.9022185754038223,-6.323712898702181,-13.821184366399462,-25.75819984739829,-35.55911475605747,-41.317818050192244,-49.14452747320611,-60.255460829848595,-70.8387023082044,-81.48045059143973,-89.53853731888552,-79.9144521430533,-41.81535991684715,7.592428895395681,38.951774073132974,44.72329069429861,40.96407048836308,41.110426155723445,54.0,108.0,57.0
43.186928798271744,38.130689965361626,33.03279923242723,26.5653199654312,16.07931642119646,4.151137371789287,-5.935649608017884,-15.371797685181537,-25.63080327027601,-34.49523704914185,-42.056051724276564,-51.07942224864462,-59.84191876497743,-65.8623736512922,-75.04975714031426,-93.4475519238518,-108.47872641130616,-94.19774468173284,-44.44093672516848,9.585112315095559,37.95309034349361,44.648826149209945,46.69501503059667,50.528911347642065,53.56199658088906,53.66844033507437,50.956340896584095,48.402845479872695,48.82482253702837,50.647243093922306,50.9205395584111,47.960634308300165,43.13006214002309,38.84753724236547,32.96716119771126,21.669575322292218,8.078271614910943,-0.9795370497318968,-7.072742857463102,-16.44346478455889,-28.182467497314807,-37.3411916042947,-44.18568043635366,-52.3542244624934,-61.344796238297846,-69.21021613967906,-79.38770161103086,-95.13202884374329,-106.45863573901813,-91.88416277125185,-45.16526414214621,7.945805144210615,37.85943629118424,42.055483433920045,39.44897243313575,41.85893457939823,47.122826453487,51.615989733169556,53.23949667139926,51.438163631080826,49.07957852570985,49.35066675169215,51.53888216035543,51.485066893425596,47.63248150822779,41.37801762435602,33.14405855006632,23.30677435713592,12.52834386910463,1.8559449227122464,-8.7172185399749,-19.021676991174036,-27.65058042662086,-35.511142662997074,-44.942472453966644,-55.031029903092545,-64.17364121765763,-75.78666276307403,-93.46788888525151,-111.08620518127502,-109.71001295764857,-74.31779533900281,-19.735476823766593,21.513774132763828,36.943021502286435,38.911072186969605,41.32116110035084,47.166724400274006,53.32772230247984,54.87168563068691,50.538692093258994,46.82992101834586,48.75169877532648,53.40743616539729,56.29538453599372,54.3084058204666,46.45546517112835,36.7755115494775,29.999038550254323,24.737564068963138,15.497518029577364,2.323269477985397,-9.427357995559998,-17.297650159257493,-23.09360884061318,-29.416458103490807,-37.51659216551031,-44.989526158743324,-52.90619102980493,-65.26310243716615,-78.25205876054487,-90.53911930978583,-108.0082864129879,-121.72256218595696,-104.00535918579894,-48.28067756409468,10.6274022456913,39.963684987705086,42.79203369689938,42.41110091333482,50.901186668000896,60.162684107460564,62.32837398916659,59.29091726198169,55.76667836144699,55.504123586405306,59.217322036331865,63.03286689722742,61.38906421399993,52.654531346566976,42.031399627804,33.731206237573815,26.75646001096713,19.605032795253592,11.46598364864144,2.1931343000506884,-7.161090630840952,-14.917152140593474,-21.728454715432868,-30.828794631614084,-42.19323854734282,-53.118299776878175,-63.433297750787546,-72.42022614008727,-78.04053352150831,-86.23993772298127,-102.72408608541838,-111.96452852081475,-86.85142748693784,-31.12912804490927,18.406995077142184,39.83123601812426,42.83901351852007,42.697452749175866,44.68810563205774,47.21113675545649,46.36811385365387,42.13980501660173,41.698429776492276,46.91935900163186,50.892306882670276,50.23179501480616,46.677797210257765,42.14550448456579,36.37167360311371,29.248631001881574,20.906197949964337,11.868948461185587,4.140204349447416,-0.695647524308788,-3.725786702093583,-7.905250981974397,-17.02905851077254,-29.10544170885609,-37.42824352618203,-43.118465564371846,-52.204524652656964,-63.437452420782705,-73.82205559709594,-84.5241786110127,-89.41454010040312,-71.65995686790325,-27.294642577662508,19.44446647905705,42.79306305916788,43.747978338674315,40.42260568621821,41.94967459574664,44.322589358558524,41.545047015843615,33.64708135530733,27.702054570996093,27.912732356544232,30.864173268351312,31.734827340676603,30.382687851449184,29.794000294971042,28.591014516638356,22.45942158661772,12.24731183580855,3.6004458364663114,0.05711998731431768,-2.5229907657443875,-10.50543065632439,-21.457289330119316,-28.835669094321595,-34.07262654780754,-42.53372733798256,-53.42398294831655,-61.28229314123685,-66.1300706670319,-74.41826627764493,-79.86037870851875,-61.07392126258061,-16.622041989810935,24.82214437153981,43.29122061871671,43.48419606581845,38.33096166113479,37.100091068951265,40.93813013640933,44.587284083759236,44.70302298982489,41.11141386904339,37.139025820275485,36.753065815394415,37.71514149974238,35.77633560084222,31.454772108531298,26.370427314884314,19.43076224798137,10.932256493651334,4.155906564613759,-0.9320123869851619,-7.327676160129638,-16.257577463501573,-25.485570713671162,-31.692029747199705,-35.60214825627512,-41.136129189925065,-49.53631820853562,-58.84245358224856,-67.63459394822812,-77.28438570219531,-87.12963937553612,-84.22517446084801,-51.2193526615103,2.0112895183971866,40.25484950309324,49.100924678822736,54.0,108.0,57.0
51.92665125116897,50.7003979215624,46.035803865167885,39.19316524739764,30.44341492593663,20.24495737260831,9.403252137666753,-1.183593111999863,-11.780589159111594,-21.7230299444429,-29.87147486834812,-38.03739378063166,-47.91450541352908,-57.72418766945205,-67.02751030029494,-80.28517346970143,-99.2022295172123,-113.64105272689568,-103.00902591888499,-59.05761230038735,-5.28853763645167,28.37619200048944,38.106816666850435,39.23383743191019,42.736782739272684,49.1211583725973,54.447354979756874,54.05349227233945,49.03509788485697,46.81332018793501,50.05059837076246,54.57110197527245,56.34313961562335,52.556787780844616,43.577570469258035,34.430859218647,28.569754901994447,22.644768621048694,11.881017557423897,-1.4309851663911137,-12.068618377587752,-19.067588887700236,-24.75557352022321,-31.625519975769254,-39.85224426982115,-46.982420765984834,-56.03453935613897,-69.22105174801786,-81.62432657828121,-94.94783628225794,-113.44187849080181,-120.95549495067843,-90.86722470297364,-29.590438954733944,22.691494067183072,42.58115928302082,42.028239689774466,44.05526707028788,54.040674391973745,61.57606787784032,61.76615181956048,58.13638188178101,55.23393349157896,56.26413421757646,60.563988996447314,63.320291869512445,59.468107301600604,49.476167520612044,39.37896083138493,31.666122740022452,24.75117367506585,17.379870984448665,8.881739079657674,-0.5792951276394895,-9.6144316970125,-16.846720645093008,-24.017715169185568,-34.00791480166908,-45.46441642189673,-56.11950376223629,-66.3058365362635,-74.32860969972128,-79.68015914336861,-90.32587588829217,-107.44288694454511,-108.98757221624477,-72.5359616322409,-14.536301286407769,27.49567273059949,41.775078161995566,42.69536142406899,43.04383552249079,45.52309355013748,47.466931996940524,45.257688239234646,41.30269076606099,42.868515600969616,48.486733712067895,51.15419112692458,49.378307100285014,45.45336617749738,40.626153407864486,34.445071910036134,26.95640650180049,18.310690213492308,9.38605461331281,2.4504013380392187,-1.6628061899184843,-4.629661896219613,-9.943020712362928,-20.531961766280848,-32.06882233745379,-39.03347463039711,-45.274475732665636,-55.45443082519925,-66.49899421128852,-76.88635313045958,-87.18296814965586,-87.3135857626179,-60.95207771568451,-12.56701802062601,29.131674921619258,44.63753235542785,42.50177488708405,40.383715228528864,42.864285014757314,44.21261718204884,39.55492730418346,31.38854327195459,27.16938450707844,28.738904429236356,31.45407539167794,31.431815297646654,30.068875088728003,29.721334564235384,27.429918347506657,19.717081013281934,9.325726306583121,2.075230776840222,-0.42946632834636517,-4.173299913795061,-13.70597883671213,-24.090949134887985,-30.29036100946456,-36.06371421040596,-45.6578134298926,-56.200478357648144,-62.71784824547663,-68.01677020660816,-77.15198227326047,-77.7092143762971,-49.918192746848845,-2.9440653174085343,32.67300460969902,44.654207654674494,42.01854568488018,37.34267906833856,37.86847278335833,42.24877981094789,45.02992194387778,43.98629413478893,39.76084255920179,36.622101619552204,37.13399434443862,37.52493977661915,34.65991039844037,30.06913545918833,24.6266549992523,17.001008343183987,8.692070697080633,2.6390587508398053,-2.5316904940693226,-9.680066955045163,-19.06680757903191,-27.66446497718484,-32.89281237881393,-36.890955062786446,-43.32633363813186,-52.2362325519317,-61.42693808186838,-70.23335548623055,-80.38597986341779,-88.52122389332634,-78.11424644682378,-36.48315425436369,15.984680900014945,45.46455042162053,48.25263017710651,43.88352335990937,42.87169578642245,41.7060992491522,38.27972908401803,34.86511015541676,32.613231009544265,33.15180710982208,37.35005396085581,40.23222197318744,38.57021218967844,35.488036191495155,31.647526884398445,25.865883995804992,19.130365532427092,12.318398827414534,5.729382287095759,-0.3279453640461647,-7.818713368280548,-16.690035482044788,-23.462241490749356,-28.292527916722335,-33.58876055244304,-40.5063486129487,-48.62453559542204,-55.71699416682639,-62.86868459358614,-74.51606695170891,-84.58504930355426,-72.32805706171256,-29.590240599332024,19.557618959243595,46.60237687594896,49.382971238200454,43.57643335439692,40.36309301740729,40.546434939200765,39.811439002509495,34.2557416074347,25.49212204830881,21.2641604629318,25.80947880967052,33.575447024192016,35.88918438017343,30.761128582356346,23.05331473336626,16.62681643321068,11.562651157332994,6.186165593866698,-0.14686383990960578,-6.877971589136584,-12.687530636064976,-17.65981601229404,-25.183151946200848,-35.34566801069211,-44.307868499944476,-51.27129104695729,-57.072121142735284,-63.487909085727026,-74.10680084007289,-82.36103891664173,-68.59502893731033,-24.361955592454784,54.0,108.0,57.0
55.05914154924786,57.32633229999419,61.78562188464545,63.017883282452516,56.98354164132074,46.326730782289886,36.95459165703447,29.659345047267877,22.70591077849526,15.054986686028531,6.20830565959649,-3.319582067879096,-11.892006475778645,-18.75736309994128,-26.58251289445825,-37.31495859614081,-48.63927480349025,-59.104391235764524,-69.00177750727015,-75.92902923407313,-81.80170524096768,-95.14093391376039,-110.89482817085091,-102.51771400920006,-56.25579055901045,0.5012784516226216,34.072410276523506,42.643043551321774,42.57802543766801,43.598461906281976,46.324418408584066,47.332407425087816,43.94943277400688,41.00645392754628,44.42072934082541,49.75363127965652,51.0223257437993,48.354712152895125,44.169685389832566,38.98474747130759,32.41100720268503,24.5647947505566,15.676583536144005,7.081521152293837,1.014255590779988,-2.5240882323778875,-5.722963590708316,-12.484057059141787,-24.129042726634957,-34.56498590946645,-40.572897823821236,-47.83547020740628,-58.75195698348234,-69.47560764458017,-80.02874262483688,-89.06361117844523,-82.84207626576736,-48.2067642193083,1.5240391352283322,36.41248794667176,44.94953125918503,41.37092644790786,40.798880225326265,43.6729396747678,43.54869789365235,37.22713817501622,29.509196966503474,27.168614680475564,29.65295622080886,31.772755566858297,31.007077142764246,29.887310955776762,29.492526136601818,25.7634773713861,16.730034181935086,6.694011100599396,1.0096001481072943,-1.0277748083735327,-6.389010643323389,-16.9789365730878,-26.29504805421287,-31.71113070657311,-38.43206774999448,-48.88033816948621,-58.577381952391875,-64.01412177835893,-70.36820031438741,-79.2548363789718,-72.95353890462387,-36.98389209247257,9.61615128568113,38.400174030966724,44.788545608813926,40.417125686474044,36.851357732574876,38.991500017499376,43.38969284005533,45.14490733542262,42.96924943147846,38.512588261411075,36.46559306517967,37.49624107062352,37.02133454525819,33.40891681056971,28.635509423747006,22.674082284908458,14.497833886717697,6.6817102471781915,1.2030925288484322,-4.31543470681332,-12.244608151031134,-21.80898403662342,-29.522894229116577,-33.97880159834454,-38.41516155358261,-45.73746885739921,-54.94916015197482,-63.955035208690816,-72.97182988505688,-83.42913624938703,-88.36432998938683,-69.12707852601076,-20.724520032909517,27.78070481315424,48.27469392972957,46.899431292248906,43.2593794460992,42.782002717099274,40.86597764583756,37.208429453575526,34.059795969219266,32.372586110095945,34.093014520894116,38.6202538639059,40.12838525143332,37.69736847299356,34.53408301211489,30.171273559505345,23.947531207804186,17.170345211648524,10.352283565725058,3.9713328453554744,-2.2424347000871188,-10.391350553739064,-18.95992643560708,-24.9382996963484,-29.700777607286778,-35.39797833778467,-42.81381769723049,-50.85281823095867,-57.56360512923555,-65.69719969845883,-78.34795105406958,-84.26633436904136,-62.591212622214925,-14.475787182691748,30.309616974345122,49.32087134608546,47.87642918939288,42.184846145758186,40.213700036303635,40.65144086261134,38.77695549516839,31.778769513937892,23.441469061551167,21.756628208676155,28.139694634289,35.0817467951332,35.014705445727635,28.559696573038583,20.994995557642895,15.093540679695856,10.104439740779789,4.44068895138988,-2.091128070599269,-8.719400863579919,-14.090719884757169,-19.439255351629587,-28.01036339060765,-38.18328134904197,-46.469696716102305,-53.05317072144418,-58.675385324756064,-66.09809062251064,-77.46467655308443,-81.53614565308123,-58.48909636686529,-8.666514237070801,37.945930597704695,56.44957249269225,52.521120181551865,45.461772652791765,44.15366577271645,45.21793491727352,43.41757512222869,37.8144428671143,32.11831730547357,32.11416719536455,38.19832807532395,43.06901853103337,41.18948384836317,33.78685297480033,23.866039098508743,14.698427660610024,8.963617571593094,2.8453811702905236,-6.402482698133787,-16.409866656173524,-25.194873670692125,-32.734012707612365,-40.188740451903335,-49.549675509100545,-60.46549281716457,-69.45591527623141,-77.23275244757822,-90.35290771567833,-104.20687702685176,-96.14316620683223,-52.62022977620312,4.822839967410067,42.5539168181442,53.135876068662675,51.018370539142715,49.33640610918372,51.955799686465426,54.99009110245255,52.74305501007183,44.82649709100247,38.37375795030351,39.34780225482838,44.105908965479685,45.02031721198454,40.83348566666449,35.97768127335934,31.72192732288176,25.83518243241717,17.845067018556236,9.48679134479121,1.2767797245695314,-7.009363481688286,-16.459469025333618,-27.120576797793913,-36.27763884314798,-44.30398884045385,-52.76778242025724,-58.61201189594446,-62.470945005079415,-73.63528239975943,-93.4079759223201,-101.12155464015771,54.0,108.0,57.0
41.54227318951117,44.20829311366386,42.30450321108201,34.76523831346948,28.141102483704262,27.602240645452877,30.516378977941212,31.806623745992358,30.56571625632882,29.812537320340624,28.96738285142703,23.603885565706076,13.65219089385296,4.468472261647603,0.30428082588450933,-1.9455164102179856,-9.113789793481844,-20.111092756246425,-28.10471186631478,-33.268605465438654,-41.16734326810638,-52.03661511901937,-60.520557220408485,-65.39929806858616,-73.1002016741174,-80.08577133839314,-65.4356927037284,-23.096673401260677,20.484058797976388,42.15480355258369,44.03749392078849,38.92493182515532,36.900663911727605,40.310562390881344,44.27709165346241,44.92135376981113,41.728051816269456,37.4992195967256,36.61236023769062,37.70244674038713,36.22641334813762,32.08175737700507,27.115265007502682,20.500544292537374,12.02934357258234,4.905725832950285,-0.2405665214535938,-6.32224974419794,-14.968852001545674,-24.38141426334638,-31.070073926572142,-35.06759093767018,-40.2133674084893,-48.31184517560078,-57.62779661342975,-66.46618043255329,-75.88562056550809,-86.11972635697566,-86.10721290466685,-57.41483923959967,-4.968344193964205,36.953938652656525,49.171811759509424,45.484553383167984,42.97366185158986,42.520928314752815,39.86526744048045,36.19838468984124,33.360848727837755,32.42933260178558,35.32536305665569,39.58756517977497,39.66220019631102,36.8041705619256,33.475948144400455,28.520484100304433,21.994830772076188,15.204567650466494,8.424835112702478,2.249966539028875,-4.352006424351578,-13.014117177778125,-20.970628875318752,-26.31438993794174,-31.19570441668947,-37.36170001151927,-45.188051849365415,-52.92954007749059,-59.51231867307045,-69.01166253429284,-81.71599558816382,-81.47649336523767,-50.41171221159416,0.2904719972421826,38.69274077204288,50.26364852831424,46.090044523224414,41.16582727126172,40.28573144498666,40.552474204713775,37.266621778679514,29.151143023861334,21.99925543179438,22.989823327412495,30.51782198809749,35.93601605261872,33.57568160663319,26.287823972596218,19.101645958408273,13.641235851500195,8.577038241754044,2.6195422863923605,-4.052694706747554,-10.43626220345678,-15.467719183656053,-21.53345889074053,-30.98661336862896,-40.8251383358748,-48.49648622835117,-54.73873196741329,-60.41610924122782,-69.14147029985644,-80.29713452896016,-78.30232257253476,-45.90332840971878,6.714620795129498,46.49919123258332,56.74926541769879,50.10744712312026,44.49159573538579,44.500960412907695,45.12799077802174,42.10691166682382,35.916275617390056,31.335608088140628,33.48161362018205,40.09978889293551,43.27436912843277,39.46171644631965,31.074860608888688,20.938928876457698,12.74227841438405,7.47975175259742,0.4418740527984302,-9.347921907619416,-19.101969170028706,-27.471916039239716,-34.81129328825009,-42.63269215052125,-52.67060955820377,-63.39931843325572,-71.55319460980026,-80.28793837624963,-95.04766706460542,-105.25241568702279,-86.94198117693433,-35.772924817446025,18.73462934409237,47.9345712946724,53.096911667034796,50.131677244278414,49.717126450388406,53.07019641276793,55.05537471820726,50.83471282288584,42.408577212748526,37.86596923804883,40.698339349094326,45.00090569528784,44.163213925123884,39.33398061022818,34.764260173696584,30.280356949797504,23.671269727289687,15.411289356120312,7.10745157258076,-1.0868856736194286,-9.55474965208993,-19.513889157195663,-30.015144510581266,-38.57520677320056,-46.76961727143929,-54.88661194914946,-59.614619504967216,-64.53223514977861,-78.96558101937829,-98.22006708731163,-97.00148542567723,-56.70320915774048,2.538762744542688,43.25835239872332,55.72602589679745,53.61496336267185,47.50195213387735,42.01308135472945,39.0634341080499,37.37744232628508,34.2989330685194,31.51819378424338,33.21039832306204,37.63612909046178,37.36239744282456,28.756650205483442,18.095874248802822,12.720977095097982,9.379225904277357,1.4155238580832987,-10.27128839136492,-21.571663294946188,-31.572754778082334,-40.847235023438024,-48.73126570350487,-55.119355042243726,-65.26114470336101,-81.45515017555097,-85.37690312340513,-57.11738340942687,-8.304131645134087,31.386334995007008,47.85846320900954,48.66057313775521,46.25007072286063,46.303383535408486,47.13596281829708,44.47995271854563,37.284976697775186,30.41872597890241,27.45180267617017,26.138035565662566,24.40451952740126,22.01826526405663,17.2723162262392,9.121133570273638,-1.0683994193576154,-10.227404342925807,-18.989519186186627,-31.680328984771847,-46.43096903936052,-57.6389691314497,-68.75007425178049,-85.17922583006937,-95.78520452716234,-76.60102263126713,-25.170927500145133,25.255467152766585,47.61589984252732,49.42165590086105,49.187415498969315,50.30122122505178,47.63304180395466,54.0,108.0,57.0
