58.229490318236316,334.53052997587486,431.26763700886363,391.5181878876257,335.0349041434139,292.9569335961797,251.118091581406,212.2672407165532,180.86732675446282,151.22948343311222,119.68760585778296,86.02773971013042,50.12358848266531,12.884013413045302,-24.73330008381145,-62.060535304417044,-99.25012548626955,-134.2872893718288,-167.36720478780677,-208.8531531160963,-247.9300352795552,-227.72211129634104,-116.1104045431415,22.901552799972368,107.95373766689104,133.90797908472518,136.4142033823407,135.60378816305482,129.73825800588463,109.40529243770926,77.93889424128038,50.50184769727378,32.68543762922415,19.25199071829389,5.9938683228109735,-8.634175991891732,-25.271434056523354,-45.03864742224965,-67.0699385303351,-89.56714691669951,-115.31080204968643,-142.81233213044055,-163.67323479018478,-182.42967592380904,-215.14688399732887,-244.74706161174876,-206.95925838429577,-78.49923791890542,63.00920650201038,138.28760773001136,155.3267698916095,159.77125982556134,166.0811719338033,161.16378445506436,137.07690935747195,103.26608837078017,76.89538488061909,64.74534101579307,57.28862202814483,44.06252550282761,25.73969822712699,6.033096410245958,-14.159384064641348,-37.01566992508987,-65.98298574740973,-95.26633669487579,-116.52192101448388,-137.4354687416511,-174.63504655479755,-212.21691259091085,-189.57028444031383,-75.05099972558487,66.46138613961678,149.67821361396014,168.60828027590264,166.6226682079337,167.64755186934036,165.67197817421402,148.2319231200301,116.6876625354342,85.90979118995338,65.9858776076767,53.21681519054128,38.36693081675798,18.14027931376731,-3.166186822719944,-24.33284584302213,-50.10122432063162,-81.87583568156606,-114.15696190289641,-140.72591688392203,-161.40481296701097,-185.61526099725953,-224.56545016138855,-259.0415843470251,-226.79267266993057,-99.1126472685647,50.88814234439975,136.98509811489822,159.93909587327215,165.14795613446842,171.7433287885508,171.5457651481245,154.9640658842283,125.06517148834891,95.04343082855675,74.70234270144266,62.44921319927788,49.9618518729468,32.563710582383926,11.301157764517617,-10.223440502710085,-31.259404337783273,-56.008906314729195,-87.30748076549989,-121.28407416541378,-149.16072873987525,-168.28359312971702,-194.1566411207978,-232.5659672028387,-237.1123941384036,-150.15576558485543,-0.3982377229851949,116.63216019351792,161.9120658709777,170.75969639137034,174.73808356832433,172.58159826355012,157.46725199988893,133.8651020922883,109.77059369892228,88.18692557107106,69.52983116609416,53.432831499409176,36.80602563033724,17.822432439904656,-2.605920111860106,-24.378969242015096,-48.919389723918975,-75.97535110322332,-104.73432905710074,-133.6010054081113,-157.2383684041928,-177.91551697073498,-209.00779079975774,-238.91263487987055,-209.20003439801343,-87.66728349002483,59.332696794851195,147.60824986793313,173.28299385635123,178.990160755283,185.88992720189597,184.02720341589605,160.46760149308372,123.36644292867129,91.64286379694569,71.78980478575122,57.45278455018828,42.51794214021028,24.826248617988398,4.395873694321837,-17.34432470558861,-39.88535908933708,-64.49122592308258,-92.74994288594336,-123.57192527807183,-151.9580895419657,-174.66545699322702,-200.04737208614037,-234.46635231220748,-243.52592668095522,-168.59254006838734,-21.757227771668003,106.42147787048772,165.14388504790887,180.7367148764408,185.14515607629554,180.8794559095536,161.9456027223071,132.23658855620982,101.63629696120073,75.73217095719932,56.371531666337056,42.86709675714499,30.28807442594212,14.151593478996974,-5.506824858222409,-27.4895466827307,-54.046525877224624,-84.78303608311722,-112.7638067367188,-132.29839348504206,-150.8966578126429,-184.05743268813615,-221.4563126873514,-206.86243454681497,-101.42112767757314,40.6197705755362,133.70940864906186,163.08500496050655,165.8080705117672,165.68237976861056,159.36225942605438,137.1717887720491,102.84024684046632,71.29444452039891,51.596748542496016,40.0306678035585,28.995945211854522,15.402664071409912,-0.8511969376371374,-21.450405010687064,-47.78181848004226,-76.33078885774265,-101.92603607213981,-124.25584453280243,-145.95402278119477,-174.42674649692208,-213.26258712839257,-228.15256843145187,-160.84216606727225,-20.585789367782336,103.53354783952824,157.58132414277625,166.54473723227778,166.03000221936287,162.56234508017292,150.48009295157087,127.60977725714764,99.41674287395982,75.78241915509989,58.498858463596264,40.98772384241036,21.65671164155469,3.8915565286680445,-15.194476179210518,-40.41192497273452,-68.44180431340952,-94.62580760932768,-117.61459433149197,-139.0154156605071,-167.040980095396,-208.0575986225162,-236.26270106682193,-197.2521366173374,-76.36182809485243,58.6573271256909,135.896503327388,157.27314046045507,75.0,99.0,56.0
-20.271817581229996,-44.78456653430214,-74.91149796738812,-102.30250050675458,-121.75660458841809,-146.20222832964643,-187.58688817055432,-214.77053165139588,-164.8428951807825,-32.29784022715745,98.50046833605968,160.0240751634524,168.41734178687017,166.47847744857359,168.03883231472992,162.52491458382153,140.03404299316065,107.02025341099933,78.96450498376711,61.98039615181953,49.469997229214904,32.965640166962686,11.880671350131562,-9.1314021966232,-31.101736373184128,-58.80576856406434,-91.48595359974577,-122.58096562644504,-147.0888248497253,-167.38607680954652,-195.27513302053455,-237.1923461111714,-259.52270752972765,-198.2706675258961,-53.15518830272372,84.08363223032072,148.10376398082417,161.6527839821566,167.0053735966897,172.95932576732693,168.58987607152065,147.19957541685258,115.7888170348693,88.02015152599921,70.6647336486406,59.20756327100967,45.47290597113479,26.67517061439747,4.963747727321799,-16.22440678184737,-37.809259382089934,-64.40997572512956,-97.19089629077094,-130.3593574367031,-155.22647047061963,-174.13647907292517,-204.91112021881668,-240.5960797282454,-222.3357974107301,-109.32531918964305,40.41524026149192,136.30428807073972,166.14464495973795,171.99640983392914,175.2186187945238,169.5494062309198,151.12089720710986,126.7106889611707,103.25904043579615,82.47132083351205,64.70867008194618,48.839641963715884,31.54192739023253,12.025939219194875,-8.706262812540626,-31.139907269870342,-56.54359623000927,-84.11091344156952,-113.26132309920855,-141.1650245575505,-162.98142511011,-185.41514285073868,-219.68620904119223,-239.40748092972837,-182.40016053988495,-43.128991912314746,92.74020273391929,159.70842378237535,175.31351888210352,180.88875398535004,187.07071287712424,179.54734931171257,150.26255412937405,113.01118343049689,84.84458067289299,67.43784843362438,53.35016223070661,37.72436065461112,19.151653600120238,-1.8073316126665364,-23.751541593261244,-46.69124451038693,-72.25636668444888,-101.54645351132065,-132.30196337972995,-158.98932399443194,-181.09148942792197,-209.53078333487468,-242.51520336665766,-232.0963749518299,-130.1950017125304,21.19056715236071,130.3358748303228,172.13930443253642,182.5746418226967,185.1576251359553,176.9727914627697,154.03297276892022,123.11707743297602,93.56242562100618,69.4145652868201,52.02799671142375,39.39504397226833,26.086474562704087,8.728933288741047,-11.568957487120878,-34.582438260892346,-62.70373817273013,-93.5416563091511,-119.26189154757196,-137.04100572772157,-158.5691431693017,-196.1960127007459,-225.58570322926346,-185.2097560803681,-59.75932806478743,74.88620980648682,147.4057390917891,164.95688848606798,165.8251343786188,165.02652536234837,154.75408355872133,127.91569061888923,92.79101308525989,64.34658505710046,47.78830728087984,37.035970921088015,25.337701320518143,11.01029207447148,-6.240740565212912,-28.513417083663132,-56.08097156614057,-84.14276624687754,-108.63091650711819,-130.3968217226938,-153.00969302669122,-185.1038172430313,-222.7902749606937,-218.8101983101856,-124.61280735540367,21.011723842132188,126.32341395395113,162.7668397279768,166.57361654810515,165.56559883987697,160.16726252092488,144.90475913364264,119.56269605655851,91.7908645409355,70.37871326012106,53.720799466758336,35.42601305615208,16.31548926171097,-1.1716237111139653,-21.850088198232214,-48.49030096098556,-76.30867432364079,-101.595286805147,-123.76269898445528,-145.88527690403762,-177.85127971716514,-219.76667340346089,-234.05898530192326,-169.08105942072538,-34.619535278366456,88.2930583248562,146.12889008015813,158.76719307554336,161.89395206114054,164.863102008688,160.0770415996406,141.7790591716256,114.5639723918165,88.81537212012536,69.22432931347325,52.38780784949054,34.32330397715487,16.42649378159185,-1.0712318353929864,-23.703934622714996,-53.487628270270264,-84.88595718916942,-113.81455023864888,-138.31625991352243,-162.23279463236463,-198.48527454865052,-239.816451139575,-229.83438599392733,-125.67676883251708,20.316396296502855,118.84234827064628,150.35293864163782,155.29679240501204,161.0320581508185,161.91195817076436,148.0422736649173,121.82395420381094,94.35808429096579,72.79583449441395,54.411444785779736,36.87030042188917,19.709278817448247,0.5775461111033926,-22.27306686288234,-47.77252885657774,-75.92397626945923,-106.19529084692505,-131.9840683386325,-153.127164404197,-183.75855731929047,-222.2847018505654,-217.9495710763312,-124.2729765947367,15.433277632097088,114.44050968977531,150.2330794329655,157.0540257459253,159.41661347929312,157.06233428952746,144.38942425474056,119.7950309540356,89.62920326606682,65.25665015471967,48.13334335356278,31.51403441580737,13.752232765268946,-3.044364146898765,-20.69925984657198,-44.09024191640479,-72.79016250044232,75.0,99.0,56.0
168.5929538371645,173.22135138895692,174.9103222020772,165.36773411993136,144.2806092379268,119.68249733911952,96.96993076386845,77.01650450524718,60.06999830507788,44.100942883847374,26.080965559030325,6.13950426688821,-14.937307477887192,-38.17358944201995,-64.33700237259298,-92.39368916247037,-121.71847719755678,-148.1283310114258,-168.69911418359854,-194.17963078482765,-229.49405897283893,-233.08642695034032,-147.9565961977404,0.9158967711685426,119.7316187008159,167.3918182091799,176.76742152455648,183.01503742523067,187.05410667801578,173.07148756127972,139.37490292513223,103.54056948242818,79.00648697533781,63.33226640019372,49.097034720678565,32.67446629602005,13.269178448569072,-8.080873423480005,-30.22932500829244,-53.71968353862784,-80.35489321911146,-110.49465088246592,-140.66432731670014,-165.53300151488926,-188.10186562184168,-219.77364419030778,-247.01692115954972,-212.29750809013618,-87.25120490240151,60.02341011302071,148.17631471854847,176.67832621579086,183.9575227962936,184.25830549541396,171.74614990706246,145.4390907390387,114.16001415240491,85.94910569611446,63.683818276878725,48.1100982315102,35.851007164727804,21.5077517995088,3.0704123682365854,-17.827926937496873,-42.141999352600095,-71.63296880456838,-101.84319672977777,-124.9820923081695,-142.06273367516488,-167.84585443384103,-207.98918517031893,-223.56859742398385,-155.69275219295045,-17.39800207575364,103.32143829465538,156.3287758865242,165.64460833472296,165.86322614326676,163.56765080137734,148.63980097392331,117.91743976536084,83.37864262774093,58.475986466127225,44.46191325635246,33.91946806324625,21.45306231685284,6.39291760436753,-12.060787944150851,-36.06230126616014,-64.4157006617443,-91.61262684232939,-115.10558140411838,-136.5567377090245,-160.90416175505325,-196.60348088151972,-228.92450889019725,-201.2333243024705,-83.64683733909708,58.68705266546836,142.87975526900811,165.35776583343764,166.41086070393405,164.75049154764116,156.91330505915923,138.42864049152078,111.29550074384862,84.78475816066413,65.41028999678883,48.737034322657244,29.781710156076695,11.180677222125503,-6.519119825300685,-29.072583994041896,-56.64596796671637,-83.94422016435361,-108.28867589148747,-129.8442578459375,-153.6155634210346,-189.78634699803138,-229.3256714975124,-224.7841406453189,-134.51467547816915,5.910586589727269,111.90733234828328,152.5250116869189,159.68880820098784,162.9791807830304,164.68219665180794,156.19066957974587,134.37408742942765,106.58776963553424,82.558056922256,64.33099214082405,47.327467246691576,29.003718339592957,11.506928204084502,-6.8183161217409,-31.7443001530061,-62.65665508833096,-93.5989458813013,-121.3815018810147,-144.80334805380664,-170.94354981940106,-211.54749153819952,-245.37622505428382,-209.0501480486464,-83.376977843258,56.310062939604116,133.50582996762074,152.57036702661776,156.68337021904597,162.40764776228184,159.5540273371434,141.33219645948748,113.493154231711,87.51527563652853,67.35722522360193,49.248947707181884,31.950938009352846,14.504144149637554,-5.641937833757809,-29.4403898496171,-55.5545740931251,-84.66606645881623,-114.40260865139254,-138.1344390081643,-160.32397498907068,-195.39900530878134,-228.52842117294057,-200.13678847974393,-84.48621356563574,50.929433099100194,130.1837800494859,153.5199412356528,157.89185116843203,159.51585532239423,154.62373220332518,138.42629053257417,111.11990715843095,81.64386274395319,59.843955213334205,43.51103580369791,26.392949821965885,8.769512564512647,-7.836816734361903,-26.72278319394927,-52.05876161622838,-81.28360740239182,-109.05324911471,-132.81645459610974,-156.9375899563877,-193.24850255659075,-227.46625685703805,-199.92277264957443,-84.30819448725707,50.843438464003285,129.10109289796492,152.92836137878476,160.18225377592762,164.88263749022013,160.1138326040509,138.94435421053754,106.98341139559145,79.54525157522012,64.53434649032711,52.64756849608419,34.637557633074735,13.943765024033391,-5.6307848368759075,-27.393303100876743,-54.35935535969689,-84.46892484413021,-112.20590914120758,-133.9533703542581,-156.2064932720674,-192.066686325961,-230.12625998842836,-213.5228042490932,-105.46551317601705,34.713758379730955,121.68474808239507,148.7673728429956,157.64897693274335,166.32365709765162,164.78587415535242,144.70143474589722,113.1877746044886,84.74086780136608,63.98335104281709,47.2478764211743,34.129630650169005,21.97765740798007,3.5586731488666383,-21.678832622447274,-47.24154951649621,-71.32602923478032,-98.35552125226211,-126.69885553478618,-152.1396212993974,-183.00938034203094,-222.43180574124517,-228.6436404955194,-146.88186878629833,-5.235989914165675,104.22076004374203,146.57600961036738,155.24827133449398,156.5191419574278,150.63701646710507,134.53674961955073,75.0,99.0,56.0
-2.765237354339666,-24.360418897556762,-50.184868606640954,-80.65298024046415,-109.49407281818935,-130.08141245403334,-147.84600058521286,-178.66085252324197,-217.95518384559824,-214.02963947700252,-119.66782531312845,23.1448001659013,125.5232310510843,161.58483837661726,165.798543899877,165.80521835671277,160.99461338260826,141.0868797276081,107.59245587665787,74.86766506505172,53.57576428985129,41.40373049832733,30.602903844398604,17.358429751545554,1.5077244294027101,-18.368468227579925,-44.01421029833798,-72.62510549094813,-98.74334534508901,-121.39966846942367,-142.90285266676284,-169.8845713671411,-208.19415370110968,-229.89907297912046,-175.36291826295064,-40.48106411902428,90.83375361856244,153.99159794854558,166.37938935610845,166.17383352791518,163.40578013557857,152.73064551388725,131.17023707529617,103.09686496567639,78.46873756096434,60.66800655296686,43.49042189945998,24.18728452935141,6.185058750633983,-12.327463946160808,-36.755889363991294,-64.75024631252785,-91.31847922756471,-114.72390601196592,-136.0455213271183,-162.5018748542554,-202.3141452486118,-235.2143435325664,-207.74940476429254,-95.35017600104271,43.10034517085683,129.58722213477105,156.2034256379299,160.49878349759214,163.9937109916052,163.6068682487918,151.111381442581,126.45398809368972,98.98598119045137,76.83505567414372,59.52154612646452,42.1112020669067,23.789150489594782,6.557173072768935,-13.17073459204129,-40.32979026135636,-71.79055394146923,-102.05228965440321,-128.52588974414442,-151.4438316298165,-181.08542296589144,-224.4373626586319,-244.76748594880345,-180.02526552678583,-39.9231073823671,86.42479799441003,143.0583417053283,153.78589074445713,158.40244279977102,163.01232081430848,155.8264599486442,133.77119506010675,105.38167462953574,81.22294633433008,62.05068609430776,44.159648471189804,27.031983668677277,9.063560458256996,-12.192225161308805,-36.77209114279475,-63.608825978929,-93.5110881158905,-122.02321243163803,-144.046852822016,-168.79343939170113,-207.2783600495367,-229.415413576544,-174.26141121952426,-43.00526451564488,81.09695097627844,141.0264600758467,155.42454717303426,158.6377574157519,159.05712089093538,151.2169068971099,131.4651679850462,102.24725362239226,74.405897612156,54.91430437467251,38.7601097570158,21.224865372344073,3.9115481867311415,-12.806660048608759,-33.3453892290365,-60.36707193493051,-89.63420946306171,-116.34022417158185,-139.24819343378908,-165.85786879960747,-205.41477210591378,-228.67437256607025,-174.1207780481599,-42.81346282997015,80.7439766287031,139.8114613980492,155.49287539562746,161.9096427224545,164.93950022459705,155.7146499389501,130.22076887480998,97.91677943582083,74.07900556974099,61.405749635970395,48.12176897171508,28.622779138606543,8.223441872347161,-11.47793508634952,-34.64545568260708,-62.942683609958415,-92.99353779548059,-119.06608647865724,-139.72443012141676,-164.82549000146085,-204.64256889105232,-233.94462360074874,-190.96157643252013,-63.70864079525099,67.38188302522384,133.93414966799315,151.6319563236821,160.354270462284,167.54123418002305,160.87355164702785,136.11034646737127,104.15774951099488,78.10297136713487,58.831443530418866,43.064126180714915,30.831699446051868,17.537290551805718,-3.276812697720867,-29.295926776736266,-54.182016015341546,-78.70132932431632,-106.71599181920334,-134.2578780155252,-159.8796712909638,-194.3215415664861,-230.6594123160611,-214.989741833535,-108.17992758022523,33.10057692855841,122.50502469228981,150.7388045644211,156.07844722808483,155.76297023149255,147.07787709648508,127.97324777945387,101.08131786411411,75.12041094978707,56.0361663495229,41.85414795630215,29.394023645231155,16.769922314385862,0.66507340751116,-20.84246723895566,-45.97432460172764,-71.91719831731348,-97.82449258447207,-122.065281332469,-147.39815784208292,-181.02558343914833,-202.54969124728126,-157.29029069657958,-36.47982680082678,83.89780432007531,143.03833912354082,155.3502873506344,155.31293358255184,151.2821053868181,136.6427257691339,111.65884766405878,86.29093841402735,66.38256672219148,49.330725852378364,32.349851749879804,13.894865353349815,-6.092584829532772,-26.078642777063987,-47.43218095429428,-73.10537460107743,-102.20444061539159,-128.9513288090002,-152.53931902543013,-186.61753175069845,-229.48126238815965,-227.6246118384714,-133.06315028492187,7.26430714625706,104.45848895284978,138.85162864790354,149.08692904777797,159.4811312019761,162.04948604251823,146.94738029869848,118.5037769041815,87.77582187159047,63.744178153135145,48.932336358860816,36.76222334618484,20.273618162428303,0.5847182953741434,-19.21680925584526,-41.94265694350788,-70.81407387346556,-100.93514801183979,-126.15653778317183,-151.37206833738875,-186.88607143723132,-215.37605224403674,75.0,99.0,56.0
158.18685805777946,161.41939881361785,164.7062869848541,161.46049664977951,144.94162604167477,118.31335151584607,91.89381035863657,71.5499065484395,54.66698472339509,36.78938789493092,18.719168731079282,1.414669285731992,-20.217228936785926,-49.28577834823609,-80.79515493670938,-110.18787854754075,-135.29117104266544,-158.623885809663,-192.70462473771525,-235.67936234884417,-236.49585803528524,-144.05603942935355,2.0815441209750283,110.08891265916547,148.70762323584603,154.77799715834453,160.23879190819338,162.54634423416593,150.77924338451976,125.6591640854156,97.70981680291668,75.37791501656274,56.81074657910151,39.153449575059476,22.048234144950605,3.3304821226818513,-19.035271208849665,-44.260022990219184,-71.96992822935275,-102.25785008735244,-128.98505470646225,-150.13155400144305,-178.72035550321468,-218.1003401002386,-223.37799697840506,-141.3442783859719,-2.3736846121754067,105.29896539673553,148.00906800778014,156.61866752251413,159.23228393229164,157.8815963217012,146.7860308302913,123.63774853224507,93.51767569591274,67.96896450320367,50.250848379618226,33.83732008598643,16.090046092152914,-0.8560518610180583,-18.10538543709276,-40.57175941247171,-68.8568296400336,-97.75201466475544,-123.25167085649144,-145.92769505124116,-176.14256797563343,-216.54844780151907,-222.90777151679214,-141.2111839150408,-2.2287691942167114,104.62943061934273,146.86809038652345,157.5195065326789,163.44357408396618,163.93418264968312,149.8561142545365,120.8786856687737,89.65369082551564,69.66632179718042,58.16562004451452,42.9827040458658,22.577599526339238,2.6072812232035245,-17.63949229160146,-42.36097167227828,-71.69034056102315,-101.16241742446911,-125.38738346524097,-145.8314385068218,-174.9216480284634,-216.68505088058583,-231.3790007794105,-160.58448017163371,-21.758971997876365,93.96717843613463,141.97737384407728,154.03227724997947,163.06069326304194,167.5291804816132,155.3363827176896,126.89927674365079,95.72906042661113,72.05403747599661,53.92846439621533,39.221335447291594,27.469064961553098,12.391104454536782,-10.578801642272332,-36.75542036907932,-61.06058061778211,-86.44749469209611,-115.0228415644972,-141.53429697177566,-168.4526108887562,-206.19760758056034,-234.49660665652394,-192.93341280777773,-66.36085522128148,66.43733396154136,135.35382802930326,153.21646213539407,156.57080004781048,154.27817344846264,142.6287596192595,120.70323019127643,93.05929964521377,68.87552999277638,51.62021017893242,38.15083469757414,25.88569521561012,12.623582742643237,-5.0042689636636775,-27.883928735949922,-53.44918318548339,-79.4482544744672,-105.06318128978101,-128.88002762508174,-156.27598691411106,-190.64543634173444,-198.5108980254696,-127.90591733068507,2.416152882410073,107.84482080606372,149.60072750686035,155.68591363151648,154.80107677070356,148.3828691078472,130.1358719804782,103.9098359758573,80.00154738264466,61.33290535762577,44.487219601843655,27.22928262901271,8.19872336407199,-11.884835098256703,-31.957734552177463,-54.337191967882,-81.3519964655038,-110.45506309105049,-135.7133403506185,-160.6067229190383,-199.48597009681816,-236.7952113783288,-209.81168889281125,-92.86995361973925,42.43056392632956,119.55696143745143,142.47741874241055,152.02063438628218,161.70022047061872,159.5607468696586,139.63500412689586,109.38427876187474,79.86857313009891,58.654291554437656,45.57329349470523,32.53825232992865,14.719957093355168,-5.133965790205154,-25.229581236880414,-49.71286946981786,-79.76019607444121,-108.78514202166994,-132.88794543176485,-160.4726931892526,-197.85470243006344,-214.51755299163378,-155.52947754657154,-28.740887785391685,84.38966069244107,136.15261437077513,148.34005609133595,152.618440119149,154.75917427943457,145.54935571299478,122.01156097448954,93.17381825069708,69.10793710507704,52.03735979684366,39.30633765590794,25.029597680191685,4.9062673947274185,-17.286611169369895,-39.43424953272187,-66.2324293953751,-97.55723379268078,-126.1838221412863,-151.11090633822943,-183.64621433295042,-221.91472341884378,-219.9051582711951,-134.94787838357666,-6.344325340734764,87.99755076977516,128.17745744730556,142.46328500554588,149.02535524294535,148.25571609750304,135.44919456766277,109.81759894860039,81.09443470654749,60.39384417609517,46.87927660922194,34.905047433816485,21.18512315090435,3.0447813430919406,-17.808567289509206,-38.495151219225804,-61.566793041130126,-88.71983496351226,-116.78786920197382,-146.72773313376481,-182.6608241630547,-202.850671851186,-157.28622892074497,-41.03839148178619,72.6669619295064,128.7973355502037,143.61177275874482,148.79698376972243,150.56922998702038,139.38870363056307,113.21739536621338,83.49447952399474,61.24427963200102,46.51759966967479,35.06924703855432,23.574542476084087,7.363909825804691,75.0,99.0,56.0
-77.37923767029925,-105.56714570454832,-129.84561137818957,-153.24129040570182,-187.66094573565175,-224.99030137312656,-209.1043362643343,-103.03402922262231,35.16913762313147,122.61928383680923,151.40441887187166,159.35792521884855,164.57136027085042,161.64517670276615,142.6563456493388,111.33256398936041,82.46194692750524,66.03895516919545,54.51974232611221,37.35031165795262,16.632653504690655,-3.00725447306909,-24.209922727547934,-50.4920586127507,-80.46041462510452,-108.848752884684,-131.30206756286267,-152.6847009538007,-186.41143412847703,-226.68684109757368,-221.08732242223675,-123.90336312292443,17.84061787354829,114.29784435141276,147.07489901151655,156.46110781126472,165.4414155298977,166.0264164729159,148.34239696640626,117.4859479443766,88.03486931348844,66.45106999160262,49.28778541603236,35.683938887779064,23.818160516777503,6.5068978534975255,-18.15192935781828,-43.98519454511871,-68.034951977631,-94.53892697427426,-123.09251827639068,-148.7464264302079,-178.14105190827058,-217.66196740916564,-232.1880003628838,-162.98489399527827,-24.123696255077785,93.74962143873286,143.8215495620667,154.7383433688634,156.65465693542933,151.98255036170988,137.29012376894022,112.9095907518979,85.37798723079307,63.25853012936659,47.506100109852476,34.544887933486315,22.30984928868097,8.092175493500426,-11.139023920561561,-35.1456306612107,-60.941946023128054,-86.96963365528835,-112.09448379801336,-135.96429022416822,-166.0204187580354,-198.2746859644858,-187.36348005374316,-92.97473332324196,38.81183162757876,125.96302520276849,153.2377709732089,155.6602400082001,153.86827526313044,144.40980771395687,122.9098065811855,96.42067340407608,74.19660011048703,56.4155358909256,39.61008516858042,21.942444029889188,2.409851442364002,-17.64599075164479,-38.028101725361545,-61.66492403666811,-89.80816694261792,-118.32165090254445,-142.32143024907552,-170.04219421878074,-212.65098901923798,-238.4943822384484,-183.6740122696776,-51.1327169674243,72.07175554999239,129.89108397207815,145.23645333569237,155.15458781304818,162.8607225267187,155.48787217154475,131.44379992419672,100.35069862090498,72.7030204787989,54.311437473646684,42.18727547492255,27.85312715013854,9.00480087193871,-10.81568676522768,-31.634445083394215,-58.01356375385208,-88.60439431742337,-116.12372007791117,-139.89369341789637,-170.66471298496486,-207.35450976349338,-206.86143425617368,-122.8858710566389,8.991897138812575,105.61896359134597,141.96722393764094,149.62801156557634,153.78457379688754,153.65116190483607,139.99282161389138,113.67413076777258,85.47699082192362,63.52412723051879,48.10709254077996,35.65832666756045,19.778363203372194,-1.5462490198194558,-23.54432367265974,-46.50406908429176,-75.09242696288273,-106.39401452478663,-133.44024337713026,-159.16171980479564,-195.2991359505245,-228.29984592988725,-203.9548719311319,-98.51819125417153,26.83572213692014,104.21671533723617,133.69014782147664,144.93307899671714,149.7446467611712,145.98632172559934,129.13338689969464,101.20462930050246,74.0780684478415,56.04146918664929,43.42528650243862,31.267373346532658,16.43447188692122,-2.8967139328361258,-23.788941256601657,-44.732947508777215,-69.08049225666154,-96.87688724369116,-124.95324888061269,-156.6684034920047,-192.16004278976652,-198.33891747469397,-128.72541679913076,-4.1053790745700125,95.1545929257374,135.6107558485518,145.29144804317315,150.00361704704278,149.0532717049983,133.04941681900615,104.33494380198002,76.10016574638438,56.4132363252353,43.02342142029715,31.926710230835003,19.582617015193293,1.3460964237301323,-23.135079140119302,-50.80695684813572,-80.84116559163886,-111.07677103251743,-137.5670140716218,-167.0112361003146,-209.2086756825031,-237.96863087242755,-194.1217214678494,-71.02334973524401,52.199229474347845,116.4395027888571,139.21715941964484,151.95375318539496,159.4235200018526,154.65280779039148,134.49535851309534,106.01304245708559,80.71429620051386,62.318600163719076,46.92969513915049,32.154292412005205,16.477722038391583,-3.7241170513400053,-28.52787369696225,-55.03020360175189,-82.00180432278921,-108.6934817595237,-135.07607432369764,-167.63577924589976,-210.23354212329173,-233.6288089695317,-182.75151471626512,-54.95513263448404,70.9129287659763,135.70381001443778,156.43204618879383,164.6927621626511,166.2921681268359,156.00476003991932,132.9705680860349,105.15715147836843,80.90184971676983,61.73808129642513,46.37998383965164,32.540073824669015,16.31376725974942,-4.443225553218473,-28.718558166198594,-55.86178662261897,-84.55488242815994,-110.84720170236497,-132.85872579297435,-157.76504361538585,-196.93931487637582,-237.14197509066554,-223.80699504735065,-119.23281631423085,24.585759210192986,122.21685799267465,154.95723660697132,159.6770577216144,75.0,99.0,56.0
131.0956827981577,104.82970468683094,78.21647439883229,58.20390877826586,43.601936483621685,31.009951785104022,18.57385307727842,3.117449835841103,-17.695949600822757,-42.54013866825118,-68.44968727305356,-94.42732954190447,-118.94197311904713,-143.610417316341,-176.29597167538068,-202.335393050025,-168.52860054121078,-54.62989085122447,70.89759755042476,138.7266478681486,154.9629887083965,155.46072269884866,152.2891261249147,139.33482034936412,115.250972496087,89.36846881038537,68.78022839293237,51.5612366027656,34.664376661213915,16.47395591515203,-3.411540777558312,-23.40666224111146,-44.383483261601356,-69.40793398499443,-98.3155531967888,-125.70770534108716,-149.1691011521805,-181.04543940543044,-224.74296584432028,-232.9443423012065,-150.34170532960133,-10.471380194548846,95.62864875179457,136.62268900061926,147.83112451341543,158.2078635341259,162.6578038791717,149.94499557724873,122.6671564246261,91.63255389662605,66.3721625593004,50.54079662174846,38.559790849925704,22.746482883824566,3.237902024151284,-16.533902902894134,-38.55667066707509,-66.71627169481063,-97.14438325145427,-123.04845001910206,-147.54050651870637,-181.68685577496075,-213.85256317489677,-191.5650671624308,-85.85064491349654,43.26686469758017,121.39987781609683,145.49039676435817,150.817062714725,154.64665051203912,151.32981470506243,133.30349016052742,105.20478118254648,78.36520551535688,58.4991940705844,44.453853958169816,31.6939403310486,14.007283511781683,-8.005949022541015,-29.83913748500928,-54.11308237994686,-84.21482243740506,-114.8018400349115,-140.4898992009978,-168.24922350310518,-207.0558697426191,-229.70142814935318,-180.52107779185243,-60.39755160344206,55.437756797476965,116.2563173669033,137.8597741291858,146.9471078955291,149.76271615215202,142.58109485472903,121.80811889354572,92.68581515330212,67.92450371464452,52.13303463933139,39.99605259216108,27.407411448322993,11.262641613712209,-8.957092488409453,-29.724648505928126,-51.28885196746087,-76.91536921645113,-104.99626186364247,-133.41147492074938,-167.1820578656134,-199.38747073948002,-186.9735028303664,-95.05672988742775,30.27710471425489,112.26504914932184,139.92905566933823,146.7603777588358,150.79468037873016,146.1822330474871,125.56377297762093,95.53899806644823,69.50129672057844,52.109335093885,39.71126835911336,28.701617797150167,15.060104608962147,-5.221470370380809,-30.89246213556738,-59.24792980899302,-89.7771617026741,-119.12801178199145,-145.10556232401296,-178.04709012534343,-221.3855087287135,-234.93866438822073,-164.27517801295193,-31.31851765094232,77.18493354327614,125.48307304212845,143.24908891291204,154.9257268167932,159.596468093842,150.30244995289132,126.57729106321077,97.99564454387539,74.80096317087542,57.750707826380584,42.61693478830013,27.87032833649597,11.222714983381838,-10.548882948114803,-36.10505087551228,-62.79296468134601,-89.79614092904548,-116.22957012492165,-143.38762606371264,-179.34214613163354,-221.37814179368704,-228.4729323136574,-151.26957549221416,-14.309086631552407,96.30264243406303,144.43480703387084,159.3848838157495,166.0521126948872,164.7370117849692,150.45418754558457,124.94605242532371,97.6010500439612,74.8866706247297,56.98232577099455,42.373329635597,28.271565570717573,10.767384775260837,-11.153314137784905,-36.27010210224823,-64.13802842116162,-92.58173198345285,-117.54822895424486,-139.17127124039607,-167.4121907331067,-210.21859615973216,-241.66631871482866,-202.50692027269923,-77.43740964761339,60.024710288275976,137.15714754564576,157.37237432858086,160.64034219921382,165.6273030626369,163.62070979279193,143.54305461252966,111.25712209880427,82.53255745106493,64.03975918677544,51.169537436583,37.846026779348435,21.711655498202038,1.658233548964808,-22.733577452692312,-48.579587470758376,-75.76241080305168,-105.50875367101982,-132.43735673977991,-153.92884420332368,-182.49020803953147,-223.47192581152493,-236.51773256445696,-163.07128237987516,-22.906144403665714,93.93349443843832,144.19659284403352,156.75310575123106,163.15522019493804,163.9058443220885,150.18643298069165,124.12306686504088,97.54547461641727,76.98711317126373,59.66275531579778,43.812768028443536,30.32883980594799,17.236403922029027,-0.8034597436605941,-26.601732585844186,-57.577653149930356,-88.23046074988125,-114.35546297161562,-137.14359781530882,-165.82999198868336,-205.596541021404,-224.02725298686863,-164.33982235800372,-33.301173000843924,85.55671323200215,141.31526016988923,154.4168318615578,155.90230154653375,151.9381449252346,136.85156087771284,110.19949177105947,82.1400846636395,62.89099215277161,49.57479706480096,35.97922421757804,21.45644426013023,5.4308629932932355,-12.811224796816614,-33.9743855834438,-62.27282436945257,-96.85630603504356,75.0,99.0,56.0
-215.68351520167246,-168.55227065537352,-46.76792478726365,72.68479261301779,132.41731461453148,147.62380355300056,152.04539333470004,154.9161712550969,147.68230358132112,125.72439822278935,96.88943059514177,71.8843327461568,53.97430056986253,40.93281885559601,27.25941436988029,7.838992032821989,-14.381635353316975,-36.329148444821996,-62.28778825005962,-93.37978163069387,-122.70557014432096,-147.6579763273242,-178.5306724828389,-217.74942204067264,-224.67590642070076,-150.54001763627514,-22.87241261702619,78.90823903248723,125.00301359536655,141.15585073280212,148.49032697104363,148.94870443742397,137.97672422346216,113.71789100463926,84.60042025013858,62.60097705254824,48.49950239126432,36.531662832645935,23.23527557794861,5.710023128520185,-15.027341209491155,-35.69735744513507,-58.23063958468773,-84.96760009368676,-113.06572373874867,-142.37672701174063,-177.86857893342847,-202.89641158907074,-168.30048927708603,-58.34204468641937,60.461345462469446,124.53603221599573,142.6698962905145,148.17151874356233,150.86515782103803,141.86308115188243,117.2380312538061,87.15362221428744,63.683734735309486,48.20964175493917,36.51868083247127,25.267385069684376,9.935682797453175,-12.248778166672347,-38.84536049126645,-67.89985001652201,-98.6223572528709,-126.78290465541993,-153.24058743765912,-190.29432737099268,-231.25683795329184,-224.2778425656442,-128.67314971664217,5.874317077731066,96.64039968923424,132.0889553718773,146.96677267637446,157.335464788402,158.55977140628053,144.66797506316698,118.24807482837764,90.5057232411357,69.43654506641222,53.30859485976487,38.34754853523288,23.44293876211722,5.496328564021926,-17.695257900232548,-43.75855334855979,-70.58720787068938,-97.53681330233191,-123.75804112506424,-152.48343062732144,-191.85527437800118,-229.73701998959146,-215.70631550982947,-114.27237189642648,23.685568976688877,115.96847631959245,150.50018285075717,161.8368518753112,166.76095624522682,162.05312527830324,143.8999943994974,116.79856894613714,90.48071981239919,69.27598146196381,52.509301333484245,38.42456527609873,23.691630720648874,4.835784803623489,-18.11699170275851,-44.0664945637857,-72.47929711301684,-100.29487662388517,-123.89091935414343,-146.02304744378105,-178.5141787658213,-222.85560471044977,-239.99858747880552,-173.2950497952266,-34.642925085450265,89.80740455620183,147.11057613551478,158.56700464151837,161.94637388797614,166.45409555415904,159.79275397357455,134.77426288426153,102.01334897669156,76.21145408897185,60.05927131845551,47.547126458065435,33.500742534077624,16.397854630406385,-5.033957975700357,-30.16872973229772,-56.17313283791646,-84.19541429162777,-113.92290752680881,-138.9233375195154,-160.69456325106674,-193.7800944582222,-233.13821768620807,-225.48209524273918,-125.80063800094132,16.88162394520669,114.88685002654651,149.75253404749316,158.70641288873034,164.4271460282711,161.61118063920526,143.47738100074898,115.97901615970069,91.01370043467124,71.8212629045417,54.893640128173715,39.66740797569362,26.718330613064246,12.756448200376473,-7.479487855602487,-35.24405791980588,-66.7130961921303,-96.32713215281542,-121.02846368351939,-144.26658504549906,-176.63986298346887,-215.76955817519135,-216.49254189964518,-130.82073961020058,6.106480647191759,108.20606588637192,147.74284662390937,155.3030213697669,155.54168303476098,148.9286809746596,130.0770970631364,101.61105651334928,75.54841421544138,58.80135459410442,45.78385360811823,31.856549339114046,17.050026152478733,0.3690898929180192,-18.48959060448456,-41.23637950281086,-71.98407750649636,-106.50102859314941,-133.9000357961534,-158.05139003173596,-194.66640708928895,-224.48184573212492,-185.71549259082252,-64.14133738459186,61.30357049989138,125.24031801162333,142.71460355693085,149.32284351743365,153.98967417048078,149.43027734557452,130.01375126821813,100.22205399201131,71.59078033975733,49.96149263267554,35.61704324159957,27.679300806559002,18.38597632513551,-1.8481234784800282,-29.924562742132817,-56.84401244742367,-82.63306650499156,-110.43805228195855,-135.86251570826641,-158.91614867397558,-192.33141718883942,-226.86658557786393,-206.98679652029614,-100.40794233472823,31.854028963476587,114.23381900667587,145.22800883103457,157.43882896982302,164.0556942774163,163.26408491362037,152.20316580300556,128.67180955353993,98.00162280995,73.12210787388919,58.00548147192255,45.518075721017276,31.212110543791816,14.355211276071362,-6.574126312992105,-31.336710288078713,-58.773111438030426,-87.7813077386769,-115.45369089152831,-138.84594925270795,-162.34444594503805,-198.80359626996653,-236.2733601682855,-216.90100041062914,-107.3059369416499,30.875194892725276,116.49821887261041,143.40862990788838,149.50992017549066,154.64928208613156,155.1761981845134,143.7952128459027,75.0,99.0,56.0
4.193291465864578,-19.634712330949757,-46.98658106024005,-76.73009443893243,-107.22688539915956,-134.1755451712069,-162.37692933512827,-203.24454582121535,-237.10593094818503,-205.4738087220611,-89.54740150532332,38.785428934737894,111.15647260800976,137.18077151291044,150.4464141961509,158.97924625390345,156.20111103188802,137.91743015436452,109.83558413484043,83.65176450286395,64.49364166132213,48.9322718605261,34.10893223163806,18.756716908725792,-0.7104611038272416,-25.071954788559786,-51.46372157575027,-78.39983446757327,-105.19436148852077,-131.42960284050142,-162.5969850907172,-204.56449533179773,-233.7109877178696,-194.93856114430557,-73.96400826286335,57.25199414336714,130.49008625061256,154.8238828528078,163.88993348717514,166.65653930650575,158.18570364796187,136.55299090789617,108.76798820887852,83.82020942611614,64.03715748721062,48.27089181172276,34.429409776490886,18.734815220477792,-1.443349749142852,-25.318598628961286,-52.09394480308907,-80.7763738046456,-107.6159657886223,-130.03086296082435,-153.78559795417544,-190.91184127083216,-233.423102053405,-230.80937486487647,-137.456455782851,6.65726711027421,113.40612888238633,153.16078887752286,159.3236254441327,163.49703862185413,166.30331779245432,154.28846082079545,125.33222010974114,93.45147172817008,70.75382569563118,56.37110895984241,43.7643230504536,28.907645643885203,10.710094511166355,-12.062767276375059,-37.632643621368715,-63.943711127501416,-92.83512087069637,-121.88580462145868,-145.01190496657492,-168.52383969676222,-205.99076908862298,-238.89033949973353,-205.98415177396566,-84.6372400549217,52.34618609498754,130.1639919957189,153.31169381732985,160.60476560127032,164.97519592317843,157.93941322491509,135.9366387856324,108.12387693581675,85.01525878692452,66.80851496685425,50.25875773898956,35.74404035060707,23.041069772942468,7.720247270387807,-14.819746848576935,-44.2066543085725,-75.67828567929264,-103.9719297074063,-127.51579872783141,-152.207292034473,-188.3619636092584,-222.82877099411127,-201.0751940726046,-92.59639886114113,42.08390877601049,125.20419320924364,151.60190787014497,155.76538356572254,154.63272888367337,144.84079000559046,122.42014108499784,93.26126155381398,69.84411898359826,54.99913589296171,41.87592763751284,27.682277145861757,12.47368993958004,-4.867137004820109,-24.458232979894593,-49.233111517707904,-82.07941408301821,-115.4345610825841,-140.4470918484591,-167.08287609805535,-206.37623550601288,-222.86265088116053,-156.8921033845988,-23.933242545928728,86.71252923244853,133.17665086942742,144.79621928803263,151.09059021619993,153.99308338252084,145.38574870394106,121.97907143674801,91.39036967810951,64.58343157147644,45.05756861055703,32.83024808095569,25.674665196070794,13.821160134555425,-9.615237426289097,-38.03661672998682,-64.18293222901342,-90.5151759230274,-118.30737829822354,-142.32345767051856,-167.03459900430414,-203.95937585050325,-229.59112149016906,-184.10336332845736,-60.52990041182983,62.32368862424074,126.9636843481787,149.60610414777204,159.9078719665069,164.7259567097839,161.25491160731664,146.6765680607899,120.00292377020355,89.73279248204626,67.98158689794874,54.45631926068947,41.60815676403819,26.662637457062242,8.77183495377298,-13.401695366333136,-39.01738914717429,-67.0847521163378,-96.07894621578352,-122.69338956508813,-145.08153600229963,-171.1768290530384,-211.4194782947824,-239.45721131855922,-193.54170985781607,-65.87167006054192,62.8967925285653,128.75617338308732,145.82277219921747,150.98647450338882,155.67450770758632,153.28912904256595,138.0300157562757,112.26328125634375,85.47069280199787,66.40982021078412,55.71340121639203,46.17891426838388,33.08543999360253,16.669869235248424,-5.099218404676682,-35.03494839103809,-69.84032961370201,-101.33567976742694,-124.99122243122198,-142.68456571625964,-165.620895940711,-205.09761195234177,-234.80145793839267,-192.85684382347134,-68.57619040246534,60.60092853922011,128.05952105705697,145.18150861414742,148.775329932903,150.91109795446715,144.34299456780175,121.88404320488176,91.43738378956888,69.63753821126649,58.7931024038782,49.105721716378746,35.56942664358349,19.649667915007385,2.4001113807458427,-16.79506667557434,-40.025252653209584,-68.7381393395226,-98.55093664270682,-121.57789209104224,-143.04257823823136,-178.98392038427858,-210.01894426588547,-175.3689977691251,-61.30523899130215,59.07167317644705,123.37466061510307,143.75531003957468,153.6688256834183,158.825931717989,150.79560002852892,129.3028883176125,101.87751678477899,75.30671696370186,55.09164016380008,43.64767341330033,34.56268015550156,18.546561315547233,-5.099716415969456,-30.3499100479801,-55.62570472241903,-84.41389603865973,-114.32025098833957,-138.6209780167416,-161.26865810042736,75.0,99.0,56.0
160.15540908964235,165.02779961010074,164.8237628899463,147.23995769199786,115.6679103484832,85.76111686926082,66.02285175978272,52.80931735830906,39.76773523924394,24.049764779996313,4.611052486115774,-19.331285238325673,-45.114346402623475,-71.96690538694642,-101.53355374465131,-129.2541120734608,-151.04481563543328,-177.74019309386603,-218.20274602366635,-238.89779931785336,-178.29581014289246,-42.187936400477234,82.21734991153657,140.65926550967833,155.78879030826704,162.4082489839835,164.5184992857938,152.91983262455207,127.89897811415372,100.7524662391562,79.44544482705963,61.89681919321351,45.79939064102036,32.00783749554245,19.147100386255588,2.0429890787493052,-22.762405081734446,-53.34541916610156,-84.35454495021061,-111.17172378899775,-134.04248119975875,-161.24749540262883,-200.30637922966545,-225.0666955419421,-177.6560394738278,-52.06266676826875,73.13940913900593,137.20853166077856,153.78078718673837,155.9309993468097,152.99046835121746,139.6281563279694,114.13855262196044,85.47356070304069,64.93498302016128,51.291650159985196,37.85943270211414,23.442881908714973,7.699925388483246,-10.264963928526713,-30.846779826418068,-57.99323607320296,-92.24363889113879,-123.51168217444784,-147.0771253044951,-177.54024461205915,-216.44057749279938,-213.77275050458502,-121.84293003932498,13.966947228201413,106.2116102089609,138.27183047171854,146.65038900807727,152.62656465421972,153.00218044654636,140.02007193120656,113.3182404579047,82.94335559775797,58.20045739508369,40.76495664961527,30.536819929854015,23.262844770906458,8.171646607527284,-17.79853556944741,-45.869430184658064,-71.55116201272911,-98.59064838846028,-125.78238159760835,-148.74370490603965,-176.43048321752926,-214.99233683195092,-225.99316583506473,-153.96480948018723,-20.93439119387188,87.33149282990772,136.15459221979273,153.14970394681689,161.96677394883787,164.69353305733597,158.32167604670715,140.06367022392172,110.9941642160497,82.28420267368827,63.57940321484484,50.912957351924845,37.514165272310485,21.878519419835847,2.8067036470829443,-20.511438028755972,-46.90591881932973,-75.48929190494238,-104.17498032364352,-129.50979505581364,-151.5644940162798,-181.45689606439836,-223.35606801364295,-236.07528163075648,-162.60934079513768,-24.523067762627004,89.03542326034626,136.82336542384223,147.46650752348987,152.54051388702518,156.09046866378978,150.2710197295586,131.33372971868278,104.14310670061019,78.95082966062184,62.68845041681401,53.19714997560685,42.771045794964536,28.699134062957206,11.099728289583105,-12.893118865557511,-44.93904376712156,-79.59868504504571,-109.02218369240552,-130.43138968441272,-148.0298375393818,-175.4256739087823,-217.26518441910517,-232.36912838661985,-163.1910991950017,-27.476019674261835,87.25638120611455,136.34377073463307,146.50569009142106,149.67621021835237,150.3824276739274,139.50025423209178,113.12243321512672,83.74965461079371,65.75598551256573,56.276287518153254,45.582177956477736,31.120911754363892,14.811579186113415,-2.889025295353286,-22.96799304906165,-47.80861009868139,-77.61676041234372,-106.0884546116554,-127.15041861827459,-151.67654584373403,-190.8482432255743,-209.19258958439414,-148.5133038243738,-23.121967088600737,84.12769834901803,132.00442743232088,146.85503468300058,156.0267123615352,158.10728375906126,145.69430425506727,121.63437686168942,93.86940135997173,68.5841509241779,50.986127150136205,41.25798140662861,30.89436080440551,12.264206917213356,-12.464738222286346,-37.50384242056742,-63.50284204498703,-93.27041602154868,-122.06785078798427,-144.7170332009735,-169.807103964447,-210.3326979697872,-244.0997877435849,-210.72430225747712,-93.59149071113166,35.83312470115104,112.3894778955706,143.02699230291148,156.92616997943426,162.90961540075057,158.21292257846383,142.86238934763202,119.88064485711615,93.57812596246653,70.23388213197042,53.328503063241534,41.67397892051342,30.978055693320744,16.0026484591242,-5.078512916250561,-31.539309844599874,-62.049967992486344,-93.21839115597682,-120.6194562521057,-144.3136896115049,-174.90179494763024,-216.77815601035573,-230.60150674349808,-159.10340079839602,-23.47005294089809,86.15174818495478,133.38206465534964,149.96451347262985,160.19001787980574,161.83703452234596,149.4301447971767,126.27081764269639,101.5099984581161,80.8149847649155,62.3582618406671,45.23222837506841,32.20470595309229,21.761590506648698,6.214775269295493,-20.255351517385982,-52.61633039039059,-82.47658648730334,-108.5888234516982,-131.63822402126797,-154.37203952734947,-186.54217253769502,-224.20448218527454,-221.319627791875,-132.21172782023115,3.765421538663721,100.32224496950981,133.31329346520388,137.6586621955426,141.9955471466743,146.0901738403734,135.95496496681426,107.9615362121486,77.13333607490738,75.0,99.0,56.0
-102.12835311461725,-130.77014660188144,-154.34406796986198,-189.13525325555437,-223.08492492134462,-196.46385227312499,-82.78295296185333,47.60224560627009,120.31168046521142,141.56451375848016,148.4798665831257,153.7085374650367,150.849198301487,133.4219909985951,104.36176933083344,75.03344440050918,52.42393767993676,37.09817623057897,28.556162814632554,20.136989987995626,1.5125099168542993,-26.11384968205261,-53.4283620795798,-79.082198736322,-106.72209843402459,-132.7836990697604,-155.5349643713749,-187.0897201409524,-223.93056223762295,-214.84563356728654,-118.19255167152092,16.121992960940236,106.90226557495507,142.78771672453325,156.17597370875032,163.52915258663887,163.90092928044245,154.38024298691855,132.46022900332983,102.0218859303492,75.79054348479656,59.690587373787864,47.25848459396275,33.242382902760745,16.80593133428256,-3.5330856173857734,-27.868323393908,-54.98834945719082,-83.91386420233358,-111.97781012161643,-135.95721308216062,-158.70982470896752,-193.09752486478837,-233.05153790833705,-224.87804464097297,-125.71493968113637,14.340973291442658,109.14690411027533,141.82952345785816,148.8637877726216,154.03591826023617,155.68660623270887,146.09858165175788,123.90690656132466,96.21511300870469,73.24059152954624,59.58148712905117,50.550580859611145,39.039917842115266,24.04872678826662,4.990940724145133,-21.41795910873236,-55.079687179294844,-88.87723145299374,-116.0030640486942,-135.4755943128541,-154.21320208919366,-186.79850500510304,-227.39183822647345,-222.31444463478525,-127.38670389107686,11.482223853764618,107.87516815196108,141.40157770109388,147.4657849300321,150.45300340673225,148.85333158477698,133.22907353988384,104.08981219787485,77.162563464042,62.62702426010909,53.59278816073742,41.71430846276641,26.536702530557914,9.861628398772389,-8.361144961881553,-29.55155227317528,-56.056682215875576,-86.40194004378448,-112.86566951407069,-132.9614303319613,-161.90523012612113,-201.2191874365465,-201.19158306220803,-115.68432731681953,13.165421076099781,103.69653236491094,137.928082417372,149.7192784377168,157.81367722488784,156.09139050597025,139.58859727786535,113.67983286386567,86.06498403149384,62.534287104048914,47.610445982908125,38.808355435669725,26.45597660056246,5.4450457300744155,-19.79823183517895,-44.71553624219821,-71.76421374787019,-102.05751822914927,-129.19316399986778,-150.9484726106306,-179.8884312394894,-223.157620842152,-243.8388581156249,-183.60615201533685,-53.33641453432765,64.2825163151291,124.4636770072972,147.9420404743479,159.54979419943626,162.7512481018725,154.75378274631385,136.8594665682412,112.35978985834922,86.27338204699883,64.67227894280775,49.5555410309647,38.741421179800355,27.255259199616003,10.523597567049103,-12.214482613945487,-40.034944083102495,-71.19805249729309,-101.67261905059529,-127.58558136631059,-151.79350740459145,-186.53098391147373,-226.6271787164521,-219.95303226823336,-122.79939350862884,14.345527968851632,105.41706526069301,139.6155543719529,153.3521532370508,161.9121186587822,159.72835159218823,143.48367119876318,118.87574636727328,95.09377444715595,75.39806529017008,57.162891214521544,40.97023990977815,29.183526337961936,18.188850288858205,-0.3040917985327442,-29.460876571824897,-61.6857657484983,-90.34800224940781,-115.55877990239811,-137.90700199552055,-162.2718197847192,-198.04748382500168,-230.41642858901025,-204.69139743606056,-93.6910761674369,38.48955382828702,115.34411291492988,135.70399233420022,138.43203046290574,143.7714746301118,145.16568795012012,129.30945032314852,98.46123977171652,70.15314099885312,54.28927126447946,45.322630694764094,36.111400612484175,24.20618656589012,8.960314323598276,-10.52292859021688,-34.564121566959365,-62.70832713432135,-92.631739187872,-119.32438533695773,-147.18673997386978,-184.5755653011635,-203.79560596491703,-148.83724244587884,-27.101344946594104,79.24610746449189,123.86585876560497,132.96704372609102,139.6490236780044,144.87229341538523,134.62703154892446,107.29264013371785,77.59905418275406,56.60167522939312,42.245507664843686,29.447795165312975,15.394601277286704,-0.3698964667137837,-16.806077425312413,-37.73914904044682,-67.93286406502128,-100.94047434796192,-126.26446853530247,-152.33498665797873,-193.25513522279476,-222.33886894437535,-180.15049246974513,-63.80531443782177,49.4772155841778,107.6992205249425,127.93070271281914,136.8295798698549,140.18291008853978,135.33254583163827,120.32036859173745,96.66002185992686,72.47744545487569,55.236347474499865,42.962968843189316,28.31783308573244,9.451954358095758,-9.553673247108348,-28.529624577156138,-52.51029679065143,-81.56261845572995,-108.69951341029373,-135.76543713014598,-174.2624100465276,-209.11299098084456,-186.33204421233356,-84.65863348269372,32.67048911040757,75.0,99.0,56.0
140.81364497389058,115.99719870059282,88.7222534042628,68.3759029818965,56.88365349028858,47.634572943802205,35.02388056654675,19.084971130497397,-1.7537939219674101,-30.60843827101958,-65.22448982398917,-97.55709362612623,-122.30084085070806,-140.37859887480246,-161.6644456253571,-199.24525538742694,-233.68802130799276,-204.02995681215214,-87.58339413105841,46.31903176358522,122.8429151411614,144.3077075645081,148.35722022085963,150.89307553764746,146.08547121015079,125.69742200886454,95.28894070158753,71.75346155293771,59.95363161882844,50.605110812324355,37.56115538589007,21.84569871736,4.786375842240642,-14.06716265717278,-36.60515400800516,-64.6775603473939,-94.8422048634021,-118.94598501354042,-139.57704583979495,-173.43217571672196,-208.33759660507368,-185.3259219015734,-78.92129565535241,45.69944233525508,118.1859066203526,142.15054714139285,152.4642217518806,158.74986930818403,152.75835170376573,132.6898928993016,105.60314312120408,78.5973428398287,57.253570257492726,44.80783850348566,36.02475908136531,21.217850102883535,-1.7262965052575217,-27.040416429022905,-52.1159693440183,-80.36555525801106,-110.55524248549266,-135.7457282572125,-157.78225163939558,-191.50746165020405,-234.32720456002,-236.2871447540841,-150.03345298638652,-14.500125878411643,87.42638616370454,133.50767439894236,152.0386765756562,161.50043414904914,161.6174004141408,150.46224745274125,130.29405049369504,104.69148532323945,79.37836437322089,59.67730774389851,46.16191522810386,35.75211754823698,23.061655490095934,4.53529536598011,-19.775703899625945,-48.83072719149348,-80.28875361097145,-109.70703270589063,-134.31730779369883,-160.24347883745867,-199.00146905914508,-232.57963835884553,-200.97112359056044,-82.86101787090203,47.64569204962883,119.61190768873064,144.36343670966681,156.45095653270667,162.70321910784688,156.37952450559757,136.81116308035004,111.59734655293714,89.06902380946254,70.068551234235,52.11945607991211,37.12506745011803,26.265748407316842,13.958277592591719,-7.807788393040435,-38.90608464987968,-70.39824494549204,-97.94444639551108,-122.26332219531497,-144.27883732560153,-171.27909700527482,-209.62049093328068,-231.62353498649756,-180.17623323393968,-53.322710798307945,67.96219250857621,125.39110259339036,136.80032090995732,139.61182860968998,145.2659948447922,142.67983437396106,121.28734149862949,89.24092711371516,64.33658241345502,51.395308094944205,42.86650179007214,32.98171296438113,20.176893313557375,3.80736919551713,-17.022372160412,-42.296196504275116,-71.40473672679889,-100.77814601058664,-126.69026225875322,-157.1958502234618,-194.56616418643475,-197.20822204691692,-117.52486268518388,8.872609399622524,98.26787844826447,128.1970098581276,134.49828425596422,141.92652715443492,143.9669624012172,128.02159419978912,98.20208209560846,70.53992263781109,52.03517127257471,38.54605387496862,25.59810608240344,10.94950635247783,-5.0135728804767625,-22.08019661373775,-45.523616261407575,-77.77972953404897,-109.15719152121603,-132.80528467861035,-162.7161115788255,-205.46207362260495,-219.51556521888074,-151.61051375388465,-26.983406670710856,72.12942339641911,115.91095909468828,131.06541072964777,138.4651132789336,139.73710211818351,132.0837324028197,114.12391441165967,89.27802663163534,66.66595329127135,51.50319397989585,39.232387500873884,23.152064710926762,3.822677973582284,-14.853111853792791,-34.74737076185556,-60.6501222244087,-89.84673227122359,-115.99707359197316,-145.49040273738856,-186.65262851889827,-210.91613179313185,-163.62273738856078,-48.422971604706746,58.41021369277487,110.01977263210928,126.52801326659316,136.88722295801517,144.89257121886146,141.18097252996694,121.99622051562545,93.96703984394794,68.1363405981496,49.83088911376078,36.39676587718593,23.874460062021534,10.109336780265076,-7.303166711358728,-30.629518657777933,-59.47165360149923,-88.80060190703549,-112.69132919113598,-134.6378158076018,-169.11428834741344,-210.59236512042438,-208.8023970666891,-123.53536442608002,0.09061565031381169,83.97036246823026,114.71820294667232,125.16132289385169,134.0466131684196,139.0248443924766,130.85939886445738,105.88113676257251,76.87968871312856,58.728724846236,48.14816550573713,35.7820998976145,22.17580281773305,10.412423119677227,-3.9734495736692694,-27.443445931020698,-59.09670362647257,-90.0331891157321,-114.26418824543079,-140.55841381905853,-177.95988182017982,-198.91385834072474,-150.85451905402465,-40.19494332035936,57.80828294206512,101.94169217564824,115.7252063709143,124.03419688391095,126.72594653710567,118.66995238202504,98.6064768945913,73.82025015340699,56.16232744661795,45.75312079100426,35.9414305209781,24.33635748986774,9.772445150609018,-9.431543080055079,-33.407992154447115,-61.27013218724546,75.0,99.0,56.0
-165.6904665641589,-204.27375090021567,-242.13060165473215,-220.66802313758458,-111.98555244910439,20.986084104576555,105.54753445795865,140.3846868662463,155.51515821069847,162.66614813723922,159.50584903328266,145.41908376996858,123.25527801776067,97.04665168536589,72.99127748617367,55.21762721554794,43.04842130756196,32.55744193466607,18.35209658755398,-1.9379411842560736,-27.73961246298749,-57.846801921832125,-89.20107904743088,-117.2799685520365,-141.0846082212422,-169.96080270519775,-211.42236644332715,-232.83868262122564,-173.95578360917992,-41.93989477000506,75.358487685552,129.7561279764279,148.3026520456682,159.1416308398388,162.38812800952073,151.86635283161573,129.6587701359563,104.60628495811477,83.36455653731646,64.78134287745104,47.328913724651464,33.678739875325626,23.24853370006011,8.87974284266688,-16.169346091343996,-48.333358106133666,-78.74421029338512,-105.28784365551368,-128.72316257705245,-151.03676825973332,-181.4780284402184,-220.12304856927165,-226.29769368665362,-148.65771437680664,-13.647592321517457,91.49511218525153,131.50519999785826,137.393917041,141.18419570970116,146.06776003132822,138.47559162516936,112.29670938442135,80.72999856708894,59.61131896705645,48.84040786096553,40.26784143245446,29.604371488629397,15.854270601961117,-1.726916411746269,-23.891998167571494,-50.369648424005234,-80.14385384005158,-108.52818272348844,-134.4378413117813,-168.13996855706782,-201.7801735786613,-183.06348706510707,-81.91382342020727,41.216627220763385,111.89512440082547,130.69057669070534,136.3650674384328,143.7866125563346,141.42658003998383,120.16036317023703,89.37630158021429,64.32861043092761,47.87564333687343,34.87920580053941,21.586950980192686,6.3881949269434175,-9.695659773702197,-27.901562833632834,-54.148358154889145,-87.54712079363473,-116.53960106119553,-139.8962965272397,-174.55389212565558,-215.43041531523554,-209.218822304676,-117.85586233432183,7.226487492225442,89.74076631984956,121.8412373618669,133.69561819818867,139.60125645762494,138.53803875117552,127.94491043706094,107.30116400958423,82.1113889831133,61.554767498329795,48.0266090513087,35.122736297812864,17.68786057515874,-1.7021336611280613,-20.225174322334922,-41.53082352105753,-69.10636259535886,-97.76685867554133,-123.5221625533986,-156.47136566708863,-197.89663947144282,-206.30178685892798,-134.62749965343224,-13.168206932219812,79.00512448718786,116.73938424750234,129.50808367780058,139.80715472056212,145.39675396783642,137.10956518369647,114.31281944293647,85.86411532533293,62.08225944353326,45.662272879668485,32.79879615895712,20.114204101646653,5.574420432699718,-13.377970208346337,-38.52762749730616,-68.21613975592513,-96.38412155407896,-118.6774545761829,-142.7720201819895,-181.84615922869526,-217.37354567199267,-192.55314918367665,-87.81191656155718,30.577167094479485,97.06717235304522,118.45648998209526,127.73376612711186,136.25914965990853,138.41649917796232,125.12625463031047,97.03433768681288,70.2962505667844,55.416256726221484,44.934788987340724,31.757367953489172,18.625892756093528,6.881481102700134,-9.679632562113753,-36.03313296627945,-68.57912803692088,-97.63130072320475,-120.95650385646958,-150.47273404455242,-188.14566840128913,-193.67686681340388,-122.55827499736426,-7.250563054072634,75.8354368608424,107.42743710285542,118.35269171976275,125.6858209504769,125.63456904733752,114.0137227779709,91.32995883568496,67.68893030556337,52.72803276017795,43.052632067921095,32.80032643598129,20.516226815325727,4.7438924113046275,-15.898687230793696,-41.1281187510758,-69.66558511813707,-97.30248779194103,-122.97673976552497,-155.52770711549698,-190.2844881795439,-184.83875766037607,-106.37390337263979,2.650889151574079,76.02500176452602,105.60061384955189,118.9833611323262,129.69401423648574,132.69620099684622,121.78067635049587,100.3827766888812,77.0335679094293,57.22248544709122,42.51721809158604,30.782364299410055,18.80893676087993,3.407206909628195,-18.07828509416184,-46.223249355308226,-76.83004740069605,-103.45300953228676,-128.73793193249836,-165.65669561586677,-207.2408677522258,-204.81132502984835,-122.72910144802148,-7.598724322926742,69.012928354408,101.332504213768,121.45701379984153,139.98292362945043,147.48674408538295,138.13992624633576,117.97678996804197,94.40555862706904,69.87399015867942,48.725392715743766,34.92331135061744,23.6891798822781,7.490081548799939,-13.983051773838016,-38.82914268558231,-68.11188838059279,-97.97100177720606,-122.36224529601702,-147.8452818187659,-186.09963051369874,-217.63066458509672,-187.60870944798373,-82.13244009474518,32.113864590702754,97.05115227416442,121.16166587866626,133.77448400634657,144.66058173623748,147.07810585665266,134.14689482306295,110.79355216125106,88.56208519765438,75.0,99.0,56.0
73.22730828905468,55.801022637088174,46.428924462190125,37.47414134503937,25.97062342621089,11.214049546633522,-7.656180191338582,-31.116195739229354,-58.75526174123233,-88.75264391867887,-115.95556140679196,-142.9356921078056,-179.4767994278385,-204.50393247641114,-161.27287425788725,-44.371523454519405,68.54446178016931,120.94225146515089,132.30909412032221,138.5704938224028,144.8010815997868,137.16034769479336,111.45852862153417,81.1391356967679,58.88721350457033,43.98279808059223,31.180333799276625,17.390765484670787,1.767627375884563,-14.506029903886027,-34.44414977227017,-63.4690913056,-96.87250920009122,-123.27481370777892,-148.07998656740892,-187.3173595537447,-221.40649682547382,-191.06674928617224,-81.09484299207463,37.2811626428416,102.90043053095654,126.2485800099395,135.93014176045082,140.1499698124818,136.53729586447614,122.9211938425423,100.06587578483028,75.38326601002211,57.10033914787386,44.59061942073107,30.567651729899424,12.062154635544088,-7.099500883764146,-25.82550315551889,-48.915119564211686,-77.65477732550454,-105.3128443522287,-131.68189193583507,-168.5071169041412,-206.49407872264118,-194.3741522191492,-101.07050644759248,19.159680344640886,94.64949709410497,121.48139256244134,132.4689937623148,142.3725807865589,144.67193234131918,131.76077292280453,106.14466254750884,78.21141404836614,56.691380555236464,41.778682156110975,29.20480686777025,16.206996484382273,0.6669669534266978,-19.9925436016915,-46.84050492520749,-76.82712166277557,-103.39132682042639,-124.735881230959,-152.38341905865497,-194.62330203240612,-218.86963426398125,-168.90735516217865,-50.98188130963116,56.12351717921482,106.25306367735062,121.38254786659148,130.3468448503387,137.9625575737534,136.45803592478998,118.02108163572969,88.34697707128649,64.85701132974765,52.453180804312645,41.41071663258471,27.75205110262344,15.258964935594582,2.934412190722669,-16.26453868063547,-45.19149754222104,-77.71850468259024,-104.63032056769208,-128.20678512033143,-161.4126458910741,-195.745436539119,-181.41239622611573,-90.20469314582978,22.49443682874016,89.19111537106086,111.35455041956132,120.83563566818759,126.6931641396947,123.56305156529385,108.34969895538539,83.97098138607505,62.399005036847754,49.740723874942596,40.2620251785781,29.49852732076171,16.405730896023755,-0.7079491406500342,-22.74731305687744,-49.152601488358506,-77.97368030927346,-104.6628945496011,-131.27110232083695,-166.54756238944225,-195.27454400048416,-169.3425825581971,-74.5194313975311,29.176874429406716,87.95695258497281,110.05097112725817,122.36652608642524,131.75012759853465,131.02586037164372,116.29297923734667,93.51374800884744,70.80180055409664,52.489568338030814,38.963039093224886,27.491705833517457,14.842288976464783,-2.0836927491968735,-25.60977386898801,-55.123666936180896,-85.10340941722649,-110.37557051893303,-137.7696862099187,-178.65906323578,-213.74466398058078,-188.88908604912572,-89.05821008694001,20.232295410900218,81.49738265325429,107.30819551983163,127.24372775789591,143.7645678709233,146.4365622978414,132.99589818696896,111.35633109204294,87.31246663377513,63.136284204397,44.008247017537364,31.818529065528953,19.69126942796483,1.6805686510101574,-20.78299974166277,-46.8395503215901,-77.04399369307274,-105.60999961336518,-128.94481647705726,-157.51934774511105,-198.04301745070885,-217.5346656575936,-163.06122381516465,-46.280105859906925,56.66471881373682,106.75198751102249,125.09710104165579,137.21710904913823,146.67574038183972,144.96208630783758,127.94945480378962,103.84908728720949,83.24365783621566,67.81256954549677,53.552613966883584,36.214393691704736,15.64318625236397,-4.3876122598448575,-23.505721357863315,-47.530451585320584,-79.66378684050542,-112.51437251777524,-136.2540330489795,-157.81950879438682,-192.5635789624545,-221.5235803361609,-185.2028263111801,-69.50627400332695,50.952677016491,113.6242000957869,132.63061772744103,142.92825558102288,149.94582571448714,143.38714129858815,120.15628881309337,88.55909106540612,63.04234850670869,48.7921229391241,40.20554248130862,31.223396911106985,18.356938653551392,0.7153892890444274,-22.554562705846447,-52.18498715743059,-82.95458760910216,-107.1439777018006,-128.61705153628571,-160.70445644276978,-196.89757119468314,-190.53557475634884,-104.17060958186335,18.1680094692972,100.07522428702516,128.05629089318626,134.59145852844858,139.4639646953315,139.3576955277554,124.91571206271722,95.81301913899023,64.92796559827508,44.57300710313465,33.68019600078616,24.782370683145903,12.954526758198012,-4.818382794118872,-31.74209263679706,-64.77121274902365,-93.36640880458512,-113.97414880742294,-136.9689625514482,-175.56608399291002,-216.89179542035478,-204.86015420715006,-105.31724726708697,21.763221970942258,75.0,99.0,56.0
47.1728386611671,105.9923124516967,125.07577929286094,135.4919746128478,144.29827550712687,142.60096964062805,125.29427531640263,97.79574867871214,71.16047237835032,51.88284353701953,38.071299386971184,25.57264701428638,12.093477740269943,-4.676946044856166,-27.151478614118446,-55.44720931588741,-85.12418293450916,-109.85595565476298,-131.30642643064323,-163.5275925171074,-206.14012785318604,-213.69545894158034,-138.97308776735778,-15.362449748269372,76.36939363699508,112.53007697433866,123.98668410734088,132.9172313212364,138.91175602611168,132.98794230670612,109.86989783796236,80.28548888388296,60.46355202592112,49.5399578851564,37.60531232585927,23.88771223096745,11.958801977144487,-1.6229046552855397,-23.725927892680037,-54.68335435085051,-86.30046799333275,-111.25027237808573,-136.39438612517287,-172.80951145510352,-199.16411056069285,-162.0246351830722,-55.975062296503474,47.80807598483598,98.63758505447623,114.44465031854618,123.10432773439747,126.91585488415454,120.45895375825164,101.8313642841372,76.896808354266,57.954441129523765,46.99095739286759,37.338504370107394,26.01398175540293,11.95322220637496,-6.5835872844733565,-29.962223619658328,-57.412005240599754,-86.05574779290751,-111.9344513131032,-140.45444249602713,-177.32483856589292,-195.47160005859445,-147.45981640218199,-42.009587678607296,51.44074231738833,96.73105662426158,113.86097673195522,125.5981079577281,132.93238715908777,128.105495547237,110.12555526012763,86.68101482551954,64.95961935934535,48.180801268938495,35.579036036361764,24.103033954806648,10.51516867270542,-8.143291377490884,-33.678204972702694,-64.07252453632418,-92.88974680547177,-117.4106849583314,-148.1456093761631,-191.4960371630049,-214.9754680128399,-166.02300834385926,-54.69201212680257,43.46702515551849,90.94457927043184,113.03296760843128,132.82200197910532,146.32183534685652,143.9578583820907,127.1965319884113,104.56890266600801,80.17046004007706,56.84183152823434,39.946622767968755,28.708127255113745,15.135514133471776,-4.486013083296843,-27.860524719416254,-55.259166138396814,-85.83096686125104,-112.6918856468444,-135.96044872661906,-168.49665757517423,-208.44928344542333,-210.7594630224084,-132.76604921480373,-11.933450373355656,76.33882077258608,113.82346466215601,128.68520962311072,140.516359042267,147.7245937235041,141.46911369046109,121.14417954315128,97.2726801072923,78.39000107840914,63.7846065286982,48.98418771472535,30.45644336758395,9.653821888326505,-9.82900090098869,-29.644579879811676,-56.094902724758185,-89.64298132846508,-120.4348469380003,-141.88795004078372,-166.29743919735358,-203.8199253653081,-220.19037368564574,-157.84452774083536,-31.063598658156934,75.6380289399485,121.73926982422307,135.6351327006504,145.7325398756851,149.8028353455694,138.23294011450844,111.25007379360122,80.03976313181204,57.9132923346645,46.04333870385025,37.85682163384964,27.984152965652054,13.757753641136073,-5.3514403232322865,-30.539942132837282,-61.367636372228645,-90.77003478509535,-113.04550117493413,-136.38455903347116,-172.1093886239842,-202.087987757552,-173.60458006691997,-68.66746597534707,48.11459737432422,112.50672251351921,130.73429675792306,136.0077016001199,140.3988695762698,136.94082544582193,117.6429850146655,86.33633293365591,57.753825549551166,40.77893676576065,31.19535372957918,21.798970807283997,8.583080296303041,-11.585551613843217,-41.075877618723915,-73.91250953312127,-99.91367548495835,-119.66976290428835,-146.262441257649,-189.0437371016326,-221.80917313493796,-184.21065969884452,-67.06258991645454,50.81552229844987,110.9803263568671,133.29204181523363,149.29494686626307,159.4330055656122,153.993987629021,133.55568239729217,107.36982286532891,83.06165650790123,61.97060413985858,46.107926738572196,34.90683075053,20.07474963453478,-3.502917511862665,-32.43676543467352,-61.92456060808971,-90.29686249159987,-116.98744773114447,-142.13283238893737,-172.0849985201034,-214.18590142827506,-241.95518158670941,-193.05304393148435,-61.56043285129146,64.83070630208127,125.04228749143414,143.98509734680624,157.06839465192843,165.59733689547807,160.25354401235708,138.31778235769553,106.92844300900923,78.68492111825859,61.003990555112175,50.55401006418648,38.277913455394625,20.014242881396953,0.09658640129404154,-20.644799724092945,-46.94243117795617,-78.69534195657255,-109.28623313338112,-134.48502387432595,-160.88462101662978,-199.6082517965721,-235.70362094126304,-215.34931088599524,-108.10597135665678,30.352175938332497,121.70659051245758,154.5582687172047,162.39586657511444,166.2656260765287,163.56114205794623,145.4443171816284,116.09685038665641,89.17750708202009,69.55882498082585,53.8300874810169,39.34638172383874,24.290952025275097,6.825804038675344,-14.163433118404786,75.0,99.0,56.0
-65.79654803783859,-93.8267318792142,-119.38931807786338,-150.58621649888127,-186.75825877118515,-189.71094368838106,-120.25973831820889,-10.821360060574055,69.24833563463224,103.18383199293939,117.39448565985259,128.51494894242515,133.04475173987282,124.01679766342836,103.51669726198061,80.01822792255754,59.557798923814616,44.235009482634524,32.28869091751011,20.535532377967506,5.760776332993531,-14.803438574251956,-42.18759798074965,-72.87362270445321,-100.20451132028876,-124.96461851608161,-159.87187668111892,-202.89137205352387,-209.67624237950997,-137.3882251817533,-21.780993545411032,61.9718310558036,98.35073454567066,118.78215425245664,137.89885752033467,147.464683470328,140.22216264296148,120.95646794174205,97.64173750676254,73.08361727530466,51.13317016683493,36.42023079007609,25.36321294309466,10.020915778156311,-10.93027008544324,-35.27778064060444,-64.00812112435246,-94.25583043680547,-119.35766167795214,-143.83024824862713,-180.4483590889321,-215.7574476526455,-196.61957648802428,-98.58940749523843,19.188612623789844,91.44685112852873,119.11572470883226,132.17319014968092,143.47700133699269,147.58641533188413,136.71066974282607,114.06364933214708,91.188286104504,73.90977772999261,59.738675508205034,44.06321781648083,24.49116588814275,3.814490045099291,-15.25488147951905,-36.38159000146832,-65.33554474453258,-99.38063662203567,-127.41326653496827,-147.75370390440654,-176.2103723075288,-213.5661391020142,-211.7183061256633,-124.5107128150111,5.294406193154524,94.72786556794657,127.22341313779803,138.57462929335563,148.0623752353974,148.27643664162332,131.71868771574538,101.96249844622993,72.38445961960227,53.69058574536456,43.584597104950575,35.35137135874735,24.362691134751373,8.7613472730491,-11.929807098439941,-39.05431963409357,-70.4306510640048,-97.87668656115837,-118.9917670514753,-145.39082488679605,-183.34393703573733,-202.17320667035986,-149.59283297323213,-32.20343627117494,73.09831456264943,120.92926026305041,132.52186582405696,137.47797185922104,140.6800487107646,133.11586406848738,109.27782681881243,77.13620811515449,51.65300213715007,37.61219997490922,28.697464206860587,18.492295039100398,3.6403771835719905,-19.19954109751093,-50.729619253698274,-82.39749523965807,-105.84710565764622,-125.93970498401359,-157.15212160024328,-202.0112570332207,-220.49179072971754,-156.1628079579063,-28.954664341074434,74.40220215028907,119.42949487798786,138.00370066571946,153.34395215408367,159.67773404055438,149.30938850802167,126.11510234610797,100.01699056180342,76.61301698107515,56.71843548608223,42.664729622280134,31.395510330464276,14.134427554833472,-11.57264255294579,-41.02917415182963,-70.25501135674182,-98.21847539856951,-124.30624032388465,-149.78905239155785,-183.16345632138157,-226.24241015940612,-238.04875738634692,-160.7967888114275,-20.07271807915137,89.1526837510651,132.60618891124435,147.75998736204994,160.46378030630532,165.76910506174795,155.4931381885552,129.682066611981,97.92884768110198,72.44316819428192,57.61417772522451,47.56974509755342,33.51840971105945,14.212437117619658,-5.6163363582434025,-27.51429486591922,-55.7787865651628,-87.98060938071083,-117.07334861664523,-141.39855603783576,-170.6519221039954,-212.15719915876477,-238.27740819966522,-192.4599719994258,-67.1891009452956,63.618432826734875,135.94675358628052,157.94785372455095,163.68496148394465,166.63810198677464,160.065268540901,137.5207411896632,107.58831723165818,82.86307330333568,64.77417353270762,49.59069295004747,35.14808632206878,19.549117541376745,1.1689063590634108,-21.009757234816284,-47.40997034959863,-77.54978633349373,-109.5346009246049,-136.91726464533463,-159.07289741594008,-192.0679883165426,-235.09337204495517,-233.76212008597207,-135.31959112990324,14.840234575890277,117.43967619897255,149.42060975806777,156.87871221710893,164.70445635497052,162.24443270966503,141.8410429455892,112.15646534301906,85.63607742556921,67.25032541677761,53.52487039180307,39.444124420283714,23.077391416233016,3.496086436937721,-18.871856450662868,-45.16823148127158,-76.46844685010645,-106.975083898197,-131.30888579379183,-158.1322084124699,-200.48797721959602,-232.6685506215524,-188.1796831066037,-55.926110491069835,76.84823223030838,140.5783367106215,153.90303901883325,156.83702863086666,159.13610786045157,150.65041837775559,125.62334999297376,93.43281077872336,65.8116462686654,44.58131840633334,27.185304287350867,10.220012196648863,-10.788945049599517,-36.91059683197604,-65.89669689048947,-94.73027551701898,-120.63460231925184,-149.2866533380666,-190.99543453213366,-223.48050728892775,-185.40417557088196,-63.49588239904826,62.63172571451058,125.99008531645597,140.04161177640725,143.17998481019805,146.25322076461578,139.43603610915196,115.35456442519661,75.0,99.0,56.0
85.6333897560316,69.69634015294146,55.55692174122266,38.771328930982015,18.434274562245655,-1.83950658014992,-20.83136521881767,-43.83587752429867,-75.07523479800837,-108.55157888111214,-133.5914363113203,-154.38000681163516,-187.26849075965967,-220.0947906243532,-195.38329432352617,-87.29490382905776,37.70086083035808,108.68428699540755,131.12478554426824,141.56104571262878,149.5925434753233,145.27399002235433,124.02761403606097,92.7053652254643,65.74729720039255,50.203919485741366,41.265080828627205,32.597396184617395,20.34396745384994,3.3543733873367523,-19.067411045270806,-47.979926919197986,-79.12757266900807,-104.33497578354391,-125.39688292216051,-155.63560642162676,-193.20947268737086,-195.8528015189363,-119.5702358083086,2.9510968495491654,92.75804956877005,126.31971271688906,133.95589781652126,138.88859942969876,140.03541016465587,127.83118745388151,100.15929901437026,68.57879726950145,46.59030745977896,34.86248292513347,26.066341632310476,14.802431822416787,-1.9749620866635378,-27.621056176692576,-60.39649317591545,-90.09320056511805,-111.42786852561312,-133.19240831572304,-169.50220306751552,-212.98172424509272,-211.6596204107266,-122.29243872564582,6.680850019961685,92.6035155150162,125.80724644253422,142.67342190109136,156.6293457978426,158.43871800864187,143.5108952493384,118.46949589635862,92.93220436027812,70.42400820760918,51.99883732350319,39.50782726911476,27.32695254007239,7.434613769460135,-19.94224500435685,-49.57892515768717,-78.48187509955247,-105.97845511466136,-131.51329672252064,-158.10800898717198,-195.3829557049935,-235.90654688466427,-226.04689789023686,-122.64144582284133,18.23093981151364,107.42906014585193,137.97639482165522,151.56871065770684,163.23069820361903,164.58690615166225,149.36508453638498,120.52954116434756,89.51097123230169,67.1657155934793,54.64628165079803,44.191888191558235,28.26460625234454,8.431942012669392,-11.48201129238254,-34.97082648048072,-64.98068573516514,-96.96838088715404,-124.37445090538188,-148.71059628610706,-181.69626898236186,-223.6980760439002,-234.49477186622067,-162.26071051713873,-25.91680351870853,91.41118242487266,145.8434651896045,160.15859148682674,164.88435256869963,166.21092567552486,155.10997050131172,128.94924564686136,99.61551754405767,77.12988690118105,60.21369452522614,45.41482665494192,30.851564612459633,14.570508740525403,-4.808166820213192,-28.215932788538808,-55.764217695032045,-86.79577534050215,-118.24854682582213,-143.38555428555821,-166.7003845238375,-204.86810804371058,-242.62766953724983,-215.57673083281466,-92.58778866707905,52.51449977035007,132.34303333410017,152.05252741918866,159.22979114185787,165.71901887071775,158.0542203058404,133.60248850965797,103.76081108663311,79.52004447646407,63.07574795713047,49.62376467414049,35.00313938753036,17.755649003897563,-2.7004608581849605,-25.93611066174843,-53.81522477154222,-85.74757478980787,-114.59367559589998,-138.0219676082932,-168.76903592005485,-213.5248540938789,-230.26538055688496,-156.43753573694931,-12.909572611451491,102.91951242269818,147.47511088911384,154.75863244346786,157.8623846425816,158.3112668774487,144.9619451011528,116.40226950609265,84.71680070475118,59.128257978414624,39.275174137521276,22.44669441157142,4.711672786735869,-17.887361981027972,-45.10282779596449,-74.41415124302003,-102.51084961019855,-128.0542194699588,-159.96845492017994,-203.72941573714206,-222.22693166520668,-156.54588251005472,-23.101525599938277,88.12982422488962,133.18444352959693,140.9484273508698,144.34641841649565,145.82700670463217,134.24576557725464,105.82212579457703,71.1155963461563,42.29821311514765,21.617922088402764,6.850046525992383,-4.836022832829359,-20.57752534122032,-46.469964881589085,-76.98659866465347,-104.92437397759886,-138.5938312505896,-183.2817318019257,-201.23677331019044,-137.88958094174515,-12.6128140726532,88.52978050012472,127.55803694587821,136.23539699792394,141.2311593439683,136.4490360705609,114.20252094254079,81.59305464361901,49.47568246374358,24.333204056329794,8.434109487128907,-0.7073036350980415,-12.43941053251878,-32.999232857393196,-59.111993336874015,-85.58484639681475,-112.39304999915929,-147.15979456670334,-187.8707072229035,-190.31070693160092,-108.6193845201639,18.05770328792797,106.58255522330809,137.3690507508551,143.47758380190544,146.66422074214822,142.62551927200235,121.9657872973772,89.70461003634958,59.61042680796967,35.86659298902571,14.593067556710162,-4.174612634592323,-21.691663475904488,-43.79002719344643,-71.27480371430231,-98.21401108122762,-122.60016105843619,-155.31427330350326,-202.62496385978943,-224.33975200012011,-158.41904619941417,-23.263348792231564,86.72940780089168,131.22463629909316,144.16343447028174,152.68251210125848,154.05010011715063,142.13909806523685,75.0,99.0,56.0
38.07877992695652,106.08224250187763,131.05639550882412,147.26240680572278,158.8428472862271,155.72134870923043,136.84555155347834,110.8380269045984,86.11751473014182,64.54923145841934,47.84363254415209,36.39786541876255,22.54434922204665,0.07492226233860849,-28.477000712667923,-58.05033294630203,-86.5970841206089,-113.55656194067794,-138.73935156712105,-167.40238518845857,-208.26350750547718,-241.36678313155778,-205.40481923114032,-81.08728404450979,51.501115074256404,120.4715228071668,142.20506374473968,155.37134392673835,165.1008751564423,161.96041429636318,142.03685025744315,111.19782011463882,81.88997540591774,62.77174183881304,51.85291435618077,40.27955363444173,22.66475045058236,2.717472289532295,-17.654777454647636,-43.03305677988805,-74.36406127566548,-105.51726959455766,-131.3306439871883,-156.79983593675996,-193.8070060581958,-232.78721120782478,-223.22976708956003,-126.17751861217924,13.414708047634367,113.43408268588097,152.39185389827497,161.75835624501119,165.90717773581022,164.6944769695714,148.7741316578551,120.1351324053626,92.31079283650861,71.86229957534599,55.81586051740416,41.26396506058815,26.404424175754848,9.333500672093813,-11.129023273663812,-35.77192176241238,-64.41780893358481,-96.12581661696503,-126.35459981696782,-149.564857300929,-175.79069084448403,-218.06258425751784,-244.552247942401,-188.50689947606858,-47.90781927682315,83.95110153466865,141.9469419991113,153.9753556223473,161.69815631903037,165.443658292322,152.35799574185447,124.92584177843263,95.89745226720918,74.10643725098384,59.140036417232174,45.60194112765358,30.344392071204506,12.149677242690965,-9.101518600600782,-33.403215734874045,-62.861806958938736,-94.73927869438756,-121.63431989896934,-145.34788156779715,-180.95492699970097,-224.4636004696471,-219.64540608728302,-118.22408433469903,27.29918958207276,122.4396342652525,151.34379733450558,155.50707285190373,158.7456606355966,156.25635243468972,137.89214176900137,106.95311723844172,76.5879440311162,52.92569619801191,34.23152248125255,17.638257843119323,-1.239027724556796,-25.383413853306887,-53.47437822416386,-82.82874615173108,-109.99476285837795,-135.98500975592918,-171.96821240593346,-214.60231404530265,-213.35622783248186,-121.404976374749,15.010489199732978,107.54177347040401,137.29419656390283,141.73711015459276,145.43328407881876,144.2544877732467,127.5341290106836,95.75757922875673,61.900968284999585,35.57831491280197,16.83497645451059,3.3662447659553467,-8.5518712104854,-27.02080631247683,-55.29858454289178,-85.29267027518658,-113.37788954288206,-151.026588157817,-194.06071601648932,-192.474189496571,-104.5882064804521,22.519429389937436,105.53356023365384,131.30681407231847,137.88958452064915,141.46755209430262,131.7299544409367,105.3193061480342,71.87679520590424,41.33420470654559,18.770100285955213,5.413551244970026,-3.369686815097782,-17.474361591034146,-40.25160042688145,-66.85842822371573,-93.09453355612706,-121.19384161907172,-159.3526594185905,-195.39369160863058,-175.6035092288577,-72.65161582234015,50.09303770004717,120.280648045952,140.14438987162984,144.51102694276938,146.79554715285076,138.47828382240462,113.22179384497727,80.3123293456927,52.26238285872071,29.56237927245679,8.844695393756624,-9.130196994032218,-27.392496831227028,-51.3778009694975,-79.39304297998831,-105.296984464046,-130.4696379943196,-168.1180768967886,-214.6648327289648,-215.7806201765363,-122.70130274136964,14.843958002175858,105.53767722045261,136.30142378151717,146.84694925132038,154.2124701895069,152.05654763964625,136.1418500204791,107.97985933469177,74.18485400088952,45.95883760439563,28.675093084477933,16.502924625980953,1.2060950338129006,-21.253277618956815,-48.86540414880276,-76.31846671425907,-100.34941450426012,-124.3508440452102,-159.54820712450203,-206.8810734883032,-225.64361160219127,-157.22472514302362,-17.947780358219028,100.10135097184867,150.20830512094184,161.3054238330043,165.27703953578492,164.4382357677772,149.84477579867232,120.87640347380392,86.88007410399638,59.22846940794789,41.675146602067315,27.778290634049718,11.687217485438584,-9.078325759791168,-34.65883258241541,-61.75011209303388,-88.60522858006958,-114.48254500220057,-139.51799690441268,-171.82493498619976,-218.27178865733438,-247.8086850688071,-194.84431157953253,-53.50153051978713,84.48860735269467,149.0994050282422,160.8014455476392,161.23400154673058,160.84073906197727,150.5905783789526,124.29712953676626,88.18820928945541,57.025216948554174,38.57987693880738,26.198243353811176,12.06098583528769,-4.1837867847727415,-23.955041769931547,-51.704277321377845,-83.9316458213012,-111.48917623227425,-137.12891926239618,-176.57776547065953,-216.19159549614483,-190.68838737801215,-70.1483620028519,69.03688805518553,75.0,99.0,56.0
-17.80829821744284,-43.66313161344927,-73.34930643895403,-105.36499628012842,-133.74590398985694,-155.92540116536932,-186.56342478608477,-230.27319343139482,-239.11468891154232,-153.56881417328282,-4.219126346798857,108.45578518983734,147.676896360716,155.8969842490451,163.90212409800472,163.63060381024698,145.39359875383607,116.15058777933956,88.70536260334711,69.29930899189472,55.29786990286145,41.42687430371343,25.434018793120977,6.281249085166876,-15.726991452795305,-41.341405421039894,-72.15571243850798,-103.25031802376503,-128.28618486886467,-153.76932678178449,-194.23826216603808,-231.3806769160907,-200.13342707750303,-75.97938971844452,62.60828240922013,136.02759455651608,153.3439580329748,156.38188962223768,159.18039190521066,152.76851326455727,129.691965987752,97.62002931737905,69.07546121530414,47.13215493911474,29.38085769778128,12.630152531116341,-7.666163385361707,-33.209675288528615,-61.963702663274525,-91.03807871817318,-117.2844552770583,-144.81655202315991,-184.91560440644704,-221.860413728399,-196.14271540591474,-82.21157388677047,48.85210348740436,121.3091319894623,139.44227781802337,142.67864686896812,146.14330581345496,141.30391678090564,119.46122661221581,85.556379330155,53.39167798676694,29.49615088016384,12.494148359924589,0.05772567226665363,-12.8463257607536,-34.38271740194429,-64.24140725444714,-93.29424215251456,-122.71884350693024,-164.29482826592644,-201.1134067101549,-175.77997008151067,-67.7118324658268,53.360325548398635,117.38424181283219,133.68190589070593,139.4967419380231,140.5084761057977,125.51959303186904,95.85978874132358,62.438407563020036,33.879596839854855,14.011144601674179,2.827900564405606,-6.534159818099826,-23.295328699867657,-47.812828256629146,-74.53411404457074,-100.69409339482849,-130.94732771697636,-171.74501364341452,-198.1054596355778,-153.18406432810372,-34.98116184787502,77.10480575749185,129.5843184333896,141.81866721221905,145.52996669393855,146.0178493400197,132.78842396110588,103.81332424759984,71.43475565308316,45.382134579860455,23.374105279170074,3.3653657367410905,-14.084209076766099,-33.63325087362411,-59.33782899193952,-87.2838389745261,-112.21132047408292,-139.4615618921864,-182.09080159924108,-222.94327473392943,-198.54825886850708,-82.92087208312456,48.343773783220065,118.97091904522748,139.9338841251949,149.42822534418335,154.9031093428492,148.8801737101461,129.0926324800994,98.33314630755909,64.9931182602427,39.934086075150404,25.041180096899925,12.684811164915875,-4.519255401955028,-28.924033637102212,-57.03772855207965,-83.62848679124788,-106.89630956055072,-132.84002997488238,-172.80954877208046,-218.1878249851527,-216.27675603580346,-120.70511827267555,22.214222609749115,121.17109074935352,155.47319640091808,162.59807955517556,165.93484523726215,161.90915662268418,142.66358173235525,111.03304168539239,77.84125885072301,53.280353608042006,37.64545940904111,23.485273488187023,6.251176275665374,-16.087660319049427,-42.47390493292008,-69.54370333205235,-96.24695605470845,-121.64402531838465,-147.52518816946335,-184.1142699309995,-231.3202921099223,-243.37123783215955,-160.272114112407,-8.491373197572726,111.201107535901,155.68946316200567,160.986957867579,161.46699269492865,159.35639134110184,144.62058277825167,114.27964374194735,78.04960609631856,50.46440395143012,34.86185726831708,22.415132888590303,7.529982000965794,-9.309003619989745,-31.08302690398012,-60.98282318117484,-92.63191319018,-118.44380292403254,-146.64508777885618,-190.21137636121642,-218.6729487454597,-164.023090070285,-26.905455233360964,98.61433800069298,150.77763054669558,155.25378664834696,153.55461775371467,152.43324176019905,139.17912262376151,107.79728928437878,70.51587240185353,43.57918874251937,26.273170454604852,9.174379108185207,-9.305558950872813,-27.240972922355844,-48.55753885522175,-77.75969918074594,-108.90163372826393,-133.6920801389753,-162.5620690196601,-208.01769077582094,-235.57632913698538,-177.39115079906838,-36.791632953067186,89.88224115080578,143.3554621560415,154.53384358775926,163.31549546156162,169.3421042791754,159.0474870390162,132.17573495766462,99.42708595441479,71.23456991958741,50.958941651693635,34.72809171619827,17.00345104363064,-4.143817391507496,-27.882831573527394,-54.967727706894735,-87.49675220203433,-121.09679384810615,-147.91723825212753,-174.27135779893777,-214.1959326352144,-245.44898351506242,-200.19298870932167,-59.85112524566484,85.5132735796987,155.60234026185447,168.01966567473315,170.97130760316907,176.5436655701045,169.69146483879567,141.96019324027483,104.11109289957722,73.30833864594068,54.1946311058056,38.13869454465153,19.44781293291156,-0.1215085791215858,-20.16982318878663,-43.33210499987185,-72.19701354573083,-105.01484045930712,-133.65789593816453,75.0,99.0,56.0
110.30736642312984,75.5695313757311,45.62953925947455,23.984065034308443,8.55042086401332,-3.250567808647155,-17.928597633282525,-42.520006835927795,-73.03487484064227,-101.2092661621088,-133.27619207400141,-177.53202674774906,-202.7341141333264,-151.41937857698534,-29.768976721572677,78.77278218864929,125.08209528118698,135.47041218334564,140.8176799233069,138.092419288147,118.02028255524516,86.11183280394758,53.440284827847094,27.166844879681953,10.02923177233253,0.42138107588020973,-10.393771168798667,-29.804700708035945,-55.533463476179755,-82.11579687044457,-108.58503648601166,-141.80001646509228,-183.25470836802037,-194.4589299369645,-123.94855900516913,1.921044378406897,98.55334560649969,135.49799816524532,142.99450286226525,146.39105879334085,144.0223471349292,125.66751773816347,94.14383451717937,63.193082858619896,38.82053041218717,17.322089985208972,-1.8463255851897018,-19.21595660045334,-40.4558193730295,-67.49745370129585,-94.84629384324094,-119.22847424027837,-149.9351039421062,-196.33359869162027,-225.5369206135989,-172.83654166801702,-41.85646424983572,76.04012667074247,128.11318638321572,142.8924698012849,151.75774250428742,154.57628610421196,144.5308386493049,121.08817967456116,88.44223496420918,56.564308309342216,34.83002688090774,21.60785453597804,8.430404877416189,-10.89099840114727,-36.914115266080294,-65.06059029213093,-90.61036855798682,-113.60702752771002,-142.61541778139883,-186.88113523888603,-225.57464917913092,-198.33677473758675,-79.85899050994479,58.08477561122133,136.42254692005986,158.6397128539055,163.7713842335171,165.99637294203742,158.02057078088458,134.39739030382304,101.05869528669999,69.59803723183941,48.14032012128773,33.69979485302114,18.928354315240828,0.36667489355865013,-23.457649201354393,-50.31784425520505,-77.31441070711458,-103.76935972547405,-128.76808856441576,-156.46147244717415,-197.644873980076,-241.62771971688832,-230.3145187558974,-119.33295252899603,33.318660023423206,131.0231272909557,159.0987198492687,161.0178091594922,161.5543945011205,156.76015132528966,137.25708343741104,103.7269203203307,68.72112828413584,45.002657810814334,31.36856159055468,18.375543595253035,2.8745153571517457,-14.834800565203828,-38.97321583669846,-70.42528674752134,-100.72079437615598,-125.51585789868246,-157.7649174976631,-202.96028336131337,-213.69390206161228,-129.68016063645737,15.058888176935712,121.36776692625259,154.66957833497997,154.4147276661119,153.63166723678836,150.41657580028124,131.77126530042506,96.74222088287313,61.322255708932865,38.04115217003835,21.577505177260125,3.8391560415937995,-14.5001537039391,-32.74923061811188,-56.20355084020048,-87.08857637054113,-116.70627005763215,-140.6722733074967,-174.29557510931545,-220.88632480929013,-229.73753978092105,-141.90784495965207,5.767552542067057,112.73254022159279,148.512827280677,156.63732478743242,166.05046204797836,168.3686924998295,152.62082660404224,122.76736816944258,90.5027567145354,64.6302540502908,46.12743553278005,29.935316613697424,11.2224699155198,-10.76573853265752,-35.24630849728412,-63.811272167688244,-97.52034570245743,-129.65126738512038,-154.82555596741818,-184.26876257917178,-226.68681183691322,-243.13323829131397,-167.0600229799914,-13.159425001117233,114.38885168431912,162.6719857080714,168.46511461914216,172.7815216041445,176.566371954724,163.67802708614525,131.23891861417246,93.93219811289663,66.83832127765783,49.67861038450389,33.003113414524336,13.779665955294611,-5.775989118700447,-26.402864242050764,-51.030087870225984,-81.54955606472149,-114.10616778145562,-140.3425351128811,-162.23592960656947,-195.92908367295672,-238.41463929481426,-234.82917944420186,-132.3529338050193,23.481111725457758,132.5730430022523,167.4619433567331,171.50751060569797,175.2483066251652,172.52656079635165,150.783953795005,115.08462951164083,80.87686976510983,56.79715233671522,41.22903335769806,28.295004196410584,12.327624584334998,-9.331259196669338,-35.33281825728641,-63.04254705137071,-91.32405695823302,-117.44598945572451,-143.17805946052397,-180.83018736053378,-223.0366663037083,-212.87488675242705,-105.15072399759445,43.59111128286256,135.58945087564098,155.4912955802105,152.0240066895598,151.2973599658264,142.58938091138486,115.26392528629445,79.85841926522302,54.55917754684559,41.99854832016024,30.78197046646655,15.369723997259955,-2.053045777289036,-22.819436188148316,-49.41103842479529,-79.53207813102958,-106.89736662865448,-132.0200308905197,-167.55533527535727,-212.23964821579875,-217.67533946431965,-131.8467503068599,7.682670418957408,108.61056429914015,144.57647334585073,152.52403881169246,158.04263368382834,157.59768948378655,141.18348771134038,110.85685449098402,79.04500398039255,54.75783345338593,37.45008673322805,22.848647518003236,75.0,99.0,56.0
139.0420616859375,112.26891834754832,78.61089413096228,49.07317650245815,30.482717515457757,18.155449797613343,3.6273478525634633,-17.86184488613787,-45.08043040124519,-72.83613662911593,-97.31834130362057,-120.78703427904316,-153.86396416253245,-200.83840463108118,-227.247061298778,-171.9616023260406,-37.350543249134894,88.28077500841452,146.772593069378,160.61216943307787,164.84733653387235,165.1810145779328,152.73643713773876,125.28628025304309,91.25869670223638,62.27965371726058,43.61592496119299,29.683665854850656,14.055623062526756,-5.990595228090976,-31.085469482260745,-58.148535637649225,-85.05411231260867,-111.13856208010093,-136.04113939079969,-166.6475582394231,-211.80688505135367,-247.29141888625034,-208.09601630745289,-74.59722348480798,69.82785188811727,144.6242001116851,160.5310553235045,161.13735559155637,161.21997577924276,152.8604637437199,128.6351288462649,93.04280748472522,60.44721731235635,40.44703192581571,27.864553569483217,14.098840311798183,-1.9141656712258184,-20.921251341572884,-47.55609761926995,-79.74775430091152,-108.20279979721485,-133.21940827811932,-170.39012846169382,-213.02028159998108,-200.03839207920316,-89.72802727247446,53.2435975128606,137.46534920647844,155.87604178049935,153.8026768759348,153.56584811839667,147.02315851163706,122.85799166235017,85.68160389916123,53.2931967367196,33.08265604380091,16.694789101261158,-1.5410044254157769,-19.63238202095193,-38.70976878586898,-64.5666017930168,-96.29215987667017,-123.8573691646076,-148.5147447927608,-187.54562406815785,-230.7488333874883,-215.05787883338473,-100.88865383088451,44.30616176173659,129.07531581368656,151.5470380623447,159.14092843875633,168.17965245181392,165.76979364395112,144.9661951766305,113.18221735927558,82.16752773433991,58.684608419970665,41.48551487868653,24.89822357502249,5.157511173883632,-17.57493699324003,-42.944744845085815,-73.15340057812433,-107.41643115974465,-137.48239038375786,-162.0682043080403,-195.7129462463256,-237.3066375328493,-232.47419678809908,-126.65479195252472,30.852580995596046,135.94529706263444,166.23584323793222,169.10776834405218,174.65644921089626,175.08547296488553,155.89985993570377,120.10959260599911,84.72807738702157,61.26734085760815,45.14028766439567,27.614181102839744,8.11676583500647,-11.508072022588415,-32.972943530238986,-59.26025375877555,-91.11924080121977,-122.59567926559315,-146.53373542781748,-170.08569826415555,-208.74243142196323,-245.48510252920624,-215.6500140223955,-88.15098238685641,63.062937017262314,148.94044145807374,169.65171035271788,172.3800867429512,175.87480233545193,168.3658364098745,141.2337799895497,104.44772597047611,72.7947705116065,51.65989951145603,37.499961852127406,24.186202381762225,6.667583515228386,-16.536788519746473,-43.22836212184448,-71.2245457957767,-99.2331917162372,-124.49120533937557,-152.3402362158398,-194.1998864963374,-228.7353196485395,-191.46039804967128,-61.49301395351153,78.75384270301984,146.9426620035377,154.81605802960863,151.586627839927,150.3949421076879,136.54380256312731,104.96687239243283,70.97723033027249,50.029482067616875,39.11193943312944,26.689828067333128,10.49377292100374,-7.54767574439952,-29.892621253637678,-58.00430315681648,-87.9569305290988,-113.97758654525877,-140.62294544716312,-180.69439853424072,-220.98120130524063,-202.76678731979425,-92.81892236156129,43.85945204886537,124.51890855785356,147.96075066699183,154.12754588757466,159.06840911658784,154.7049623531759,133.38751945966888,101.24170312941672,71.12182383214295,49.227587461244546,33.127019224160115,18.575703600516228,1.5435975318004473,-20.902887796133005,-48.036874134913475,-76.4520684937808,-104.07047218260817,-129.96065812235344,-158.02906943461258,-199.42176934779712,-237.52903891145178,-209.37655870795453,-87.11114370354416,55.28211374280181,136.08741438667926,159.46474697155043,167.02536869654205,171.7963009757845,165.04554712256004,142.63392604450388,110.62639855650801,79.89509685689946,56.45781942197,39.900942488113245,24.618910705231386,4.994527105939589,-18.59221301381801,-43.39395715144886,-68.13465915751735,-95.40694445756591,-124.42772827966374,-150.95735405813767,-182.2352656802076,-222.20051431649327,-229.77343765763482,-147.6929350127413,-1.5567765095262345,112.7096253828833,154.9201901755175,161.09658255076636,164.16115621983312,162.7321018960719,145.29610157791677,113.1502012694262,81.35341696996082,59.59681968638402,43.59565661834768,27.106805061389007,8.3731686116337,-11.741050055943264,-33.62431484763291,-60.01264977273704,-89.72342719411257,-116.61517187800702,-141.5268849081937,-176.22761483386626,-214.99242104793683,-206.86469585038563,-109.57907303927148,28.605829411086496,120.46406927912643,148.2963311381706,150.23878087390295,149.4742035312741,75.0,99.0,56.0
85.80762697591553,147.70597609871947,155.6055030349996,153.56108577826126,152.9827741121684,142.03987108265653,112.74607851228694,75.11084686287711,46.40897123867499,28.40650237486296,11.591712088460627,-6.876734026802809,-24.80340490161895,-45.28569716939535,-73.5070222617489,-105.06562464285732,-130.60292081082036,-157.7420224811519,-201.5942999812259,-235.58236050256355,-191.2629173631506,-57.09359106139962,77.03487861143734,139.87736367207583,153.64097457711114,161.97524259865793,169.27906739844252,161.5302964810337,136.36989574345316,103.69825091865631,74.51848321652882,53.29421747560225,36.878825717070605,19.566207371239663,-1.1576777762138617,-24.57898484054864,-51.06310145843053,-82.9064914332901,-116.91515357468676,-144.7124644066685,-170.14447694164048,-208.2563679849559,-244.13954078015993,-212.53939680462372,-81.46695192823476,69.76369177263398,150.75115306976946,167.7078576072637,170.26031290277652,176.13355698804622,171.82904477569417,146.6308414849057,109.05710488065812,76.64858143453237,56.33425471513266,40.41012424755298,22.048445407822296,2.4761754955863466,-17.388195154533342,-39.95528049189416,-68.00775253271804,-100.68015710839899,-130.34422813985069,-152.59831326579618,-179.41738012800374,-221.81202587411872,-246.7966051060196,-187.44401819439975,-41.861704725413,96.4393334936961,159.55143717250846,170.61099171586667,173.53673519162024,175.54299642600142,162.41495244163107,130.85213573561677,94.31368675339314,65.65373740889584,47.114890922028394,33.83660213634058,19.700753450976723,0.5043641630354658,-24.030465060669485,-51.21812769826143,-79.43696934182425,-106.85282451261145,-131.66689979199612,-162.89754704283587,-207.35157904438,-228.15323633714306,-161.4392047727106,-16.998912876674943,107.11832648194031,153.02341206969683,153.5408723229415,151.51506148192814,148.34528133499308,128.85686355307055,94.46899601596444,63.33562473813603,46.40054148739504,36.00980182610461,22.254412293146043,5.511274472148008,-13.41388973961282,-37.485187540396915,-66.77720978087974,-95.97530107671312,-121.02128540863902,-150.51156144864717,-194.24836853731674,-224.70293348506,-179.37912680778552,-51.426965448071336,74.66014069144396,135.38493736856967,150.13360366042374,155.79497813613804,159.3042988589881,150.2870930375194,124.63929154159125,91.8512890026943,63.94945723578354,44.18458677372635,28.93211593051833,14.090729775341918,-4.339173093143959,-28.394601096305085,-56.25524291462713,-84.55684853743091,-111.74549273042972,-137.36526522107573,-168.36683921840884,-212.973195901908,-239.17410003933045,-182.1764812261118,-43.22674235528118,86.4408450205811,146.78022940578936,161.96200741601677,168.96625336343607,171.4145832443458,160.08987658761887,133.89128888003154,101.20376921067361,72.29356489942806,51.119673588796275,35.69447212118682,19.480956995181852,-1.529717077951923,-25.752162609843968,-50.491753701917055,-75.62858078754657,-103.86128082936031,-132.32683207118836,-158.88836617865206,-193.6187253792575,-230.78415238013756,-216.37311162172617,-108.09755844383173,38.453761722772065,131.5245609219956,158.28063596629482,161.83459530370556,164.79735517540922,159.62949929732318,136.99874870303793,103.20622367976362,74.03423312100132,54.73234568215264,39.03878903432415,21.909170494325192,2.6585102859988505,-17.772288568866777,-40.70041125138535,-68.49792259519404,-98.00708080478863,-123.60012747862997,-150.07229196974686,-188.44478990033392,-220.42874490041362,-187.74317292214238,-69.5557491673142,62.461900205919015,133.74051978286525,149.81002105941866,150.18336823672848,148.2844090310405,135.47955744982096,108.36049179765095,76.46779242210698,50.25532409224951,32.062627442092854,18.98934550325675,5.996015385361417,-10.69810503629232,-34.363810419630155,-64.6481139880666,-93.84902271706612,-115.9137155594707,-139.08202566146974,-176.79564121085156,-206.32516527754223,-167.46239647619723,-48.423043896450636,75.66004326471396,138.78873112842803,152.7375563509012,156.53052854497335,159.77025305500072,149.48103734728846,121.78438133274685,90.77028330216595,69.14142422404367,54.36228927183451,38.434586745207525,19.26510325599123,-1.9256771167883047,-25.092143250920184,-51.79807499147718,-82.59269298990604,-113.5360091618279,-138.7137805215996,-160.82448863626942,-195.99908029853134,-241.20205036203356,-238.76859692133306,-137.27147680834094,12.251301578146274,114.8036366842327,152.31495729975634,164.25144128660372,172.00111300045344,170.709683367801,154.78453512883033,126.7140159949167,96.46213945996382,72.10493956380533,53.11298086159875,38.30705771454154,26.315616108106326,10.611727355523238,-13.085150746538552,-41.09330331899117,-69.70875518318493,-99.35154909293308,-127.13322853020547,-148.27164844191188,-174.60789216001274,-220.23336541784843,75.0,99.0,56.0
-137.33876730211463,-159.0149032634773,-190.37452793198395,-233.76092166037955,-240.58936383765624,-151.23392164655624,3.573953380232891,122.80133697865777,165.72121050975798,171.2042448019469,174.76104383330258,173.85073852893998,154.79185687954742,120.07286366068175,84.91716809277224,59.404481275360965,43.01297259152045,30.089311560068676,14.766636994179336,-6.130058979847465,-31.731202883979332,-59.2927117748652,-87.60321580266424,-114.16181188960566,-139.34930217671098,-174.89180125111048,-218.813417426618,-219.70992738722555,-124.17746138379218,25.431595089115305,128.22654398656914,155.3058568125199,152.39848728183162,151.4518879619951,144.79357590712507,119.79474846684091,84.3019961039232,57.03073600846033,43.32734974397446,32.53051518056287,17.57947441710079,0.3823666513139215,-19.735420453883105,-45.55350237891212,-75.54491109257026,-103.54387733464344,-128.3943367165577,-161.85569889053932,-207.03134838569693,-221.698526449027,-148.3141910206413,-10.403012466187622,99.32622014770799,142.34730746474756,151.80044871830333,157.39482952953324,158.43920860160333,144.3749156696793,115.2791887899022,82.9405709789177,57.50419518970116,39.51072423040441,24.777087351106214,9.291361432995979,-10.71882477533413,-36.2177462533329,-64.48958741905204,-92.5729001463279,-119.23974751991345,-145.15571096212418,-180.14035663135016,-225.3186470466713,-233.38032004378837,-147.36698523061634,-0.41839128330275505,111.13426505172481,153.6706693769216,164.06288294503324,170.59497361504324,169.81217092428489,153.826956431496,124.59158056090463,92.15014065558506,65.37026308276963,46.30141602986018,31.39978145391351,13.89795066774365,-8.324676788390347,-32.94172901248904,-57.58694188904107,-83.43590964059717,-112.34424981180666,-139.94199940149468,-167.5806134261944,-205.62016654805538,-235.04023065261026,-194.33309456725829,-65.00582410760245,73.31415478233134,144.4065698827032,159.92113953879993,162.74380221817802,164.75029369394682,154.94987670444814,127.6891783903441,93.74152195957095,67.6259911198815,50.146492033716264,34.33201385804491,16.521550456370186,-3.1357702011784427,-23.99614931663151,-48.22890742435806,-77.15583615907923,-105.88138804642851,-130.58167685719684,-159.81004999417823,-200.49198286148962,-220.2209135487139,-160.70865857187533,-28.375579546563895,90.57710315104104,142.19804970853244,150.25252760091507,150.09571086243878,146.1266362630697,128.8819888768491,99.04933000118196,68.06103419657428,44.23419096637553,27.973320099962525,15.432301611034278,1.6891462733075535,-16.692284118416772,-42.66791483872638,-73.6169643535477,-100.93805510422702,-121.71619270751522,-148.42461267171535,-188.61440409577108,-204.4529399035228,-139.19456779329934,-8.881594539964965,101.00479319248397,145.94948416669797,153.72157508346592,157.9647190333813,158.74687238202756,142.88812263380711,112.35787342650994,83.39428376137604,64.56467723612558,50.10917851044983,33.17240595372295,13.317987112626716,-8.374991605795145,-32.35664933433351,-60.35842393969922,-91.79842282332932,-121.57411341620538,-144.85963593894982,-168.93800260355388,-209.55444551758012,-248.87796136666842,-219.59782986278182,-94.29014634062504,49.43386520747159,130.85568178636277,156.73350129895934,166.88138023511038,172.9433746892095,167.66120312667323,147.59105625014894,117.67932813884096,88.71905582990391,66.18023597408195,48.389916267460414,34.75520193988811,22.501173730415445,4.538759887489072,-20.98673204148184,-49.324760949453484,-78.14879478184625,-107.89129463542292,-133.83265665150617,-154.34537329732737,-186.05154921728308,-233.7000540139737,-244.8390868610538,-155.7790497312484,-0.1976950684993637,117.65521891332595,159.62520273996574,165.8817268603804,170.35206134014442,171.46942977920517,158.1672881502813,130.49563625899057,99.24764959115227,74.0416690476702,56.85552890282181,44.58517595613184,31.2399544950539,11.794072478950476,-12.28813867128467,-36.802935606994076,-62.588386147055914,-93.14645824465246,-125.23448944676915,-151.3212784344328,-174.95895944206612,-210.5736631127001,-241.77321346965826,-204.2034558442891,-75.47096900298261,66.22883942055826,145.24444350930435,168.89694064424438,175.0122383294804,176.14979520481276,166.03587972253098,140.59172345704366,106.09623013713285,76.47851180265829,58.43816622521528,46.696955412521234,33.14528993605246,14.921337752567801,-6.846017085932145,-31.915751009373807,-61.09335953341041,-93.48041273797165,-122.02403862748024,-141.87859725024705,-164.78506942848122,-203.99243815133977,-233.4402601016857,-189.36943632036204,-57.14816746726313,80.24588652693014,146.12310073923115,154.18991761755294,152.43519554316606,154.04140951538747,143.59614666581564,113.90910122841866,78.66330287811385,54.556945249888784,42.73551627250926,32.95968361476515,75.0,99.0,56.0
20.565498823046454,4.092586810304668,-17.584388836631963,-44.27296014542439,-72.69062351670021,-100.47496708380184,-126.58932968367633,-153.71535083440796,-193.15867402994164,-234.7192965431893,-219.01183693144978,-106.93773445622176,38.87445964435833,129.5306119291189,158.0115774197443,166.09310529542654,171.61405407721605,166.86851407068704,146.39701922708136,115.03679900626729,83.62156780430055,59.12069224102629,41.86563559324244,26.84341738402124,7.891965513120823,-15.319542166429002,-40.10697990869816,-64.76638129721378,-91.56630279120431,-120.67687503320387,-147.45018781319308,-177.3402141102193,-217.29808069330645,-233.14932595311024,-164.07075554106154,-21.21416874621168,101.8286756284483,152.4679361808993,160.78050364900548,163.73921402410275,163.66593172214596,148.68566320722937,117.78746135564248,85.05096921608309,61.988798059438345,45.665059820895,29.434198530489454,10.974212634489025,-9.004594403065905,-30.503365747996625,-56.20282709989771,-85.79809659092433,-113.31601979225016,-137.91694101924347,-170.7996822495021,-211.06037539688495,-212.90777895067492,-126.92021510904657,11.386539692627354,112.44907534241557,146.9920706717649,150.26820884228235,149.777878528148,142.7709417999925,121.1497799875407,89.67514562855473,60.31031227861452,38.86830714979048,24.20436256736878,11.756178243439813,-2.9953471197385126,-23.362691585543704,-51.43764117224521,-82.24890295649831,-107.35340993451257,-128.01047528716992,-159.24932707031527,-198.61419464820662,-195.23909180797057,-104.9172140984446,28.582879023804676,120.36477971175067,150.01209606276447,154.68930906083025,159.1954078617906,156.20724268938625,134.95522424690495,103.1315103163239,76.97711750680403,60.35148537960116,45.59258399446248,27.664278584233998,7.226859223544348,-15.001660430270173,-39.97352033940416,-69.2403170569873,-100.87276412790662,-128.9839841594929,-150.97057925534352,-178.65626987200434,-223.44758255683917,-250.566312313802,-191.52420634871038,-49.77651106238338,80.67639691252084,142.08033516177264,160.09873692940675,169.29340458111574,172.89027101090227,163.32680995226724,139.5230647574356,108.77015738825861,81.57220247633339,60.62598147703676,44.03009530992243,31.362667834044284,18.16528309294195,-2.2200716014345927,-29.096588301353453,-57.56795857916561,-86.71564410234069,-116.11303345311717,-139.9080700589035,-161.40036552181826,-199.2871971418159,-244.2833204164254,-230.38822411060895,-113.14850267125433,41.51672894333829,136.56503113019704,162.87314632029725,166.90751051288743,171.58999146263417,169.39198882496487,151.27986335079683,121.2887724781584,91.11425552363993,68.32533168324112,53.025433539741734,41.14214095293857,26.322050580909863,5.096129076231704,-19.42279514991758,-43.929704150129396,-70.89087845053785,-102.61928995300418,-133.5837808835948,-157.7603430907871,-183.67636346970784,-222.33757572250522,-240.89338677012384,-174.4357858829553,-31.197085293897228,96.66100525967755,155.92043486060408,171.30343580165007,176.00168940795598,174.7167247800777,160.20853821819657,130.98062458893187,96.47901965992614,70.1400128934286,54.7992741917886,43.22271733692565,28.3320632384223,8.948945235449935,-13.721173101657381,-39.88761449349875,-70.30512658949512,-102.54388371629206,-128.4876101236086,-147.2939120585188,-174.5287128527584,-216.07274092013972,-230.8114366992921,-158.0111986360379,-13.177156060218556,107.67567508611951,152.05989060636588,153.22961200410063,153.02950688170972,152.99231045108624,136.71536573522326,103.38610794151285,70.15386193904676,50.24849136798655,40.177445220098754,29.22152421858758,11.70460072647542,-11.03581682871276,-35.06677687790279,-59.22774706444885,-84.49626673520413,-109.57844986625742,-134.68879196850654,-168.57854891008785,-208.19067590925744,-208.19508087174796,-123.02209942984017,12.165788976995245,115.16767489969696,157.648047943011,168.78833178198204,172.58434719823728,169.9094934678786,155.69045373816903,129.76077798148728,99.23794125606474,72.78164043621321,54.56718748655827,40.438871156145446,23.387237980511184,2.2480807882668326,-20.674251451669413,-44.18607852985264,-69.30802174588881,-98.95109300584625,-132.39166050336488,-161.11281782041925,-181.27924051727436,-207.31739312356984,-248.13571010888154,-263.9629414089478,-191.37309239727264,-40.106610637801204,98.57964979170436,167.0016547495696,184.73299569740433,188.3067105862887,189.50432123991862,181.65136122462204,157.9423123700085,125.04903458720963,97.20065339664113,79.51161560909115,66.1760397167323,50.36409010040243,30.184140500784842,8.108824172420588,-14.374356305761168,-40.63036541343336,-72.46336754345973,-104.59955908054341,-130.1897169870663,-148.85340711035167,-168.5450999748149,-202.12964427166966,-243.87707620698168,-239.30028208068347,-134.80226501976026,75.0,99.0,56.0
148.93622318501187,138.09041232340934,112.53916829775353,80.53598160336088,53.26443097817958,34.09123375835741,20.61859201425056,7.874503499640721,-8.142683622688681,-30.736265917446598,-60.46521101687434,-90.34080762371191,-113.26985958223683,-135.2844372174972,-171.15958116606748,-205.05078528358456,-178.05287544016832,-66.69858934872461,62.00460256336778,134.1162614917153,152.13227295732617,155.89444054966464,159.81128631584022,151.99198011953183,126.07209530943715,94.48507925192466,71.44182833412427,56.26299427302456,40.76497687797851,21.955188263137217,0.9955243563216238,-21.847422020119932,-47.97640298362731,-78.35011373981564,-109.64211707398057,-135.76679565913992,-157.5156030478235,-190.14707850398898,-236.20814892713966,-244.51204808570867,-155.7780926196178,-6.551834660765137,105.48372341950036,149.6900095135702,162.99037286345026,171.28961841448074,171.68337945589232,157.7491130036451,130.84103439885246,100.22866219617691,74.97916421295707,55.40717982194497,40.03528840342691,27.951695797097006,13.163737103487689,-9.552040423201849,-37.30027180401282,-65.8577923535052,-95.36549118344777,-123.807580119244,-145.63071066344193,-170.00496874765685,-213.60165053462862,-249.84888212804475,-206.3975283250344,-67.14990590246256,77.49971676915767,149.35165978971537,164.5021252159585,168.20765437588307,172.24380817286956,165.88408021583155,143.34721156783746,112.10089251440453,83.65373505608714,63.25539678552304,49.5002292255554,37.435995486172345,20.814014933440014,-1.8768231987917119,-26.505790177493445,-51.25897430126774,-79.65892379928128,-112.04228805128263,-141.25008969489625,-164.2797063552003,-193.7859865284613,-232.7624855513393,-232.34100747513386,-137.55140498145627,11.424304509630403,120.74945174320304,162.93913502910465,173.05259908844397,176.55881796984397,172.13167230979366,153.07499469433372,120.88917470613205,87.63269938884517,64.79055711541726,51.470040045249974,39.4231191868473,23.129045844995886,2.7174729299455103,-20.884860874957845,-48.22974171110166,-79.726575025436,-111.0345256716707,-134.2119312232802,-153.45548790559837,-185.82726841968324,-226.13399853997234,-220.2955118169171,-119.95736088857873,28.399396147592928,128.04347324210823,154.38504821339586,152.48603202530978,153.7557718749148,150.45438246718268,128.2717943642519,92.90734334889571,62.88776917720131,46.80838325294948,37.50135298805289,24.885901420180964,5.491156656392655,-17.979315771047176,-41.9855151992147,-66.41302742000619,-91.8712588346067,-116.59559672610209,-143.12644466743805,-180.5826419074026,-215.116487553969,-192.65305342638172,-85.37463730124013,48.07663496204489,132.89202517549361,162.5146828474847,170.28891806101555,172.7309064959852,167.1341757612867,149.20357888124286,120.99192158394568,90.86776079859555,66.6861795035712,50.43161859660624,35.991272830060865,17.611610291740224,-4.287934457509718,-27.404358855010106,-51.16985472011614,-77.29286526677456,-108.48426812221192,-141.61871774475972,-167.5205895464775,-187.26897361326743,-218.2108931784927,-258.38481138530034,-253.79443710887554,-152.45102670098987,5.430531740607319,125.8103330523415,175.43198791362417,186.16975671223,189.00316355251633,188.61932709759253,176.44052316908807,148.73456475281264,115.98839354489392,91.17162274310668,75.5771725756389,62.05327014589834,44.92716537755017,23.852663497405914,1.7258643631934125,-21.372697653142275,-49.36555122416149,-82.07327743268296,-112.84968603065215,-136.09059345282074,-153.88587335639906,-176.3695391212798,-214.78035937564104,-250.7034107160568,-219.66738044767976,-89.84141967069613,64.09128263268067,152.91611149918356,176.49233793484277,179.77947345378996,181.2798866227032,174.08664771955807,154.0802762972603,126.10898311296225,98.12917260718027,76.1905277877985,60.30989512125247,45.62315134044181,28.00299622458671,6.64729726310355,-18.148543034618402,-44.66402542883057,-70.14915914020054,-95.0856658516461,-120.29716966211659,-144.27929364209484,-166.61178492481253,-195.06697574966873,-233.340505671322,-244.70092637707836,-170.1665945700312,-22.44406132753286,104.98078858269137,157.8208219546988,166.6238877810121,172.5605518471374,175.48295018276454,159.34065428591632,126.11309313753263,92.09112778135562,69.37100911274457,56.36202252231515,44.28460815476899,29.549345545880723,13.93138749467789,-3.9300231263948704,-26.7185988678728,-52.526414259679946,-79.2293027096316,-106.53109806601871,-130.57161093104162,-151.80974069607268,-183.40161322234158,-213.6377479013198,-182.23261025606107,-60.33734349058376,80.13701187862848,157.04184333318906,175.9647862373151,180.07363707155795,179.29382552028264,161.73499101055705,127.50239454161144,90.20851423538404,60.51673745839155,39.31189186132243,23.202332863182058,9.282770286958026,75.0,99.0,56.0
