53.509172161532966,-15.368686101262915,-11.87763871359311,26.65820037015458,52.810194400826106,68.23584158170227,80.40712315365468,80.70653569297036,66.35857460039625,50.3732576560427,44.774649289936825,48.31589709118669,50.9069728361018,45.000326209276054,27.268046713971675,-1.2992790554451843,-33.385813711510735,-59.99206385513641,-79.69353465723975,-101.10109583466058,-130.63297339430213,-164.66887381456377,-197.95744041446818,-228.91712626187174,-256.26064347277696,-282.55077953877253,-323.6373935630238,-382.0442535694876,-384.2899065643959,-230.08784793802766,30.336202588248113,216.38935654997294,260.44079447088535,248.32894416248544,257.38643060049657,283.1007146009263,290.7619763514699,270.2686545269909,239.62076335199384,218.1582045382817,208.00642813516558,201.6550555482988,191.780385097269,171.24774446323295,137.06606092253912,95.96458540417635,56.44931770994955,20.337194968455176,-15.404259529727796,-54.410852430163786,-96.15968129247962,-138.01929862462325,-179.59073820719803,-222.88019323457087,-269.2016558307317,-311.751719772092,-342.4764323359167,-376.937408188249,-437.5800490884266,-471.27981949748573,-355.2523909381265,-86.74564626873033,149.9420826086605,232.57956017156476,228.6964040938399,233.3388671946668,259.59258045881967,281.18539908272703,279.3608807302938,252.06128653411682,215.90083018987525,192.45505617947157,185.4167450506931,181.54401594628598,170.20152505808622,148.35359230341768,116.38826814873933,78.09713786784816,39.613084579452085,3.2765748336108014,-33.39479853171903,-70.8112608767041,-107.44695583711297,-144.70860349166003,-186.0902567699459,-230.67369974362552,-268.99629997568974,-296.54007053570643,-330.7066252397081,-389.2516698313955,-429.60350869039996,-348.5764676461429,-123.55033614868701,104.65812564688535,208.51915233835115,215.45172037299463,211.74383124661648,229.6532936204745,247.5940478861993,240.78610540785107,210.76229231965056,181.32508206794395,167.90077949674628,163.27600472042877,154.11467701929476,134.7269439532704,106.49561280645212,73.69980453678957,39.61317466541896,4.5011098612116305,-32.77872527592758,-71.46145840060268,-110.56858679179209,-149.90021821792877,-190.52823837393402,-231.8262608544416,-267.186528296425,-299.02494637644077,-350.21394428863005,-412.7811337399094,-392.62426564954797,-212.65063420514642,30.68152945006738,175.820694193845,205.16504285613692,206.47194346630977,228.91572642101747,259.2191256104461,272.5082656708428,257.90637041908633,225.30243180807446,198.13274062024482,187.109322684328,182.628873460172,172.90979848178614,154.57852102685894,128.00972152503985,95.23905386184774,61.26539974991965,29.45953450567645,-3.1221760502452374,-40.20590135943557,-80.00290086025257,-117.23035699112219,-150.11596520914932,-186.77096390076488,-235.09199239361644,-285.77737669490875,-322.0331559988849,-352.94461072736175,-409.1933260687355,-473.8330974796036,-440.35637770128113,-235.84787723007142,25.447942680358317,173.86529553056945,201.16954115728564,203.48545652901126,228.34177296025194,260.84578619885343,276.6705631991037,264.4839534097385,232.4672114804134,202.8047870825963,188.84702701571922,184.85439102908492,178.16455541967133,161.69396895223767,135.19070943068309,102.84968813926109,69.37311865127546,34.8394600397619,-3.6960820646515162,-42.786541041156,-77.33369797996467,-111.99319321080998,-153.26763702656586,-199.03447528317108,-239.64079807770023,-267.71738838207534,-297.56951129693016,-357.7880120319079,-417.402911704919,-363.5444579215585,-152.19597476910238,80.04227557714839,189.3739900698618,194.55608866342922,190.78797385292322,216.33107758503422,244.26031525910224,241.86090834839626,210.84766717364892,179.56549726941543,166.0418916381547,162.53577393194885,155.8277184510148,141.11403424845295,117.89735028102271,87.16244777648352,52.240586611286865,18.90586483544357,-13.103888830875318,-48.92723932300128,-86.56991047948699,-121.8506906643193,-159.0174409321436,-202.18751538120807,-246.14384272767552,-281.2941253778889,-310.0417333333277,-356.19503000939517,-427.37823499659424,-452.62887919500866,-323.9777503504154,-68.35309569278058,140.127291984915,210.1336760250134,210.59342407947537,223.83653797515186,258.95046241106826,288.7665443629765,291.89850766453014,267.0656893682096,234.78403836978407,214.67693299859548,206.33819672424596,199.9595976323907,189.59472729273222,172.08493973188374,143.69910769355943,106.18097868739731,67.72304974726656,33.2344329632384,0.1795098633156466,-35.01729284190894,-74.04135405000117,-117.01870853521731,-160.38103170086117,-202.3040929945476,-248.0288618313124,-297.60857295648316,-338.9049127142472,-369.5493274949607,-414.91171130042306,-480.2452192019377,-479.18973568285327,-308.84799159240475,-33.5835340766497,161.5677408449717,60.0,100.0,63.0
189.4358881843038,234.92199891798484,227.07175545478634,239.73996290502117,267.42783714400656,283.49861959183545,273.69041952283703,241.43534514685103,207.19207085716246,189.16903839290433,184.6219177681276,179.266071564651,164.9997881827072,140.0662177078436,105.70802841722515,66.76687608370563,28.962101335511882,-7.173282716584207,-44.22097086428143,-81.48010050111391,-118.00695357429674,-156.11406473341287,-198.93677648534143,-242.88558774232573,-277.7439419546625,-304.495199152064,-345.33634746590826,-406.9138122413853,-422.81579042902877,-294.5853176567078,-49.826667175510565,149.01711601905748,216.37883689342615,212.62751865376856,215.05847270684313,236.26412281823056,248.69268005261722,233.6623533090751,201.07064039549067,175.77108613141047,166.32066694857008,161.52175620510184,149.60005405446066,127.30642098875578,97.3003609129311,63.90688957723707,29.638968525085147,-6.042166208731841,-43.87685853046261,-82.73221189987598,-121.89945466951862,-161.43009852625826,-202.59829301604762,-242.95204408859826,-275.99206712023783,-310.8204585956728,-369.708651111815,-420.99162040096815,-356.4983723193197,-140.5738068254238,86.98116030309701,192.84410837810051,204.7251426123999,210.6176431083314,238.11775791342683,265.6212840231297,271.148274338591,249.3585464451025,215.96457371051963,193.4455816456203,185.7945644190356,180.65659147674106,168.49661057864114,147.71173422136778,119.00286301563469,85.29824550593986,51.86950035061249,20.361997750157666,-13.341439383269831,-51.63405754043427,-91.25396115372197,-127.00145899782943,-159.79284243515067,-199.5357292313616,-250.3803271187612,-298.0546143739141,-330.1797019838411,-365.6596885265034,-430.3094693112767,-479.9859943393734,-397.6084380795423,-157.15064357594173,84.00805990806529,190.27231699357785,200.6527252680445,208.3382854623233,238.17379031715382,267.94289592749544,276.0713787337868,256.39473609631057,222.69399287145123,197.1041749800317,187.2475845263512,183.66489135668738,174.5275891583169,154.94569930439428,126.19658790056636,93.17439426876459,59.64906455441311,24.146927671501686,-15.27873351896588,-53.22164855843615,-86.94817296742939,-123.14222470434147,-166.36033606739053,-211.80531483432833,-248.99243233611253,-274.75403274579344,-311.2998957443391,-379.1709903287857,-418.6225175813496,-315.61427327868836,-78.59852499904443,126.61302709148106,197.27704838342248,191.0438052117473,195.57630618369996,226.00896260421305,247.38206842868507,234.80430871226284,200.5341299579138,173.7821711132478,164.70777235683704,161.2858886284191,152.4587534367394,135.25663406946387,109.71484571954704,77.24596913492098,42.26388281594949,9.774172200411188,-22.96085333703426,-59.90494372628665,-96.9773247130153,-132.0783827562379,-170.91730166481383,-215.25288656040598,-257.5025344983148,-289.5329775058908,-320.3363577908818,-375.5008090769776,-444.7226817524468,-434.07572213212694,-256.6468549346277,4.312592588844269,173.6472277351832,212.62016496016813,211.37047275892942,232.77752683947654,269.33182044038426,292.9342980498212,287.0052851393907,257.3385236037001,227.36246523443486,211.4846523072204,204.66828163133513,197.50969731956008,185.44141784718258,165.10001115420403,133.4871255570897,94.79948941847857,57.35507059583637,23.738076853418455,-9.675251994353953,-45.844744129855016,-86.13817858511774,-129.7192718998487,-172.50561691838226,-214.86390796833368,-262.34491512115886,-310.9737806517213,-348.1847821004841,-379.7309277942151,-433.59552283860546,-492.6800376691174,-448.7800306847684,-232.04464068836745,37.70060360223925,189.0855844737225,214.42646853600456,213.66284709236027,237.650332147715,268.50375927887296,279.6399486201421,266.5573293722559,242.5665113620219,223.1640212910783,212.78342153140855,204.89681054017964,191.52666444169648,171.76761800981535,146.424753855501,114.04379839350021,76.47927081567128,38.73175986929015,1.4177922205693878,-36.44262992359764,-74.2928364111081,-111.39948326198714,-147.61517534903075,-187.75558720984796,-233.79117119587266,-274.43591832860204,-303.48721416047624,-341.11422356543295,-405.1376842405217,-443.5391728461967,-345.4793966191416,-101.17036781796463,129.99138777745216,223.6915439526108,224.12960743376902,224.63650837528292,249.27073333158395,269.8832836436426,261.6641437704269,229.35654117900418,199.44778100124512,188.15368943107595,186.0701485452278,176.08191510711202,153.6264937348,124.17205820848403,92.23541342016694,59.95321794963331,27.677425377452018,-7.573281250047741,-46.23193159307407,-84.86155690531676,-124.11204097252207,-165.1700135441854,-207.5473288492251,-253.4195700115171,-298.91282110359003,-333.7640540753489,-368.29585076578275,-427.84992524060505,-480.22519095532226,-412.039199670304,-177.3314670831967,82.0736980263794,60.0,100.0,63.0
204.32540456108214,216.89901561528427,247.27789822376747,270.08439477905887,267.35440859858113,239.78028341712132,207.6875781584726,190.12021115241066,184.6535468003975,178.0355744341984,163.3594446608629,140.16875328628,109.55595016730966,75.40689024261563,42.68329074787481,11.064247739570723,-23.986950017393916,-63.18882507631859,-102.14201440990838,-136.4462796433191,-170.08554272813686,-213.3829185170105,-265.4067069205211,-308.78049470466283,-338.4971010111108,-381.3117645435447,-450.84214933710484,-474.50015045053976,-340.0999953068886,-78.62436150187615,129.86862865474876,198.36728189028148,200.51632704609668,215.33930448908654,247.9560467738897,273.1371855718106,273.0073092686611,247.06359267566867,213.71772389252328,192.84141098232166,186.1797932705905,181.95618561492,169.9811865362276,147.40591540394092,116.85272890075609,83.49797034187607,49.77375840967032,13.051684334347605,-26.714256380615645,-63.221186864961865,-96.79162751364179,-134.9471048226696,-179.6806912901206,-223.85386490255698,-257.1918616696062,-282.61842591381514,-328.259535432769,-398.72337618528,-407.03280523469147,-255.15334893159834,-8.2429850200183,160.67752531604148,198.6358777945863,189.0251984178275,202.86751475443205,234.8318747230923,247.38742282055085,225.81043641646656,191.00789275208027,169.64573789996857,163.81394229149157,159.5235667462189,148.37757789367103,128.6965040256612,100.93320176912809,67.103453556419,32.565851459301825,0.6339119324372148,-33.24715816186601,-70.87492201349501,-107.14568018836167,-142.65567454939207,-183.34751301308538,-228.15753285770566,-267.889204137229,-297.5047358255243,-332.8795542573168,-396.6537351915551,-455.48552537661845,-400.2299219063713,-181.5592490630732,68.14732153155089,195.31962659762354,212.07798777806823,214.57444373380872,243.0720059251336,278.5467477144666,294.48559767953196,279.98623863188914,247.66488307884094,221.2708400646814,209.06489887041005,202.92581172395535,194.6452182502633,180.60879610216082,157.11285175269649,122.65255969402524,83.5680976214281,47.356065601434764,14.243927397876998,-19.768797254739795,-57.026758297157784,-98.54409763051189,-142.31858325728297,-184.5387177134205,-227.93006352100193,-276.84271020172434,-323.2537598524196,-356.7666760328672,-392.05921376666277,-453.4966286253792,-496.3441786489519,-402.3722916872042,-150.39836785698412,97.7180763500952,205.31509118447298,212.91559744787043,218.03593319888714,247.3363561372087,274.40254677835156,277.98232028933774,259.94933444867905,236.03129717170046,219.37525827548183,210.68606227321274,201.77670235299544,186.38362193365677,165.07280152884164,137.82570531954866,103.48822111495612,65.45437519704093,27.984589903746564,-9.48122348881158,-47.40056655154877,-85.14504369588995,-121.85140793251202,-158.51215906372536,-200.72470673420668,-246.7492312136938,-283.63587968691706,-312.094666282572,-357.35736288879076,-423.57917971357506,-433.25915064789365,-285.10843164709854,-24.565692689472485,172.05827598577494,228.63622768896215,221.61101635324593,230.09095049677646,257.1533147288144,270.8908764577756,253.8091619334877,219.27505135862182,194.26342868464715,187.45590055796512,184.5090012088216,170.70377187400396,145.56705416590216,115.08345809558395,82.87252565756225,50.709238926879536,17.944530000982724,-18.549408241779787,-57.47186012110553,-96.019663096019,-135.83180444214543,-177.22579145190144,-220.36757316461836,-267.111483090832,-310.24840864550094,-342.5051979326929,-382.50981992909163,-447.7917888449206,-478.13836823992193,-358.27974341126225,-95.75556922772061,135.50644909431884,224.15764482239666,229.3792459122276,240.3164605629521,273.8404333048063,302.4408174430151,302.5024489830368,275.4189733499595,244.77643518077576,228.8530868389368,223.87060614765826,217.5512630845299,202.6903460373324,177.34211377347856,144.29583892550895,107.04539746493106,67.15615702871666,27.922755364674188,-8.105347742748148,-43.28010615852179,-82.2728481002254,-126.80854618935577,-172.74549987079678,-217.3716484262358,-263.71008866809393,-310.98467603956493,-350.6278142159793,-388.044902310838,-446.8824939424974,-498.62178967912746,-428.4732539310916,-187.22573503567241,77.71314699057254,205.25183439830386,216.1406262109984,215.68983107037752,242.38912531576173,271.13699318783966,276.08610057762536,255.05265850436027,225.1416043389235,204.68848296925586,196.63361882287288,189.77765692540453,175.1058462088372,152.47850297794128,123.04740875420565,87.99000677000699,51.628206392757924,17.44631374111907,-17.217577710238807,-55.16491596394196,-94.51538873640227,-133.74389882294466,-174.766423655584,-218.10905555743943,-258.34739234536704,-292.1608362933305,-335.3996523237293,-401.55539511376816,-430.56781298724746,-311.9098377993978,-61.78116177551635,60.0,100.0,63.0
196.22354280377877,189.5550315348338,211.8746020222983,241.84820859133103,244.27400539387688,215.6736264623805,182.8066650971162,166.92057261592308,162.98330353506742,157.14710341829695,143.57304216039614,121.45672404487561,91.61427701438262,56.90991546212242,23.160823036150425,-8.695477222564886,-43.91428867023898,-81.67649161131216,-117.20223823742003,-153.72493351398884,-196.18402055445057,-240.62090614901695,-277.27277936136755,-305.8542070666722,-348.1737293276287,-418.0542731000268,-456.37747822839435,-351.2238475491248,-103.72072444959737,120.35974318261462,207.2128966955169,210.8669259636383,220.3655756999474,253.9503907933722,286.0301680921829,293.32672334729926,271.3854939787606,238.6195936995544,216.4844349306093,207.13581682965878,200.9657372055433,191.30950905055636,174.98002498294187,148.1420757707183,111.4243562329923,72.63666206529143,37.6452304632702,4.654107835933642,-30.136144527505007,-68.58496688233622,-111.16327495589495,-154.73030374069913,-196.64442689029727,-241.56389645915883,-291.17050412699456,-334.26007574101436,-365.3510121258378,-407.06816201806157,-472.53249377562634,-487.909184115198,-341.2240291334329,-69.32467011364994,144.5482600728602,212.86810383253464,211.81569668266349,224.78651093777873,256.75200002288614,278.1743068067872,274.42645642032886,252.8720060325772,230.19668447468158,216.31366428230237,208.55482659037918,198.05361685289378,180.76241667331405,157.89621951487325,128.59492846734983,92.61276414306964,54.52522129932594,17.22792243439652,-20.42508185267688,-58.34555720146168,-95.90553863328192,-132.24781696356573,-169.9260804877895,-214.12103973904527,-258.8446409446952,-291.91786487802915,-322.20623514427155,-375.98503965127225,-437.6136984738837,-408.6718728400148,-214.23084377654078,45.81624836565281,201.24625202448257,228.3665069573474,220.99535455294986,237.30425730572884,263.8039943866469,269.09854908659355,244.39082450747924,210.13760482823372,190.7733041787936,187.07302308630975,181.92381713351318,164.34090761673312,137.08780272389401,105.8593927909632,73.52631805506115,41.44435838681461,7.85801024897732,-29.743560501569064,-68.63202334206825,-107.30532844580661,-147.68769262164747,-189.39349905792835,-233.57018563771416,-280.531880537276,-320.45497574340015,-351.8298815579828,-399.41903574514794,-465.37084590300555,-462.6051460903245,-291.1898128496887,-17.36365232348871,175.66007514238044,229.3515971793905,229.7460975295407,248.59252039731672,283.99069331878434,305.8900538214483,296.67058553909135,265.7466128711255,238.4445226971982,226.85843652936563,222.62177669453524,214.31133459449686,196.39783571053502,168.39012824158354,133.8821255795901,95.70020174751882,55.56486555125797,17.196906877183192,-18.15469198303635,-53.96720301203909,-94.66732620644555,-140.17901514403184,-185.70463054725414,-230.4367992952928,-277.5848182629253,-323.52824865597347,-360.6404403335193,-402.2710720829283,-466.54003576002464,-496.33419830417495,-373.23984779371943,-103.52842821731008,131.3834965635461,215.53401143647525,213.64279826166384,221.145298724844,251.99518364182526,275.5871914645846,272.1652545995787,246.3515724068919,217.75966297568388,201.4347653083384,195.110995888703,186.4670145945571,169.2995384658361,144.6587899964299,113.37194104861561,77.36900003240781,41.53918920027054,7.687905373068649,-27.85773239883972,-66.5248849330328,-105.824812958601,-145.30014934701518,-187.17607828460154,-230.39899555642643,-268.53046741221993,-302.49438945294946,-352.86999735392567,-418.87703459986346,-414.7463997643024,-246.97424906644554,10.701363154869236,180.92382183912585,216.39515830131094,204.86713599431738,215.13449970520287,243.5374001513415,256.3069984490701,235.80456939439546,200.10589407142942,179.56469643320105,177.27472133058794,173.3772352019136,157.7387721851796,134.38288300793175,106.12043719595319,72.43672848240828,36.65884810306729,3.669075848527895,-27.348321399741245,-61.87795815528969,-100.67696742020786,-139.4436676870741,-179.60550178535462,-224.22443794746104,-267.892537902215,-303.941937494695,-339.3362092145264,-396.4008585072995,-463.8864609160766,-445.868474549122,-262.27358324657325,-4.753369942893795,161.32672744886628,205.28793059187413,212.6114895310653,240.6337927641038,278.5096203426132,298.0848704940242,288.4632204832768,259.6713547506332,232.09652201984971,217.91747618030283,213.75087373844255,208.27749236283378,192.92513573141792,165.3504512949671,128.45497724143829,88.66969231267768,51.853291425810674,18.07825857020509,-16.05499343971226,-52.2920464504994,-90.0744018207451,-129.92406936671813,-174.87003044531434,-224.7484041922262,-271.94586753330526,-309.0330879689333,-344.7866682038898,-403.6372509725356,-474.75491241105067,-461.95637779512145,-278.16764416739244,60.0,100.0,63.0
177.93334629152417,214.70421087813853,212.51961111359162,233.32804353195854,265.14658179813307,279.69286876284116,269.31989553622657,245.75565720897833,225.18644222370696,213.80984039535724,206.151237063697,193.71980251501088,174.70450728384122,150.17993870191088,118.76057058753483,81.57904645605777,43.69798923056335,6.421796067814938,-31.38786025213297,-69.26897417303432,-106.54154774122618,-142.7165942865133,-181.9766826873616,-227.63178375524973,-269.80100358122814,-299.797882421247,-334.54187956726804,-395.9547224941339,-444.0342673037133,-368.8466635199573,-137.28322303162668,106.21143381028723,218.86371039921303,225.5985594832893,222.8934417325152,245.45104249725398,268.51557873433575,264.58278238199557,234.14493952704734,202.43320740932757,188.72198333316197,186.51110606307032,178.19221255242311,157.162016495662,128.30181048396767,96.54659187684136,64.224808501075,32.06787633600251,-2.6178458817094223,-41.02915793521062,-79.73997264351517,-118.76581466186765,-159.63701396483978,-201.7548854275198,-247.10748100818907,-293.32056995870244,-329.705773880943,-362.61173277553735,-418.5760466728294,-477.4545057149776,-431.6751627030921,-214.5469191452723,53.1844776326098,203.08199479813914,230.33105730340114,232.22352251353348,258.402082278948,292.91676956553516,306.54722120060455,288.90091427253776,256.4880917901161,233.58275931764095,225.4814235794733,220.98541342230027,210.2427010262117,189.22873754414118,158.90552223333546,123.17664137350697,84.1654042487184,44.14166453952987,6.7597367107394986,-28.23579922240165,-65.09399133903234,-107.50644920818192,-153.51482233975017,-198.55874894319155,-243.75772771607885,-291.41936332889765,-335.16406214164914,-370.9094725018266,-418.9474946812951,-483.93613627031726,-480.3658092147193,-304.2594081224506,-23.342523073850067,171.01488530162737,218.52029858087442,212.61468048828812,228.82544551360954,260.88029921558325,277.6130504004162,266.26885589218193,237.45338743677036,211.53272030625143,199.09073162014104,193.33715315858012,182.3877570817287,162.88552048726183,136.27668915538058,103.27296707370292,66.7861114446635,31.664121029862223,-2.235420934180714,-38.79207775580384,-77.917721684805,-117.1245453218787,-157.08071166217496,-199.74793269339918,-242.22608878365037,-278.185982332669,-314.28190164788526,-372.3336444876136,-430.5521992194831,-383.91618179033634,-173.64897349384447,74.74466365428079,202.33791561033374,213.41843952368083,204.61029198855402,222.86950787587074,250.22630107955325,253.65628378655342,225.54005435350166,191.75848087891646,177.77591726468145,177.14509716190747,170.0168437441562,151.53934364709954,126.7479969384843,96.90786387969483,62.050150969812506,26.73379032530976,-5.276231342227555,-36.76086149678352,-72.83812589597706,-111.98606364982572,-150.664074115819,-192.1144445600042,-237.33369578695928,-279.17042451374516,-313.3743832721056,-352.75077181295677,-417.5184687128104,-473.0739807062057,-409.5067364855149,-187.30666053365866,57.46532791862599,183.66369787232898,207.152906724709,218.10430032058292,251.95815405254746,286.9485079435437,298.22297330401534,281.2442967391405,250.7546909509691,226.49624872566133,216.1504473712138,212.78948193544718,205.08106082343258,186.16513930491814,155.4176850112713,116.92499899734082,77.60104030602616,41.92092833578363,8.387261096398776,-26.30736586449835,-63.08642683653214,-101.26373002043901,-142.2649590736741,-188.98030961020575,-239.12177279752757,-283.7523674803679,-318.50791602473186,-358.54329867200533,-425.58080938670474,-485.43025651262116,-426.5414724346226,-201.1963321882939,52.04698127525404,176.81456837585193,188.1486862538245,188.98349127426565,220.22831150879037,255.24834412771503,262.69088893068084,237.9227838940212,201.79253641444055,178.2495528621317,172.15437521416786,171.827693929787,164.30073404623025,144.31532256844847,113.03198589131433,74.89792080166463,36.25398988931143,1.057496426451197,-32.78753296396715,-68.46533058719996,-105.82613644358358,-144.8490650561996,-185.61858681769567,-225.09226703752583,-259.8031482780662,-302.7894678942959,-370.44096904631385,-412.0057777127629,-319.7622580462863,-93.85533800787279,109.22966440482153,183.85978909974207,181.99772997938996,188.58873950011463,220.57794344273861,247.61673435791585,243.70412935858033,213.26203611653187,182.83331289753394,170.37847803288992,168.6963757508796,161.52040371899346,142.60460260878418,115.45620293257326,84.44957686131958,52.271329692720116,19.30661168992491,-15.690658388601959,-52.485590000418924,-89.53232207500476,-124.88738650949263,-161.81386738974555,-205.14423126033614,-250.31514866014317,-287.2197268364795,-318.93928205970946,-369.91607622973123,-445.68347866452075,-466.0437633235342,-322.5842043370557,-61.13338106281285,138.44979542855268,60.0,100.0,63.0
112.49911252212969,219.55660340433602,229.66125176616225,237.20135186522157,268.95533709553507,299.96773510509547,304.3934696392608,279.83695230822127,248.18029238820722,230.07742124088995,224.3760800651317,218.78945378193092,205.28449605243057,181.25863937490348,148.98991062605097,112.19616658577955,72.5270313416372,32.9721087271469,-3.4501005081768654,-38.47306941397181,-76.72977502584314,-120.6705589217134,-166.71675604990807,-211.4123750331452,-257.35845280544333,-304.93977848265575,-345.90871222028215,-382.2405377599184,-437.7649674179716,-495.90555263863547,-448.63110219903035,-225.46198762183207,48.46564546654862,197.20725388007574,217.31778226743097,214.07435927513674,237.94701573787725,268.33632323356744,277.1316731365478,258.8458658268894,228.87003184630433,206.5635108113065,197.339376473514,191.05316609931407,177.56461702763238,155.8933821954588,127.34384831611035,92.85951862097161,56.360500666311346,21.92342964946569,-12.419066267550742,-49.9598842719005,-89.28807587751814,-128.4740971246196,-169.12414633976022,-212.343804359115,-253.42288181379155,-287.6838251501867,-328.17195291346343,-392.53809046401665,-433.23800620517295,-337.88385386168983,-96.87856690410217,127.32463471812015,213.39676691238708,209.25491685461847,207.07085105978481,231.44448784808554,254.7304414257604,248.1136991000341,214.8032461199638,185.32875805645386,177.19452316505573,176.33519896477432,165.64083281285966,144.85748848719442,118.70266508509813,87.23152910690746,51.632536098941,17.135256327313574,-14.153668960496598,-46.61648524418372,-84.07568301119463,-123.18660589165569,-162.13561547879877,-205.00941357971683,-250.1436611692427,-289.68884059260677,-323.12715705487676,-368.64873324989003,-438.5525535202129,-471.86036093457864,-358.4259967364721,-110.45427754484936,108.4932395155554,196.93106533977766,208.47246851814594,225.9165841579018,263.3515597972578,293.2626435958771,295.8682304729427,272.8608232942836,242.451174787042,222.1635711232329,214.99103336201304,211.4301728976146,200.90559022372113,178.38974364817477,144.81469272898852,105.34251875412319,66.88403927933886,32.17842298129561,-1.4208285556447153,-36.74775749930279,-73.97921699080698,-112.67194908529763,-155.12115244388696,-203.43226470590545,-253.0114501159995,-294.58951107858667,-328.32157259077894,-374.9281832851688,-447.6070964989725,-485.81326516788727,-375.67158081085427,-121.77084895424204,104.15156338477436,187.1673509123256,185.8374362117074,195.3564600698353,231.69766775638658,261.02375133082205,258.28054165204907,227.39119028758108,193.0392146867448,175.03131854761511,172.13338427432765,170.7959395916719,159.8315500657819,136.29650495877735,102.45103680371429,63.51261363244081,25.71269558679365,-8.66156779304137,-42.86999734265013,-79.11772112563584,-116.90086714971983,-156.49866275122648,-197.40281344580157,-235.50600453028767,-270.22302044593494,-320.1594689143379,-389.8433365656527,-402.74503638369276,-263.0856459735112,-25.1027658265377,144.10879127672138,186.6214566772036,180.83736176181242,196.16805337437847,230.48605134223396,250.1064404095738,236.652600643854,203.23520093828253,177.26795136690941,169.56222007286237,167.72535930427395,157.20792848782716,135.37520599505206,106.7483497360122,75.19765163681006,42.88581078125564,9.42727280237809,-26.17708039546366,-63.28090009657568,-99.91256629043056,-135.1021082793445,-173.64415421057973,-218.48571919316868,-262.1116547356766,-296.1584099744214,-330.41963405249663,-390.8645604447575,-463.0281547514985,-443.5999222199939,-251.81863745291378,9.972570410993312,168.73226106066193,201.12151051627032,202.67136108662044,231.63918602756362,272.29678438060273,291.9176718006858,280.23835265430085,250.9149508849543,227.6079615052958,219.62097591476928,215.9366158847048,206.13326719250816,187.56677085962417,158.26547670224747,121.33140479158348,85.81520514967382,53.02684337646389,17.595821904832807,-20.35803525112306,-56.52762489512166,-91.4915440293672,-129.94634123531478,-174.70083880463656,-223.92172287169,-271.75716650666095,-310.53622928837115,-343.7495933581105,-396.54273557283466,-470.7949837286263,-478.75528659031664,-317.0773559291852,-47.526120720749184,146.93277364773004,200.56684877998114,195.71719197260856,210.58326882989743,247.04943259277383,270.6602164440185,260.65720414350403,228.35888246229763,200.2993929651834,189.61437080156446,189.44259448413274,184.78825004565462,165.97217795155086,136.4058310888611,104.38107520458279,68.92376323574034,26.586317547734758,-16.035392655916453,-51.97770239038866,-85.4007787045994,-122.73759481284056,-163.97283616188122,-205.78738288518306,-244.3657388450648,-279.4586600927931,-327.05902045114817,-397.9131931487489,-434.65243007919736,-330.6134812099733,-91.84673453864218,120.61618556653883,60.0,100.0,63.0
-21.90428859451981,166.9985029984778,216.7001062675265,205.82573442223148,212.0928771063232,239.92133904281053,256.500694796037,240.12636400156484,204.49323641962084,180.9392067408883,177.22319683493012,174.5597500305865,160.39890471247233,137.77447782905705,110.20244539209831,77.170913271795,41.33306630148458,7.855758982408355,-23.12979125537072,-56.95568635989201,-95.43694151914907,-134.31224373652805,-173.98976758769416,-218.14350306470686,-262.44241650920685,-299.54968192965947,-333.8605934383107,-387.1269155603057,-457.0472530151944,-457.470668854575,-294.8333973099166,-36.59435203609647,147.3946859745827,203.65504349525202,210.86147060673449,235.66607525124863,274.0245202265718,297.1525970623145,291.253914980456,263.86941655938017,235.09982335920216,219.01663460319406,214.13110719757967,209.45046050175696,195.6879770145259,169.66653530036723,133.70110024168815,93.87752099802229,56.52180594104194,22.52552890482625,-11.393846605986237,-47.35440587316755,-84.96874171992413,-124.39021558897151,-168.51801950616039,-218.03276043263895,-266.1747274235442,-304.605902544129,-339.20157136820274,-394.03049087278316,-467.29396576992974,-472.94891814453194,-311.37238377757257,-45.204877828005856,142.93400519092913,190.30167667201482,185.1022805638257,204.29116334703383,242.48163804302717,263.91821938942996,251.36847092267868,216.6112353628796,185.8123816814757,173.15556078663556,172.21974128848012,168.89649271033642,154.28467346524317,127.39733438693568,91.43484471907615,52.24943322009657,15.504762284461505,-18.381095573081375,-53.14662682314942,-89.88528600401204,-128.1318238873721,-168.28591153552122,-208.95304350446602,-245.4649048359784,-281.93910614188104,-339.8291785320484,-404.7898471643341,-379.55689792375466,-197.23687907524305,36.946230031025685,167.3654053078157,185.53305928390776,181.99235170094394,205.52466833224668,239.04207021446044,249.60416861206747,227.82683244359274,193.96297700479707,173.40594087073455,169.23729862617452,165.9344799885284,151.90288889098142,127.59368721189314,97.80328545858853,65.90225888833284,33.41015514182928,-0.647662264681588,-36.79423726855237,-74.03930368220176,-110.11840804481048,-145.6065792504646,-186.08773778038756,-231.74100655198322,-272.97887963656717,-304.9528278034168,-344.3242755437005,-413.5321635575899,-472.6907262694474,-405.2621123400898,-174.62848469097517,71.20370972230278,187.59379563412318,200.5046643107104,207.90579316178116,243.84507943147898,281.10980835181533,291.53354440630216,272.5330421409955,242.6790559547809,223.97018510596322,218.7654682105505,213.9267606869039,201.74336711850302,180.2553971583567,147.9840057572403,110.62476708414086,76.29462378869013,43.22357623315549,6.683316056252558,-31.09877114581653,-66.57139512979784,-102.03804260949953,-142.22529271998704,-188.65130308962682,-238.2378653890524,-284.131790493998,-319.9250810839317,-355.72381678664567,-417.7724156554549,-485.82046495577885,-450.9567793536163,-242.37703325362554,23.05366604397643,174.87289915318394,200.40016313699184,196.56972992924415,220.27322784930828,256.66342224373636,271.3132771839493,252.4484993343147,218.81102004984086,195.42415450239355,189.12040286089967,189.18844655696628,180.91439252520377,158.09730734057996,127.22982766395714,94.75813137431393,57.30794294613138,13.828779447485697,-27.124111915094787,-61.521849410903464,-95.66116622164483,-134.38824913417906,-176.14310800561842,-217.45562239904345,-254.52202703023744,-290.8570524373794,-345.9026604729201,-416.84601686889323,-422.4850094332213,-270.041878554296,-19.95690838887038,157.4216295065987,203.57955214947214,197.38333724316345,211.3829699052185,243.9165532039997,260.6277781603976,246.16058415786847,216.11903907812606,192.7306862727686,182.03398882984737,176.00666634388477,165.4828472975575,145.89123609274753,117.91005932885145,85.28414138187169,51.85172236538915,18.544083975601403,-16.365401575308518,-52.179065288371625,-89.38092831089794,-131.06791123062456,-175.38875574612223,-218.95208998172828,-263.8369383363206,-306.5562468897291,-340.80124584148024,-385.45242923560824,-458.5389383891813,-494.31459387074835,-370.7705360386793,-100.14707623102437,133.2280803491477,218.06495350278328,220.16923429931524,232.07300084674304,269.59391718247497,303.1471619192764,307.9325506655831,281.6078371392057,245.11309624601193,223.50159333481358,220.7785742908232,221.677235377381,210.85554942165103,184.73807646280656,149.973711798791,113.53949998433647,76.16164153364849,37.25732486208059,-1.888340086949576,-39.99580674814647,-77.74362213861744,-116.90182927534822,-159.03173350989962,-204.99061700303,-254.85306948049518,-303.8889544284149,-342.54379834179156,-375.53116880187946,-429.6753516534858,-496.8329050892713,-475.33999781575824,-271.93382829515133,60.0,100.0,63.0
-237.31346155417648,23.80016330713568,168.80190459390917,189.25373006655045,187.0520945581937,214.97938873863737,251.71356732304494,263.772234171598,242.4947631503767,206.25935522276654,180.25337903603156,172.3032143693475,172.0654624040823,165.99590298687934,147.69260207467465,117.72102503613687,80.14710191411046,41.22951073757121,5.571407108901948,-28.203928172770503,-63.59705106133574,-100.76731783960771,-139.53366264417716,-180.14947243010874,-220.11301227250024,-255.23550583269522,-295.6498661729794,-360.80330489449364,-412.0870862890318,-341.832269337704,-126.64397009916543,89.08000235423324,180.5486444350034,183.04807802148562,185.88535894180316,215.7957748554395,245.50243527975442,246.18404721350225,217.95349279923084,185.9797542286052,171.05029395327864,168.94030309457293,163.1556089255475,145.71638840428724,119.37040787108462,88.6902711844548,56.57999447160301,23.79666211707773,-10.90563757067635,-47.51707464721203,-84.68212484219349,-120.22562398594813,-156.56917843161042,-199.04658343573536,-244.59998416898202,-282.9131077618903,-314.26025282506805,-361.14750635328164,-436.0574607143243,-471.2601197605949,-351.7429060352199,-96.23765760004885,120.22329055613999,197.3521525131994,199.9988096876691,215.95394126636927,256.1223382806698,287.4931517421127,288.55275418126405,263.885595028562,235.53041454279088,221.57971865468863,217.8753380384545,211.26338430782454,196.59423897589764,171.98048072378305,137.25080195614518,100.2620400422158,66.89802480494313,33.067395431310565,-4.341872248498767,-41.595890592654456,-76.59871027861604,-113.00455411015142,-155.05591868471762,-202.88875763995716,-252.25927260993546,-295.55269569989207,-329.13663877960056,-370.18129410503127,-440.26000994301575,-492.0852501888124,-407.1066757564119,-162.498382403154,82.81267491995644,191.4943796008264,198.18508888133087,200.2513078734413,231.1226683316466,264.2910425338659,268.9402477437682,242.96735523338066,210.26371894604597,192.09582494972761,189.18115443639817,188.17970852196387,175.7248122574043,149.55253112423696,118.01066571538905,84.69916692916156,45.098698884595365,1.32297208780086,-37.57728503180212,-71.06617630170908,-106.35509098420778,-146.29711005224883,-188.28356676560827,-228.73651171751058,-264.4644736821388,-303.9182265960375,-366.69567341164543,-430.5546113868849,-395.9069006950258,-200.3817060873861,44.88225886559319,182.2293031935056,202.67155845668051,198.13583153133177,220.34681257900826,251.6857656048598,259.4349565559785,237.93514821011988,208.03261892524196,188.54082013733472,180.28360675794093,173.73085676233308,160.81357357297995,138.53577409619146,108.76654888928799,75.5845360076587,42.28842016788279,8.65352680647824,-26.69005809561341,-62.63652088128442,-100.90748895332283,-143.83512359637768,-188.03446598910847,-231.6982897846558,-276.8635225502403,-317.1238141613612,-351.1222847255475,-404.3919283135944,-478.326868584928,-478.73156517081316,-301.2537765770343,-20.290178753988712,172.61600978988534,222.02420096502507,220.38919979030385,241.29393882977035,281.13720467085034,308.06628713958105,302.9720438377009,270.80620131407477,236.6506183732735,221.24041475368256,221.5006837782035,220.1679985895502,204.71440403937905,175.17715566554486,139.4801421668456,102.89696674987897,65.04905821156419,25.890603650443353,-13.015780967649,-50.865814348405735,-88.83239098097475,-128.7201658869303,-171.8880038209286,-219.0585989318549,-269.5220894459934,-316.42215534167946,-351.6941684831236,-387.8986919269346,-450.47835391859564,-505.88576932420267,-435.3786419098422,-187.96269773020404,85.95217871388691,219.34384277402353,232.93980052761285,233.0228041300146,258.6415530558243,285.5953721589421,287.5808493218324,262.32185100311955,228.80266391363068,206.3628716730788,197.38871072038967,192.31304501531443,180.32285667444927,156.0744375087973,122.30137659264341,83.73406206270461,43.33759477127499,1.8228474027093633,-39.35068310471593,-78.19924384629061,-116.81170190884184,-158.42519463084963,-202.39063291513696,-248.2960170597384,-291.65318672619884,-329.62168958800675,-378.59620756447487,-442.86411514585274,-449.6492756869714,-294.19433936984524,-19.49765466535242,187.8514249588004,245.0497407489093,236.28661065032122,245.80638644442902,274.0725940297325,288.6160351783147,272.8952709450995,238.840794598564,211.69791655177028,202.0238268477684,198.187926360708,185.52399910124407,162.18350280714773,132.76179857888118,98.60380527637923,61.255921285753345,23.074124351513827,-15.242552580098872,-53.88605200578567,-95.18973700435916,-140.34693629772087,-186.30793474748842,-230.67965236604417,-275.08543531636406,-319.7355283657022,-358.01975433873326,-390.40188618491817,-438.7832757401708,-501.1835490709292,-486.22058826053444,-291.372790295873,60.0,100.0,63.0
156.29888766795705,200.830895890935,201.23580891791886,226.3078950054154,267.543262277111,291.16647700550817,283.3010913888736,254.95222036415393,229.76644137832992,220.10316974648555,216.66193103786648,207.91384375351424,190.62018355365254,162.78310797104527,126.34412693827667,90.29179976487838,57.44758584401022,22.550574434355156,-15.33542542739315,-51.85918079791338,-86.7402235160992,-124.47442248609485,-168.39696551971423,-217.27912146246274,-265.76494269967634,-306.0059157510206,-338.8640995368653,-387.55573192619505,-461.8881850070115,-486.2659173407062,-348.3945380810659,-82.78793868205221,129.7638790637647,199.22138364294435,196.14036494814604,206.7524381926792,242.16326145263267,269.32476344474026,263.81628622339326,232.95557883407338,203.08683837786336,190.13382657014776,189.39894804858307,186.13610479683786,169.30144120275844,140.60470890783006,108.7191169511149,74.05431668429168,32.47613110297748,-10.699181780830358,-47.51671631735236,-80.80426018925101,-117.47772134504206,-158.37288494238916,-200.30940911441445,-239.54572498347022,-274.5851497250419,-319.18734522244984,-388.2402006357829,-435.8743602489892,-354.46270933052335,-126.19406680399437,99.45801431384011,196.56340218388803,200.07290493503018,201.63743399530446,230.14418595270305,257.27622588750046,255.5988271253715,229.04036569353607,200.9531837386007,185.3582982160275,178.654173778899,170.89136639914267,155.32804782427516,130.54095686285822,99.34391333220209,65.90131833045395,32.71010647733334,-1.4122723367138492,-37.034643708668284,-73.27698665027636,-112.87905454975095,-156.69430146876283,-200.58557563782537,-244.65537919869718,-289.4736861401753,-326.91106786993623,-363.16041222569555,-425.830991788195,-492.20350227668314,-446.8719554349344,-222.0960518244484,51.02067425437717,198.905745762464,221.998258694988,223.08201175665286,252.24869860272017,291.49231537195857,310.154176022747,295.59691736483944,259.8707481483223,229.93874990369912,220.38371895225487,222.04685695714986,217.38876711067306,197.3416247772038,165.1257687012249,128.96123275918566,92.13793741210934,53.81457268717999,14.550199170783646,-24.038657354537005,-61.74342438415632,-100.08417876673064,-140.81785411068876,-185.07991665730668,-233.4484815359788,-283.92587070500525,-327.8308619078163,-360.7599793363745,-402.8683162749919,-471.4333755845173,-504.0255484650377,-378.9598451035345,-101.65599415036388,141.7580486153393,230.63945262389748,230.8228962759775,238.27306446705808,267.79967081025734,289.345451919244,282.51987515327056,252.41021422455552,220.71999533375802,202.69996110289634,196.0355878500346,189.95639769749766,174.5764303275171,147.06363025284298,111.47857802448901,72.18486170634557,31.441586582637605,-10.229285503704846,-50.82313072129175,-89.17764681940606,-128.5038665120166,-170.92730122731018,-215.50208242048095,-261.4469273664299,-302.83457454846234,-341.6152804345023,-396.9751173136977,-456.12869278099265,-423.714050750161,-219.68827730401924,54.93016009299102,218.09497150958828,244.07908810225422,235.75016318244894,253.45949708758587,280.93275748203894,287.17111756702036,263.82185513036,229.34971942576058,207.2997815860644,201.1235082396991,195.78661720050087,179.65944164354372,154.183591934765,123.36046283014399,88.01391500872418,50.25376586232706,12.004070426889125,-26.31648739486039,-65.41296918714124,-107.91451868511574,-153.72274877849526,-199.28068706222,-243.39035864174943,-288.1406250327916,-331.7968633705659,-367.34607201667825,-401.627572722067,-457.5296881979706,-510.84461086334363,-449.5800158910252,-206.74020133095675,85.20675562651286,245.64006041898904,271.0587019766465,267.5463915660901,288.6624835968532,318.02834389044756,328.1642460094623,311.2328528486521,280.375377233646,254.90027653574404,242.33222166302954,236.5935867420417,226.15027252063695,203.26583430495012,170.34817942841568,132.22258424977795,91.28361109987033,49.4471796127653,8.330438254696208,-32.257818170559325,-73.86179373302443,-116.79501811615397,-159.99614102170807,-204.91015780390134,-252.64376117773813,-300.39750614919893,-341.6849635824394,-372.5989369418803,-410.80225298685536,-476.4442280696794,-516.5655743850161,-406.996486161111,-130.778474481918,132.8397245281965,239.2522449308006,241.04509193164293,243.9960026073028,271.8115361700302,296.0027594172858,294.0582980763039,264.45726791773376,226.61908433275613,203.05842179107998,197.14843155302873,195.36556530345902,182.88728834957516,155.2975204545951,119.13587792153592,80.89549515046596,41.54029828243763,1.546922051464882,-37.17762701863833,-74.25862981453955,-111.9618275532209,-152.60107857540828,-198.15024174542887,-245.849018420276,-286.54631280030037,-320.44757184325744,-368.4933477101827,-435.9392951765534,-446.3298549828619,60.0,100.0,63.0
141.99584276757645,202.7402778608633,197.85356938840923,207.79059423212345,239.7866154973481,260.2237759859673,249.54280917898754,220.10305220393838,195.04753383512048,182.95388938158658,176.90854668253215,167.36486167743894,149.0444360511397,122.00152419431687,89.74413077382242,56.271853605774076,23.04622861216767,-11.623468331526086,-47.39115880382656,-84.21225023635797,-125.25360811173496,-169.5149794002636,-213.13485631584,-257.77534943576563,-301.3708155589631,-336.3638652326252,-377.7332414737462,-448.3770937039497,-496.51510387899225,-398.37787668206136,-138.56361232678668,110.40145985907311,214.07320461304502,220.64457236481564,228.60653362762426,264.0857823068359,299.99725217172914,309.3020247227204,286.3341506877853,249.5175314759642,225.10813641708376,220.5149648030786,221.99811919621288,213.2367824711456,188.9167018155767,154.78990869595452,118.4174798410781,81.23730701568456,42.49375480789454,3.2774902092812455,-34.97462206748882,-72.67394704258233,-111.54072026731849,-153.21287970082798,-198.6243803057764,-248.07219155972268,-297.7732660671165,-338.1208440291727,-370.5395365602439,-420.63820116215186,-489.9773574501185,-488.0802642964476,-308.2788918186708,-18.77877883350907,183.14942834745182,234.44080757155155,229.9868906666538,245.64606429205935,276.1878766205133,290.5490602157883,275.39173032059256,242.42123770118772,213.91356469746276,200.03325234061774,194.7251395473342,186.77316603418083,167.76355088753652,137.38625722754793,100.35710578702205,60.53378621622656,19.44903865363411,-22.187832590669704,-62.06810803852802,-100.24759718808303,-140.48701732655044,-183.58582404957497,-228.78820496594108,-274.1731580302818,-313.61958942025444,-355.1737834102087,-416.3526407639614,-461.78059852455084,-381.9797718524193,-138.5899697439986,118.70931430604624,235.9323135917804,240.6991063452874,237.95938607172445,261.97521238664905,285.8538337197638,283.0594304373369,253.7826854495267,221.05197929911566,204.36744359035745,200.25556751285674,192.37842704724085,173.006350161078,145.77103338320512,113.56193465485272,77.22614200581766,39.223601115567895,0.9299331466280686,-37.432467910280444,-77.24800330116872,-120.94495998419603,-167.05671910800322,-212.10322691572142,-256.1799318622599,-301.16533097649324,-343.0866237872183,-376.38427903754166,-414.956974417833,-476.8148368548584,-510.73255233915916,-396.1270466228146,-117.61279321326005,149.1974607554174,262.4714710209609,268.87849313267094,271.02408879247076,297.7420211772815,323.72744727598155,325.801290996398,302.82063856017106,271.81518360435405,250.02110070906588,240.44527001868266,234.57441231880838,220.87699490085814,194.52899834119808,159.72580369539446,120.60913150925398,79.1910781517642,37.46655860924926,-3.3978840341945014,-44.10498973776639,-86.19052688322012,-129.24417965739934,-172.6847035428989,-218.46666536428182,-266.6482747928808,-313.3652211890015,-351.43107789564266,-381.5079439680828,-427.23652505018566,-495.7589256789686,-505.04526361260594,-339.1257407773681,-43.51619841833133,180.72726392141135,244.96390466657826,238.95696630284556,250.43837872315606,280.5289774961466,298.6161660935491,287.82925208709696,253.1800311467677,217.74557084094482,199.94872204588526,196.96478978204834,193.31915419197205,176.3101515766952,145.34034009825479,108.17830221772262,69.65677198555551,29.975680843317704,-9.84785917508594,-47.99181617681693,-84.9713611684245,-123.30585775473556,-165.21799102389613,-212.0667214452135,-258.6883913057034,-296.44921942749085,-331.7240047976661,-387.45258735349404,-450.42905460903734,-420.94423520022355,-218.09315945845876,53.594961158869914,214.9140336718831,242.91991622925656,234.37872176813588,248.5912857240824,272.83334162137356,276.288065690537,251.98389566037417,217.47526943924913,193.99386098270628,186.37177241174936,182.84169849002944,170.10744865798856,143.1635242333463,107.69379086869723,73.19658830590102,41.82811468893142,8.21915507851173,-28.488689187283605,-65.5288855874501,-105.14611512432428,-149.1231358121768,-194.30858994210433,-238.6302044650474,-282.92178200383034,-323.60317076574535,-355.1579731597062,-391.19059312628946,-455.1642724935386,-506.26210079797244,-419.94030915489986,-157.8334910742135,116.26016221943104,246.59728524693395,263.6009523789307,268.09668375524774,294.2439794766647,320.13168033670314,322.18617545571306,298.2192382175918,266.13768706691627,244.8608538089178,236.86191480964385,232.41651662592037,220.94352160971624,197.6152852779849,165.06572475072414,129.26304974999647,93.83773992341959,58.63296994075582,21.82930523418608,-18.246924616220902,-61.52542229651052,-104.45273947389042,-146.13879370802837,-191.2359061353267,-239.79016157474433,-288.2547860374163,-334.54332827101865,-371.5482213576923,-397.13807121847174,60.0,100.0,63.0
-227.32057867460955,55.603842196240606,210.75061103226054,233.87972171768186,231.4571013604104,254.3907519258558,283.082094923039,289.1118391458875,266.69689458454064,232.90513720147058,208.44689378849813,198.10555752454448,193.17893773608708,182.6041685110473,159.96731717021535,127.16583434472534,89.01716692086093,48.787070570635905,7.390295086849791,-33.9829824350013,-73.13373864413869,-111.52225725199825,-152.7179316961872,-196.41299219332956,-242.1533463400042,-286.2923753324914,-324.4505836412063,-370.72494046931814,-435.0863007516779,-456.5413653847,-325.00422842449325,-56.30979430815487,169.2781626338165,243.87812477963254,237.33662232653379,242.81623839994108,270.4339119861831,288.35774713298133,276.56559438390923,243.48582560737825,214.2713356813334,202.57897014837926,198.9966479802552,187.91986704327482,165.7198334087329,136.95963972076777,103.39789511557714,66.31319200745486,28.17394942845878,-10.14019657757002,-48.65416901509121,-89.44227527982687,-134.19408185425334,-180.2699544157936,-224.82712432113607,-269.0914480056828,-313.9702042214651,-353.5012453098049,-385.7590553315514,-430.7253133651721,-494.42737279486914,-497.4946938638999,-327.36268824633146,-29.788003282568948,198.82468335347738,270.0763355301435,266.98107658549566,276.9119835129209,306.70181021713586,327.2769577099509,321.21459957110284,293.7408697749912,264.1345360909556,246.2376426031415,238.88831794234872,231.85485803850446,214.47264412165651,185.09982230800745,148.75926865719276,108.79946026352377,67.07911486278839,25.570388738226626,-15.103550926788955,-56.0859642962219,-98.60365917678087,-141.69841777577523,-185.58644514419038,-232.24915524916554,-280.5586798672483,-325.5791776720324,-360.30620875030155,-391.77031909209165,-446.2662230915861,-510.54091943038156,-477.6609686237405,-259.08502712950707,36.79410547813528,213.84543768212222,244.97927556554546,239.02462778910407,258.5964603223075,288.12132877263525,298.681237136878,279.46500579526753,241.87566579353876,210.50865153232095,198.1581135898906,196.70358951175183,190.06661248995567,168.50646872782386,134.89571483261545,97.14586216710241,58.3075709774909,18.391270478709934,-21.083514952617673,-58.6919609237841,-95.80652216539343,-134.94284604495698,-178.29724918322447,-226.00563454544002,-270.6817852031436,-305.98106512140686,-344.9131827300077,-407.7350609144055,-457.20501791468394,-379.56364716894325,-137.61510959026182,116.44218446179478,233.10203159066214,239.98298736196907,235.70023646639447,256.11548449225444,276.8708762608399,271.66331223058785,241.97941460607154,208.92944951911568,190.48662721175646,185.6124537728081,180.5312413528698,163.71599314340037,133.33888226001943,97.31914907082026,63.997365162132446,32.55929557869139,-2.23359374804798,-39.159849298832725,-76.53188351519827,-117.48223878618143,-162.2250215271185,-207.18153826829618,-251.4336862736887,-295.3982247329984,-333.600722208397,-363.8188820755529,-406.6099390716892,-475.90330307581684,-500.8793851765091,-358.18326359810385,-70.0956159686714,170.75152895709013,258.26762463814265,263.02955060725856,273.8833356758697,303.09477549240967,323.7305789741379,317.4224304780329,288.7462176598474,258.41372650201356,241.5009058329448,235.7359205439473,230.1831678769755,215.43156402814887,188.8989246840071,154.81980570651714,118.93202268997459,83.71956294261848,48.24388788008606,10.642240143222033,-30.521499150557258,-74.15053278583194,-116.44754429737472,-158.6617162594928,-205.0865003401384,-253.8908989630799,-302.0218230139143,-346.6278615042058,-379.5647893278154,-405.507529524129,-455.6658598914251,-526.686137909308,-507.95714279310437,-291.3088624483422,22.419154757818646,222.51368089357717,266.48907622818945,262.1678181521898,282.1554008893344,315.59172131064577,330.58244125426944,313.71632320630454,275.27807572022414,240.47310059570998,224.77497012765863,221.61974081164905,215.28923231207804,197.04724759941158,166.81718909578464,128.5259993423113,87.9002001848205,49.00663240539687,11.26130598543632,-27.487766098642176,-66.45715932806188,-104.86002815966157,-145.45050132799594,-190.88864003896103,-240.37708271697332,-289.221067780189,-327.4670224397852,-355.8474658214116,-399.4652443878949,-462.92998837919663,-458.31221581692563,-277.96756837940507,10.15566767986871,208.94105097250895,253.28778924217215,240.2093885362462,251.39336259718232,279.88630589377175,287.7240647435775,262.135607978666,222.39389493655108,195.27790368938858,189.19623283077394,190.31875044082506,180.10857556327167,153.83080693578924,119.08840915831802,82.25490934743357,44.29194451429808,4.778997063162839,-37.673718419273875,-82.61684876596658,-124.93220260720886,-162.84910283483882,-203.52150626773016,-251.75424236236057,-300.7457015696953,-339.2176561813695,60.0,100.0,63.0
-246.6611625357893,51.319844659235144,233.97143843310803,271.5811744842467,266.81564600471785,284.66618941995756,314.7805976768741,328.44797160051723,314.73601651604514,284.5297963901018,257.54394213074954,243.38933198652012,237.36735404837557,228.19793862012338,207.019147084912,175.11130344962558,137.50029091399838,96.83661372241998,54.99710641339282,13.754622792143422,-26.83034110471071,-68.21877209477792,-111.05330446696154,-154.19946704338432,-198.74885706993467,-246.18832924279917,-294.2275103889136,-336.8438051355143,-368.7133266433612,-404.18513260705095,-466.88858883624954,-517.2231139820232,-433.17690684516066,-171.83328442880958,105.72278375054665,233.7806725880659,242.3925793570252,241.80623773082183,267.6107338623889,293.9986897015618,296.11381695922944,269.45723039404396,231.18696433213793,205.01617649108448,197.3239417298017,195.96565878352257,185.47027079724214,159.66337530702862,124.15114951521045,86.04286892783833,46.851931092934755,6.842995684732284,-32.139823446769554,-69.34366036881582,-106.81543200948063,-146.93507206982912,-191.80519646763895,-239.6975461926272,-281.7443180821848,-315.7075318974282,-360.48118620231725,-427.5992460372011,-452.88402910282866,-322.86267225084936,-56.18089014986939,166.34322142604248,241.6913881218174,236.66768831624643,239.50684951874862,263.64441294693745,278.52826462939663,264.8600064617428,231.71820993631556,201.74922684294484,188.2009223307415,184.81069332871235,177.1765776558118,156.1191043073683,123.03943817461777,87.24291438854178,54.994984415443966,22.942978493195106,-12.863644312327787,-49.81905132675917,-87.86327880392196,-130.1681086595466,-175.31873572632858,-219.97620293802464,-264.26947740919945,-307.3933304364513,-342.73858194037285,-373.5001445348854,-424.87736065101757,-493.5045493069893,-480.3978925910316,-282.8239571578111,12.904453390529822,211.04030104253272,263.0300313524421,263.59039052889483,281.4407552149338,311.1394493714192,324.9228018931536,310.6682017456865,279.182573871945,251.94500905478924,239.122152641647,234.61517969759814,227.13333560712056,208.88717451223212,179.54364464623114,144.44845941027828,108.6825409364494,73.58163907825475,37.67727697275647,-0.8584748984938807,-43.03268028913334,-86.61918955061441,-128.40470287472408,-171.5963980015516,-219.13832669719315,-267.918384963958,-315.5599628196819,-357.66393766941053,-386.7456271989883,-416.0755653887694,-476.8374669548272,-537.4330499636341,-466.1238665845714,-200.55497168405608,98.32072714212197,247.58739815233403,265.15244161118073,264.7732364060105,292.01033683847163,322.8534755100603,328.97363889802807,303.815936665944,263.7624838831173,233.88493804377694,223.27646522544086,220.71086967932695,211.35840241279763,189.4257474610675,156.34019863433565,116.78085237783303,76.41548315703142,38.1107508389253,0.19111774394631242,-38.81025008482223,-77.5538855883501,-116.18694138804251,-158.05954794493542,-204.87297861193758,-254.93792672225405,-301.76272759003444,-335.9594619725426,-365.5347509121521,-417.6146550545171,-474.7130080459909,-425.7923650089104,-197.22335690810263,83.85958606003844,235.00304607303627,250.10319323881137,239.84142628070873,259.611925945017,285.5523311219818,283.37643968445354,250.79158887259823,212.40232313972106,191.64424696189005,189.71709270279905,189.0840306698556,173.94914837700657,144.25637088978002,108.5551526526316,71.41063017279757,33.07789380382384,-7.120181269852696,-50.55936184778101,-95.37151165086219,-136.14157615408433,-173.93057215938154,-216.74935311674574,-266.3979279307126,-313.20495587892475,-348.5483636491462,-387.48717977925094,-450.4248834150614,-481.7161453268929,-358.27021365044664,-79.39738121215547,169.89319173650608,263.6041575027029,261.0419288635438,260.8555838221696,286.6651781436357,310.2867184390084,303.3795421476178,268.3427269523741,233.91494120060923,219.09538862491397,217.82217255353643,213.76110986151608,195.65020569206763,163.88545964426643,127.16442141905439,90.55201401960468,52.360083627853115,13.493583716457934,-23.18647525986314,-62.16715224268042,-109.08140990219624,-159.60532704088072,-207.1182829960203,-251.60323221594678,-296.6141179117463,-341.6849764906775,-377.6072541869765,-404.2446232463504,-448.7708604628413,-517.7850812417047,-515.9412519517033,-321.6099911891227,-1.960050211231339,225.89353196629222,284.7454315461373,277.69657572211173,293.7150067479834,327.8361732591792,347.2818605003805,340.0502963976563,311.27870561271396,277.73555904988854,255.49674548246972,246.25496223647505,238.48982364765754,219.61124834845523,188.20698897554183,152.6765744095535,117.69551203268313,78.56181950748925,31.59624113521374,-16.703072254166365,-59.64490463912778,-101.06941070115147,-148.3322064695267,-199.56758759064974,-247.0908796754265,60.0,100.0,63.0
-434.60809443455867,-253.3578315762752,20.856295225304407,202.60537631277754,243.5379256942342,234.6130614737449,245.38155480369545,270.28625221291367,277.59396579277086,256.3384398244186,221.79246296593945,196.08924400451463,186.8128103285037,183.61353451790572,172.62849328853207,147.4586727122898,112.5357377802426,77.54259644808994,46.01321420972659,12.94596201825389,-23.55871579781724,-60.53779830378777,-99.59496223280664,-143.10535276778782,-188.33943407644895,-232.74083588405847,-277.06917366637754,-318.6844221954643,-351.2847036799002,-385.0401617695229,-445.3588882459373,-504.4758132058689,-442.98745921718836,-198.34205188530532,86.47127518607918,238.05555369327183,263.8365167653105,266.1533502381969,290.097922227144,317.7292001727026,323.61489372253874,302.3930554592603,270.06587200346326,246.80069689401338,237.4632413144023,233.22164627273628,223.13202467155284,201.37522002363525,169.71356958427145,134.04820324100447,98.50949215927247,63.3747525435504,26.88947250663536,-12.686065990355399,-55.68152206686898,-98.87340021877972,-140.4845470826154,-184.95123057557024,-233.27272624681828,-281.8603893451749,-328.6921027434329,-367.46215698405746,-393.73738661547,-429.68428702490587,-498.8752623241155,-536.7663304300439,-406.19365945996003,-106.86863374872276,160.0438145100501,261.0393830049326,262.94605288814006,270.175866980878,302.135130659148,327.9012981044357,324.59461486514124,292.60005389158556,253.22285264259594,229.056268411646,222.46570019359422,219.1615322846892,206.33267833467085,180.8541222243638,145.31425533712604,104.98684265865245,65.14098184921123,27.242265147824842,-10.994872498486444,-50.09934479793108,-88.6119013263352,-127.80044558780828,-171.1031999873554,-219.1554972094437,-269.2746582772728,-313.1268989256196,-343.87161121108227,-377.369203344026,-436.9823358392749,-477.4984426194653,-376.60870001354226,-111.6422099270515,145.224914481193,248.86975062756312,245.3449761475875,242.56052087116095,268.3721073990176,288.62400197347796,276.29886950844394,238.97726867103182,204.04963899950252,189.71779404896503,190.32963509360295,186.51397021002202,166.5149167513499,134.22172779271196,97.93101737403276,60.46716032343447,21.719256851787474,-19.313351527741457,-63.597479312883195,-107.7351336478712,-147.041434312905,-185.48182187259485,-230.63597729778076,-280.8131981902588,-324.5260853164301,-358.05400309373306,-403.51901027923407,-468.01277317925235,-466.2261988480395,-287.6497394898927,4.862133688327077,213.15230131567185,267.49355303057024,258.1262243639733,266.42477894979254,295.3177639053017,312.04814203107424,295.1065484157642,257.0062542027836,227.48376525732704,218.03201818666062,217.61690960870595,210.1907054443746,187.56077143602545,153.3891362790451,116.59115218497078,79.75746700988317,41.01749101265239,2.6946820055913845,-33.840030818038635,-74.90045869811959,-123.68844962705913,-173.77260841801112,-220.14026290291156,-264.4155597573952,-309.90768090270734,-353.4595614419289,-385.5217621915968,-413.7493948701836,-468.1395299180687,-531.2709131663179,-481.5962096247396,-232.91605216916986,81.36031931895421,257.5876485356585,283.73644360984,278.7130640122497,303.3649778492475,335.9327992034445,347.95982323782937,333.37785767956046,301.1966729923448,269.74647450443854,251.83213420526724,244.52333596811025,234.51631581091794,211.534632541097,177.9739474940423,142.57986686812953,107.13697761931547,65.68763342159824,17.33564918112427,-29.697261767269683,-71.38176258125374,-113.96623773412423,-163.09975184674144,-213.8671798009061,-260.03579726433077,-305.2107430675019,-349.55413119657317,-382.4307568725466,-409.9494628630238,-461.67966394274197,-523.0906271529805,-482.8216137533968,-252.14049580852216,55.53973401109513,239.76931248910182,271.0191227230416,258.81985167836854,272.9890889351296,301.53365159368354,310.1682519269439,287.1603191361396,249.73729026876006,222.0558546647335,210.05637522036412,204.40652777876835,195.16551355999886,175.8870566601533,143.82426876778524,102.31855695150149,59.00084587919358,18.871674447031864,-21.305893433417143,-65.69190065806487,-111.0386450367652,-153.81548260995055,-197.97940853011391,-247.28445332288575,-293.85533880672943,-329.4690759486644,-368.7462432698629,-432.0493579568975,-471.3865020649844,-369.13448799733396,-106.98910922139534,146.72362566170693,251.3410975408641,252.92420628517246,254.7496548564294,281.42178266554055,299.3798933386088,284.0599170513418,246.61742513294934,214.41233606933636,201.05418447867453,198.50821619842216,190.8597895223832,171.80082185585695,142.61939108462363,105.71796799447151,65.22588652556502,25.540349005158895,-12.208474794656567,-51.6113547730406,-97.53533264426322,-148.381490860733,-196.97318535311726,-242.12907978517492,60.0,100.0,63.0
-401.4363973822306,-446.7194258215827,-519.0136185049618,-521.0390414238357,-330.4429411177735,-16.528503604266795,206.3032857481154,266.07320881908856,261.8968734314257,277.9637459942126,311.6375557799326,330.37249047348854,317.66625591346195,280.75549878340894,244.110766082277,225.81523619326117,221.90709969182114,216.74130342328237,200.22079804269612,171.42377921459422,133.88760652174315,93.25938052872183,54.06210615429228,16.325802072680684,-22.270935018544147,-61.31543157424537,-99.7061977882516,-139.7847054875026,-184.55742351468533,-233.65389105853734,-283.10246493314577,-323.22071652264776,-351.887699297788,-391.86492905846427,-455.47925099188734,-467.7937197130285,-312.06979165708134,-27.005451503358227,192.2319382291339,253.42232060781322,241.34446861596751,248.09017839781887,276.5731317813658,288.719247756906,266.9961005787331,227.43588393929744,197.59270199043561,189.13758899596647,190.51002650192223,182.47225462696653,158.02855631392677,123.90501234681236,87.22228789347254,49.42111723398594,10.176199155809252,-31.81328098191279,-76.64504757766524,-119.61871337201168,-157.8390260099059,-197.66542545650213,-245.0207386074629,-294.65005343683356,-334.77527601395735,-368.5828543263526,-421.8749098196479,-480.4233553388648,-434.608775261808,-206.34911753650528,80.94660916451856,242.3389579147937,266.269628323223,257.2908917828416,273.92225967886066,302.8694000045095,310.74252926547507,284.93230677315984,246.54354129291005,222.89015391994084,217.74602763595786,216.77024863779724,205.2664000295797,178.46547917327013,142.7305781580382,106.05227697249305,68.75907225373992,29.710805964711586,-7.88096383137541,-44.89639559008637,-88.36470455558295,-138.3829255721747,-187.57813352531974,-232.97479117606147,-277.3730586866981,-323.1118777202681,-364.15433188158426,-392.89046967576456,-425.7199958555092,-489.1236331763953,-535.2206164481083,-428.83003667207635,-138.1535103223972,151.51724327828572,275.81551128251795,280.7019164176208,282.82499014935394,313.6439447634904,342.1419579642365,346.33530949167414,325.1591940275215,291.2166694072234,263.00473534712205,249.1246732028161,242.5455476537567,229.36083001739925,202.52751330577195,167.645436372748,132.54390243294011,96.0358547320081,52.15692237455993,3.221797671497585,-42.16100896775393,-83.19722645412635,-127.50010245769045,-178.01733234802703,-227.68630673262572,-272.9251522607269,-318.4961887263376,-360.5994217411623,-389.75663642976497,-421.37991522195796,-481.68101832793053,-528.2442592154767,-435.1617966795529,-161.1888618526306,127.12773658671031,260.5551753049203,267.0539628366278,259.5944914993961,281.4116460075375,307.1981162087923,306.4663701969856,276.59931355626924,240.03999654760293,217.24549080871,208.28897658248275,202.43654979189688,190.84710842559568,167.90828437782667,132.50527489849335,89.63976105710071,47.06927442100968,7.556495011039181,-33.70802036817065,-78.9550785288567,-123.63217863210936,-166.12202251724065,-211.8074987509709,-261.60102512069335,-305.1884274526329,-339.1319182478061,-384.7289383726577,-450.6554028524894,-460.96084140417065,-305.041835354223,-23.474393706003504,193.47064573540402,257.1048136501272,250.52542087502883,260.94669058250327,289.2015039837963,298.5274722125912,274.3035388838002,235.74199678816638,208.61316960601874,199.95491726863986,197.35209185801423,186.51610676225428,164.32128588834726,132.6042396159312,94.1685685467095,53.537947460763036,14.509936759363498,-23.17109356251477,-64.10041406678222,-112.0216696822293,-162.90795310733478,-210.1567272755883,-255.39748433079325,-303.86093992062376,-350.84043030519507,-386.44299925872104,-420.6269014731047,-477.7490783377285,-523.4760300230746,-436.60686266051687,-167.18170530400022,125.32644661033707,268.92804538231127,286.28014905604283,285.0402830820924,308.93087329867103,338.33026420598827,343.451188687745,316.77005229255406,277.9898490739784,251.57358517812736,240.94904319154782,234.00835326523605,220.46848623480298,195.59561742055925,159.8766794108003,118.81206154891048,77.97594284560923,37.93122040392506,-6.003630742009211,-53.75290168660146,-99.47862034736748,-143.81868329071523,-192.35779903740467,-243.28305569695922,-293.2816389811695,-341.1558370037719,-381.226915213192,-415.6998786804212,-466.029609669367,-526.2519944469176,-498.583720937062,-284.38447793064176,24.48568460584841,228.3055226142312,279.9708540763442,276.8814142680468,289.89205666643556,316.8516968951703,330.460526698442,314.14438968034943,276.76651693640565,243.49342216834773,227.93972258415235,221.936166309902,208.85198229997994,182.4446873826638,148.79380631471705,111.72428731520588,69.32897220434842,22.70256797239471,-23.40314160425732,-67.97330334926575,-112.23610337064261,-156.83181391977234,60.0,100.0,63.0
-344.27168849887266,-380.9709451065483,-441.48255411350044,-484.0236801539858,-386.0912785401994,-119.60945906483455,145.03615399966642,259.23352874742056,262.76760591652027,259.10722726690904,282.55281199322053,308.5128510430792,306.36387452969853,273.66668483539615,237.50385970372304,219.96357714634073,217.8009591012791,214.9749935411867,198.98365395886776,168.61135662319165,132.0627698401838,95.46988907859736,57.56811615584518,18.558440963884124,-18.34799121409738,-56.55268276507112,-102.43895329209563,-152.96421330271073,-201.0263446056483,-245.7243749014267,-290.50732504179916,-335.96428083476843,-373.6341792865028,-400.44680258664573,-440.763402124378,-509.4709251962781,-525.7427842075402,-358.8382497180896,-43.6895419244371,206.1295311460537,283.6564971084518,278.1845426463663,289.76060201540395,323.5896802253646,346.18646011097604,342.5076442211752,315.82454483602993,281.7899195047369,257.573082820173,247.07481356356303,239.96677216550847,222.9655951862497,192.83462471840338,157.37235575000796,122.43263358725756,84.24832716836457,38.14924011248723,-10.528356761748835,-54.194968884070455,-95.3210905527151,-141.64122373654902,-192.83337548348192,-241.05057575379257,-285.9193928779043,-331.5693176312758,-370.35837100712416,-397.1403356188183,-435.68576731446524,-501.2846712161238,-521.1995948211838,-370.6575519218325,-69.04088160145389,184.14173584333798,270.20564723667337,262.5501286994335,263.2901440520287,290.158743331521,310.4438050581714,300.14625505912784,265.50187750993587,231.65423173916545,213.65806349078557,206.75342076598642,199.9723791631537,185.55131858002295,158.8462426197795,120.54038736084897,77.020079856679,35.458681850797255,-3.9285496942130296,-46.503204628239914,-92.14544682853625,-135.98052355011018,-178.7259483687421,-226.07963378135776,-275.36065416730435,-315.50516879610143,-349.7886907380815,-403.0647511806015,-465.02977455049825,-435.500391613032,-229.1724579402262,53.74730655939828,226.060729210384,257.10928240891377,250.23949577893399,268.85943355143166,295.21471065477016,294.6197289533337,263.3140698071361,225.96515480255317,204.49672309196117,199.37154795238965,195.40986781379044,181.20165667188957,156.04526212339448,122.01306519977338,82.4392096283309,42.01274665658157,3.624038851886421,-34.40475649112999,-77.23750606970562,-126.78005744059375,-177.06016687185576,-223.13765168698612,-269.0177900772749,-318.10710527982695,-362.4459890596938,-395.25070702686594,-434.3841281309309,-496.42097908268147,-517.6885344290846,-374.10595387891436,-74.72943947408889,184.89569966340895,281.8991243508514,284.20364838463354,289.5160671415467,318.3765570521375,343.2030965869232,338.5638929211099,305.5184341890763,268.4444416886368,247.31357151856628,239.1352502073659,231.07320792420964,214.53871781305136,186.20898794896416,148.27011318609576,106.82650477310105,66.4945751664422,25.813703283535872,-19.649052253701754,-67.36039628952507,-112.13919023311053,-157.3236140413881,-207.05663100024256,-257.84761784415133,-307.49197291606987,-353.808755449915,-391.07316491136066,-427.61206669172674,-484.8488719667057,-533.5182951384222,-456.3432104068761,-195.50301609026872,100.50407887166642,255.68946650669366,279.9874649567531,278.0396876668078,297.4045439457235,323.2770119299161,328.9548275575496,304.47415179894494,265.70022584447804,237.18430041773453,225.97444698474104,219.4810036511207,202.44033128144562,173.14390985733232,138.47418491507932,100.10036933970025,56.07906541114996,9.180984357284254,-36.37593858607897,-80.76609113443553,-125.03020878296603,-170.09846281850054,-219.23312775216812,-272.45379061943584,-320.7777255284386,-357.43269553381526,-396.4491252748534,-460.9512279998079,-513.7007638681075,-433.63473643372805,-175.00890421624325,106.64183159909173,246.30147058490454,262.9927221002544,260.5965744298113,280.33208749497544,302.4134040507538,302.0889949531312,273.77312238166724,233.41189556123373,203.70582672789448,191.59594479019063,185.33248711300595,170.69526679419278,142.3980346745463,103.52735755810305,58.72022444042987,13.633252438479825,-27.756571472665048,-70.25084320468343,-119.62786846113785,-173.16153714586906,-222.3998430581575,-260.5823781512958,-298.01768289655564,-361.93450193415276,-437.12769307059057,-416.2795864115315,-221.00171150303404,38.03184856980073,186.18364031123687,206.1251290403599,193.50451347749367,204.13760575033734,223.45219152895254,219.8932045622475,186.085833774402,142.1063321584911,111.5201176869897,97.64311564575196,87.80193879188553,70.1838577477535,38.34895448394199,-6.31921264826911,-55.04972344017948,-99.95135411858169,-138.31860398392908,-177.8098027117137,-237.97309844925573,-309.2963627517378,-313.12057963907296,-182.6161500181423,13.37149522082086,140.09256112213282,60.0,100.0,63.0
-254.08619778990777,-299.08986008890594,-344.07959313778355,-378.85821504596925,-405.50176594264235,-452.9135159171438,-517.617988377138,-498.85864529341643,-291.99485070778985,18.331158279807887,225.66743503013333,271.9546811070779,259.43982497758077,269.490474436962,298.25945369471765,310.9205559974875,291.6486955123504,254.56082834463723,224.74245439102535,211.02829495084794,205.19415593670377,196.85964915803092,179.19132503387587,148.7755987706394,108.13088041005444,64.61668850311104,24.07937958550939,-15.730746021709628,-59.59478129673148,-105.13769049780018,-148.18990849018252,-191.78221060367756,-240.59206799548974,-288.25882406872654,-325.12313445691893,-362.23298250618905,-422.8699032027296,-471.7932508030992,-393.78094899208384,-146.16014637319753,120.38612723428555,245.86159130052744,254.38162896231677,252.69173009538991,277.4941114045363,298.7336205653583,287.9385048147301,251.85555337933314,217.67184866281394,201.85966661537822,198.8470920202189,192.52557142733286,174.96866439595914,147.01862783626498,110.94781087025576,70.65047508297661,30.689957466288696,-7.204128337813583,-46.059345584573435,-91.00222299020137,-141.5929986369127,-190.78391573203913,-236.10357726857242,-283.002446932395,-331.9688081895451,-372.8851687276987,-404.5189092608151,-450.6499464242519,-512.2983251738955,-497.17248409389197,-296.98673729468663,13.732234279399684,229.34751671170463,286.8936279512551,283.00788619464083,296.2624654206915,327.445518656063,345.42709836105297,331.12764522456456,293.96758538174095,260.4160371852047,244.19151048144835,237.29013458139121,227.39913395515327,207.5878761347653,175.9906682427422,136.38184766444297,94.97777616997021,55.01524489089359,13.234009181325778,-33.509111500732736,-80.64324039635015,-124.82676020797062,-171.28482822015272,-221.81641299644235,-272.310306703476,-321.47927075687926,-365.6020009171951,-400.70443987274655,-441.56940639417184,-503.7309041015096,-529.954100726447,-397.03892096673405,-103.47671851159154,163.19384193866412,271.52432250368656,278.3558793550468,281.40560408049987,305.50469174079126,327.9000244457002,324.7395753327462,293.54328417443736,255.63169110643992,232.45974641068966,224.42255702408352,216.03359538701304,194.9415956905676,163.4472914769395,127.87563819848604,87.96021903506214,42.57589712598709,-4.18598513712961,-49.25131116051799,-93.55502620404043,-137.86544997245082,-183.72311066666683,-234.43490128553978,-287.44177207509114,-332.4501437275515,-367.2181867012209,-412.20984200383833,-481.79374027245035,-509.72399026735025,-373.7552674418056,-86.15240553744172,164.36206058968554,259.0010204329737,260.71680691228124,264.3046844624117,287.8154060339282,305.3001339963107,296.4373657851288,262.2589158910038,222.9867653238746,198.68006664625597,189.91293619798267,182.40652727297072,163.88521482534216,132.03630287152797,90.98632663580511,45.428530154976336,1.3370793209962688,-39.55182293905396,-83.76122282342983,-134.98216321255578,-188.25581380307142,-234.59200608183568,-270.3540173813952,-312.83323123458433,-385.7033684393649,-446.92331783312886,-376.8034215783274,-143.6499637339565,96.75018913974432,201.46547213092032,201.75237391557297,193.87463751831632,210.39892823546558,225.72875673114655,212.72608719714282,173.1788266363139,131.2673433962141,106.22891587886267,95.00775067109662,83.89892726507954,62.569189837148656,26.456335662968247,-20.41903858744443,-68.6384646322602,-111.66132772395054,-148.83996793121366,-192.35348940372754,-259.67670416748246,-321.89573276769585,-289.1629848660154,-126.29360483529553,61.32931434057167,155.76979414883024,164.15583617590661,161.68950549183145,180.18198536932604,197.53042427618942,187.3227169972137,150.30655605561174,111.24701479937568,87.94097931654699,74.36566588287562,59.12606371797024,38.06267689258522,7.114264191002172,-35.55266529834584,-81.97066819801772,-123.55121082209186,-161.89642270627814,-199.10706722151372,-232.4868168197739,-272.58190110581273,-337.8044314243961,-395.95690196602607,-353.2894001324458,-178.11951909008206,20.92785375700992,129.83905266586873,160.26998449817478,182.53125106607794,222.92917746480717,262.86557649119163,277.32453160832245,260.95698906203756,231.95968957788173,212.6319138840767,206.78562435297786,202.4334707677852,191.52538740342817,173.21856134258908,146.79246149306556,112.14473831061565,73.38789218384416,35.75149995853927,1.8480655323369608,-27.31468971771302,-55.42141433796838,-89.34898221587939,-130.54644345309586,-174.18437309432477,-217.20109346457608,-261.51040898826244,-303.2728886933098,-339.27443224612585,-391.67672947833876,-474.70610152995226,-512.9989478971922,-390.81645780584967,-135.80313060062912,78.77914717998527,160.51492256454844,173.37765917635858,198.2380689685829,244.2290877591234,279.4225803972088,60.0,100.0,63.0
-249.24107322241144,-297.2538515878139,-345.10849116485855,-382.3218313665776,-415.09398338171627,-468.95295252282085,-522.0559110554536,-459.76227207739566,-209.49951400727107,92.98870519337169,259.39284453038545,287.0490297347832,283.82861744281337,304.6912855698742,335.311279299197,344.75306673855494,321.64944622012695,282.8230535069562,254.00460137483032,241.858251800442,235.1527878459662,222.86996501140226,199.60977368239614,165.08839080629375,124.36144306556817,83.30367008654807,43.386473849532116,0.16947018107085793,-47.39434308893606,-93.59577928340228,-137.74188593679065,-185.6400359641312,-236.53112523051075,-286.6852754875175,-335.07601308136907,-376.48677551120556,-410.7393376649156,-457.8241348793967,-520.271063547915,-512.2283935709825,-322.7019094071054,-14.2231433337554,211.13708092260126,278.7141308157454,277.02459728534075,286.82475666498055,313.44611424476875,330.24267310912535,318.0000600887917,282.05531960079594,246.95753087826404,229.10963987233305,222.81777615171416,211.4036969377958,186.55178646569118,153.47169113447111,116.91962204352565,75.3135161460483,28.970737775210235,-17.376936925823088,-62.07178948961218,-106.34132795639722,-150.80559904233496,-197.79593826524382,-249.89792451728266,-301.7119550025769,-343.0871832707603,-377.8268156742297,-430.62117762539805,-499.73651589503555,-491.06876239402703,-299.708724000084,-1.0336031797618903,207.6125768053792,263.82976806103693,259.24210195423245,269.9461323161341,294.72262993979194,305.84433944952684,288.5298384975614,250.31918746876505,213.96268557096525,195.0572877272304,188.31135734544628,178.4873934294075,155.91699509865782,120.91565772405876,78.0497815727154,32.28466946793471,-10.61692222712177,-51.65152077917959,-97.92303642409482,-150.53259395524876,-202.75121093063183,-245.74470852827415,-280.57293831963295,-330.63977969409046,-409.2165640805654,-445.15796826111483,-322.1318459369089,-65.84588227980318,142.70652764114197,207.63709943843097,197.25660259809334,196.6844336342651,216.53938343610267,225.422308988618,203.18084738334517,160.11325494040187,122.01531564013806,102.15607920255319,92.34483390320105,79.11282178253875,53.65732874787256,13.623658413377223,-34.60131685735838,-81.76513001554859,-122.79633392502302,-159.79802778812552,-209.1998597673044,-281.50154114175325,-326.2145776866306,-253.17575579527772,-67.8233850330926,100.4768338023469,163.79079855310684,161.78551609315255,165.2331072146295,186.80560601505087,198.00238624982788,178.5415977142829,138.00688836924456,102.77935167832382,83.64205656314849,70.42060936623957,53.75789179281551,30.36312474081139,-4.1795031644378104,-49.100255078172296,-94.60036747330734,-134.7252891195041,-172.90022180185665,-209.09598513060257,-242.37516416343982,-288.70623709200345,-358.9292108740804,-397.98631720946884,-313.7321105236765,-116.30140433437472,63.63902321364603,143.4663063282636,165.1725605265128,192.66231273831306,235.79122814285753,270.4055193402179,275.30922532395425,252.72740863699238,224.7529459660261,209.96574370240023,205.93134307251046,200.05426475490574,186.9966270604751,166.47842106056848,137.52728941350188,101.10511396400386,62.23487085267339,25.498261792791066,-7.033350142943865,-35.222040225009096,-64.40568145465036,-100.64633217068638,-143.16196632715716,-186.62297679643126,-229.84058106698154,-274.2313355089672,-313.8708808019822,-351.1843934849711,-413.7121162784686,-496.2038484067988,-497.04361715211337,-324.22927725534146,-62.130978335001956,115.31313785130024,166.69410578895005,177.53184455110005,210.52092983199853,256.99600841422665,283.48400261716677,272.7415021283693,237.3955829736525,207.33047798015224,197.71821539383845,196.04842612120075,184.48562278355027,163.26517250156877,141.33253393591272,116.78013580952882,82.82619120861916,40.96053316604879,-0.8328874483725326,-37.311653389415824,-71.1604427164396,-107.64055512263273,-147.22303511654044,-185.3761116510489,-216.1263389083878,-247.9521611364861,-303.96820929252556,-368.03073046130737,-350.811948167746,-194.76395544321295,9.35012156890631,127.26964359649048,149.32851735478562,154.38581139483858,183.5647798733142,214.61835735220492,215.7748932016727,187.4053646629999,155.79218421417397,138.97950516785858,135.5209102599883,134.97731355038283,126.56806071603677,104.53624844366546,73.35586895377531,41.84510224617785,14.076373384518568,-12.478005295559916,-42.76521206417112,-77.95731180195881,-114.91614481125565,-149.58481386275034,-182.18110338157896,-215.22383219402903,-244.8676639127856,-271.69414331103945,-317.6908923756863,-387.60017299898584,-404.7761782632626,-273.45584441356516,-44.89040785481176,121.35800616833332,169.69618472631026,174.0747806355845,200.96550938844015,246.76620093086402,274.7831165850741,264.12847704738965,229.65423193709276,60.0,100.0,63.0
-163.94405988228647,-212.35903277939272,-265.38528735960375,-315.01505424524953,-352.9852058462773,-390.0615438282969,-451.13501089980844,-511.4278932812954,-455.7249838127106,-215.66608497864684,75.39057815991262,236.96463673503496,263.83728721429605,259.6458052434479,276.89597718078556,300.3816097505902,303.86355004632276,278.76164420533496,238.58797855741406,206.5580770194204,192.5130276382514,186.40682771040423,173.43021620060546,146.88609185974786,109.14529505203761,64.85070537192242,19.433423158931802,-22.36069465854994,-64.24295656412683,-112.66738719196435,-166.0676527975628,-216.4235646453599,-256.03275172167463,-292.0591983571204,-351.47116381657463,-429.66138398406446,-429.0385514902342,-255.0064944135265,7.198147387498524,175.37937783431389,207.5163385072254,194.18152161462442,201.46897562127955,221.6580399006432,222.29279382342625,191.7854367521343,147.5603604350928,114.45435069724107,98.94114863193192,89.35879217085878,73.27154256805895,43.46074583548103,0.08725153525958151,-48.6582465563294,-94.34848150355334,-133.48027507490045,-171.77421427843566,-228.41610689149584,-301.427547810389,-319.98727038334715,-206.77621525302777,-11.152137477361027,129.83928976956636,166.19249544667287,160.36055448330492,170.5703375200399,192.4780782870501,195.69717481144667,167.86794791626554,126.28222623027614,95.82086733243698,79.80643250617517,66.134744003338,47.856867891033154,21.69598160764324,-16.418992572253625,-62.663434782801744,-106.69598450829886,-145.77809900554527,-183.76801434021402,-218.69589267338324,-253.32225644301664,-307.3357718272766,-377.83593276052466,-388.94200890397263,-263.72429358463353,-56.3725921348815,96.99010224283208,152.1630982482348,171.0062616329995,204.3128303579831,247.91123564152787,275.2932048871147,270.85294471239865,244.0738013115838,218.81401936456396,208.26882516396304,204.84955141716193,197.0447171280115,181.8590706313071,159.02165459048152,127.60334370542587,89.86723645979266,51.282596489132686,15.596512740013512,-15.50344179169417,-43.205455998568205,-74.03403358134334,-112.50348382232899,-155.82055866789054,-199.00780496854554,-242.65648331715,-286.5180571364228,-324.02760053708107,-365.3732036630797,-438.2212212796984,-510.9296828517004,-465.164876821299,-249.44922955867094,3.3321953871008625,140.37828315405434,169.77160383019998,184.07962237448885,224.06284695218983,267.969838678508,284.2260895834131,263.8032382668811,226.96122964759772,202.55979354004296,197.4024306409255,194.11710894143582,178.88539213825464,156.8213997611066,134.87332431441513,108.06918805108629,71.23895467116708,28.51395713106383,-11.946158161508945,-47.087178673008644,-81.30002985482871,-118.86953993427325,-158.71232148856097,-195.09584269568848,-224.21505669844623,-260.95833379409737,-324.5037158377515,-376.0756291357915,-318.90439674177003,-133.667286892466,55.65229485217044,140.43427516696548,149.25915281236502,160.48652930992102,194.08501977633637,218.76628467741892,209.6497191489712,177.40587040740303,149.17745363116177,137.0000096643081,135.57910572591453,133.76011980848205,121.61047299527517,96.04761402521592,63.981324373107114,33.43130753607599,6.5210279581481165,-20.69728147642546,-52.50014707615561,-88.66727748458847,-125.26861047846018,-159.06826195918975,-191.6962198888322,-224.43426281095492,-252.31256815350767,-281.7967654642711,-337.0298689320679,-403.34527169911405,-383.61571847604665,-210.50692128269293,15.338629770518642,145.54597940824218,171.29852260752006,178.47666520441163,213.75247954960932,258.2193249921232,275.691237226795,255.19338620793323,220.00620423938557,198.81658713296005,194.19512982635254,191.94873134544085,184.8226160491699,171.8499914060265,149.57883705120926,119.41039776655586,88.7636161506497,59.288398779041025,28.963508144743486,0.9892281938317435,-25.82153485782998,-59.44922733832903,-98.7407958415324,-135.48528648804196,-170.3355343660114,-211.3381505984061,-259.66723035514997,-303.5033046794155,-336.006597260729,-380.52377793582497,-456.5489642056648,-494.3065249153526,-367.5695868751104,-93.53790934627321,136.60025384721519,212.1856338480316,205.90959841279044,215.38474719057723,252.01835987508142,278.9979259480172,271.12096600623244,235.99592585755425,202.25546014305144,189.019096175214,190.22365608567117,188.2159361056216,173.4774349905298,146.61509823132923,114.20678516604009,82.79432112483022,52.96769718183234,22.825528562404916,-7.3671398305402205,-37.545495402082636,-70.06348529090683,-105.82729970806317,-141.56514460735042,-177.6300752488309,-218.22393026929322,-257.95520937145164,-287.901549251156,-324.54982784611826,-393.3173600258815,-446.82527843991613,-360.371338160144,-108.87801055302185,138.47019010380097,235.91475047993808,228.25037450581087,224.23686136999697,252.05776643487167,60.0,100.0,63.0
149.60103041291092,165.18505536656468,160.77156563813378,177.04218656510284,196.44570301181795,190.57963108004117,155.9847175374365,115.66784473858101,90.181405301765,76.10261969082312,61.439847093734414,41.32360481806717,11.966727993524337,-29.396069366903646,-75.97463738944468,-118.3179330216997,-156.80967923014992,-194.35555948164733,-228.10918171491906,-265.9946858191478,-327.9449721134264,-391.8859893997275,-367.4694419525062,-206.18255019485892,-1.7424838218972494,121.32911737345378,158.00865483209432,178.4664568242339,216.95127512206867,258.5949046978582,277.3402647097184,264.4249336422242,235.62869692091104,214.2687865985742,207.1839378976933,203.3240512416856,193.40885352315738,176.09540430813516,150.8227704670676,117.12547026989833,78.57607948131272,40.585907487058,6.0888473894823445,-23.640026601806294,-51.467073373743375,-84.35711885763922,-124.78486181373214,-168.41473061277472,-211.4324426824163,-255.56950172800765,-298.1561498480853,-334.2913442070469,-382.60128582542166,-463.49052387656894,-515.3305997516402,-417.5727459905652,-171.4345798020954,57.78653171709003,155.890933218193,172.06912201746889,193.2194667511786,237.95976330544102,276.47662230847345,281.69237019211903,253.4262174020877,217.7352024280179,199.58498683211872,197.2046787715644,191.02965487814765,172.70912932140152,150.495530378208,128.00283385046458,98.4458561192931,59.131600211050674,16.295823587215676,-22.55688503995187,-56.7893806233187,-91.76147696898602,-130.31713537986258,-169.92121422426834,-204.06175975404435,-232.84935939306192,-276.61942538157734,-344.5804992015877,-374.49354416820876,-275.106366754497,-72.38705022626223,92.10581827656782,146.94486613535653,149.89546633241306,168.8182565616425,203.78847153449146,219.8177327389953,201.47492082356004,167.87676731839127,144.02128563898694,135.94938911974685,135.5944481342944,131.64024016609872,115.44996561056185,87.01728490804331,54.77401986543428,25.36750200159545,-1.0591861180260718,-29.334326135113606,-62.62549411411836,-99.4096817595801,-135.3479405034528,-168.4477278174394,-201.29317019235972,-233.16218898394305,-259.7047419890893,-294.2863225318106,-357.9954318503583,-411.7925978612192,-348.2528203419727,-142.7778447424795,66.40183914728452,160.33975789546716,171.7378518362989,185.70254848934118,227.4014040807967,267.23101918544256,273.1726888995563,244.99019794616532,211.74394274719478,196.34693927838663,193.86286090073824,190.42784466707582,181.78990366965465,166.4960180643627,141.3637027474932,110.34597017927422,80.26899293532445,50.562015176694544,20.473122029594393,-6.526921416478227,-34.60640668341206,-70.60887119920412,-109.83820819891207,-145.41825484571325,-181.2521492347578,-224.86279756653468,-273.4803583684093,-313.66442581569595,-345.964160712243,-400.06964250224286,-477.29826992182365,-478.30481869764094,-296.6909114607015,-13.803112718492516,173.7070302097118,213.27191921202692,204.8317956837435,224.56047389073217,262.45979459558293,280.60602196234015,262.65962539803706,224.82859661685274,196.1317129617887,188.6640462070804,190.6352985713844,185.38370284767197,166.75440551959852,137.4555674582601,104.87946932879964,74.11897346589065,44.3193996375627,14.065268466940827,-16.025551779423427,-46.5692972458156,-80.16900227810014,-116.28647043206082,-151.7407942708348,-188.84988762636783,-230.36162416539716,-267.55793023120714,-296.27408482993826,-341.09733752407976,-415.3222541396701,-441.20562175027385,-299.9951709942672,-27.436332625008344,183.42834159326355,239.06526746215945,223.52332479969988,230.08555017282944,261.1273558729641,275.4727257610118,252.76036165430173,211.9050301283092,185.9988981100966,183.9877651563776,187.3808687493796,179.0178906090712,158.6260021769468,133.1722508832204,105.64719208765625,75.92600276238805,45.05407263530338,14.268023789639646,-16.883008256379,-50.55584855538992,-88.55594204370729,-129.4881291010387,-170.44176347557828,-212.46273419746916,-259.56052837231823,-309.52168420335306,-350.18193869129186,-377.29270075214697,-414.33510454186376,-484.60457251527276,-529.3427035540161,-411.0478634412382,-110.18098692086993,176.64298331644517,290.52546289497883,285.7556533556464,282.25307629262244,312.9424263235273,340.8963126360067,336.1951978473179,304.92022278456886,270.92552311925306,249.81328389956056,242.26241104335196,239.4025272142134,228.47502465990925,204.50230803138277,173.2775738739377,139.91291458154132,105.98519506691865,72.05935339728299,37.33513859828567,0.7984991253068002,-36.95564410967917,-77.10087893754567,-122.42202437127936,-169.8365936503075,-214.907567421283,-262.528367957899,-316.55216628147593,-368.6285434951401,-405.7448920070833,-432.6632972157743,-483.1466409767416,-557.5829965304956,-541.8862398990065,-309.4926988812365,60.0,100.0,63.0
282.0176726073194,276.1654213570684,242.43853977881784,210.1789753359611,198.06369380477875,196.5921639769265,186.78894503000518,166.26007577340135,144.23594886751596,120.50115273098714,87.94007895200242,46.721217908942535,4.463233891516765,-32.733476257739426,-66.57957622899832,-102.5569039618705,-141.88512011367746,-180.6459521716864,-212.40518475035793,-242.75501771706575,-294.8594210986366,-361.80912343246933,-361.21236387046486,-221.70634842498475,-14.918299555198107,118.38662986833455,149.13105430307994,152.41481598045843,178.71863214985433,211.74919152841485,217.73144731455173,191.99749448657838,159.3169087473108,140.27225501350327,135.55793744495497,135.29389659121045,128.44090153380395,108.19720802028704,77.69248760715702,45.846635118134984,17.59213486854253,-8.810583047502973,-38.42258950495652,-73.06551388760009,-110.0632026272161,-145.1495089799179,-177.8302317855968,-210.8658636783572,-241.30363993942888,-267.6443546749888,-309.6317371692405,-378.77019023411054,-409.8678458961015,-299.6602862011344,-74.94738708520732,106.60660041950068,167.92841346312238,172.9069720987509,195.62331446732261,240.88673070564073,273.1811779528524,267.58142931715156,234.41703804911896,205.19858422013064,195.00656894566794,193.35873431684007,188.45996544440044,178.23370633907376,160.25522446708987,132.62957187713366,101.43247278723064,71.80374976007424,41.74991138965406,12.314886584536069,-14.103112506496608,-44.15909593695472,-82.05337107117575,-120.53861501890786,-155.34408916600827,-192.89433179463737,-238.90217469342002,-286.5008052060659,-322.90245114716225,-357.880487616813,-422.36142245344087,-491.89378603336445,-445.5470457909524,-216.38056467041673,56.71734614252613,197.3078602293707,210.66068684038885,206.77400527697702,235.39544510801556,271.08462403724883,278.9663677575314,252.4437932438496,214.55648502233396,191.96062609279076,189.12162558586883,190.35497648325554,181.38356045816946,159.1042917780744,128.0403495475328,95.75355663878007,65.52235056483609,35.613729743188564,5.329193532375373,-24.701263630750443,-55.873477757920206,-90.51387028997058,-126.64004752681677,-162.03774012887345,-200.54431398642777,-242.12891244202297,-276.20033795217205,-306.0009524223942,-360.80416829701676,-433.7544586754643,-420.45076452415884,-227.30858830176675,47.97403217520846,214.02389168555848,236.33013895200736,221.37746329846624,238.2468365739052,268.62654580433497,272.55821176742785,241.2479361943051,201.8049619335489,183.46743152473073,185.4527377223623,186.48397405811167,174.05471097181456,151.54281273026623,125.43618220218379,97.26634678822104,67.05556703291643,36.12527844928762,5.382666030834044,-26.245011091000965,-61.07030760739547,-100.23819212777501,-141.37277260062305,-182.30126044905796,-225.42633188074467,-274.1222742508598,-322.79904602913274,-358.94346467267405,-385.3316672908773,-431.565654316939,-505.78840449342493,-517.2020779227009,-337.1854963312745,-15.1495688095812,228.53255073037812,295.31139050151796,281.0769973234201,288.65511678482375,323.25756793848154,343.2623671265175,328.9049591859543,294.37878488933575,263.2376826706101,246.48468143127673,241.52171820073713,237.55361532887028,222.7481578023953,195.90544942915758,163.7520319606881,130.12991951568364,96.18432298594456,62.1797647199383,26.959070234667372,-10.008361498876415,-48.1582405376315,-89.63908727124738,-136.21803726626854,-183.05852081280645,-228.04944071023536,-277.6165918001758,-332.4247054590906,-381.2650345782478,-413.4676072431178,-443.2218295583075,-504.8775191287068,-569.8271306969746,-498.34664365439403,-208.96009197488428,128.7850244192261,293.88158127136575,298.14923698764534,280.3890198839411,300.06944386058933,328.60193905070844,331.23501720461485,301.7525235244973,258.31937593839086,226.89480746966646,218.58238129709656,220.9840335874527,213.46620086482872,189.01705369772714,154.5780665761489,117.60308084786915,79.43287412021498,40.110397863653475,2.455030777450405,-34.06080988296343,-72.17932342673133,-113.50465670679326,-157.64903787971542,-201.96810983805835,-246.34380560937734,-292.5944870293681,-334.3525869447511,-366.7887158457326,-413.7952371590313,-486.18129989318413,-491.01941879312847,-301.23932297582706,19.323114613801643,245.3195576450561,293.8681368037436,273.66315024575863,278.7310893569999,303.53291769749205,308.7286963794761,281.35868617940315,241.3530778706418,214.54120634083606,207.32426418560343,208.51655896004277,201.8053331053611,177.66609891250792,142.01123662263564,107.71657556579817,78.09425431407685,46.47368826178372,8.766088340692182,-32.966804695929724,-74.87476644308097,-116.39471199643837,-159.96376294622627,-205.0927840779581,-251.94831564561125,-304.5452382099201,-357.881559677356,-397.9591132820517,-426.57802253128426,-474.75867817142625,60.0,100.0,63.0
224.31184870982574,200.44254804624185,194.3684214843443,192.4949451450879,186.06779308450658,174.03655737533805,153.13498131182607,123.60594469507876,92.71943224477144,63.266794606372294,32.96484338824985,4.499653247164575,-22.002136011183833,-54.471271459300056,-93.51597094252077,-130.84303808764253,-165.5053289265903,-205.33647999808966,-253.14206022575235,-298.4211066500813,-331.7962467513337,-372.62320592437294,-445.911103668478,-496.5247554991503,-395.8101788014902,-132.11062042996343,114.64814665866142,209.5584766409027,207.17982173222063,211.97411663582662,246.83560312616817,277.1810595332071,274.2382514904212,241.25648887670096,205.73035588963572,189.5898140625056,189.8933433996229,189.1372931253351,176.22840176709659,150.6943070794514,118.5580910284754,86.84048839091794,56.93663022601868,26.86564563771632,-3.369077842639617,-33.458482806424286,-65.50779564118591,-100.98771247570436,-136.87439765425006,-172.61725953486987,-212.60297758233804,-253.17798493402472,-284.23406091466313,-318.0216690396338,-382.83117233165706,-445.0469277435109,-383.1332984006749,-146.9693204795936,112.9169826453186,231.56621042416688,230.89454071383753,222.55376932340445,247.64003372280558,273.678682738038,266.43440630231123,229.042940304639,193.70527687330602,182.78236634757465,186.7553004894864,184.34196018142663,168.23750114263922,144.20458235018768,117.53426928106394,88.70222408709871,58.1277050562161,27.22805714175529,-3.5682633528636893,-35.87870775899913,-71.97867485880329,-112.08332254842183,-153.20392325056656,-194.3286179562536,-238.92351490099438,-288.7496016475932,-334.92923152206504,-366.6595230187165,-395.11102957011445,-451.891161922202,-522.1907780016898,-487.71541873142695,-249.9864163880289,72.24909242403389,264.13899459894293,293.4238466111751,279.0012343156431,297.60846084596454,332.1544804294528,342.51109964466207,319.87631772278144,284.22496550134684,256.83895601471806,244.1925672136592,240.8800948435209,234.71429971822417,215.95595217429866,186.90048839464149,154.11937831742574,120.32203693133623,86.39219580494341,52.19312759525271,16.422929211653894,-20.887695525979726,-59.63427441018975,-102.66721598826214,-150.0159565770482,-196.0432205247777,-241.6238263592885,-293.23357542054185,-347.8100432339653,-392.33938305814553,-420.7612464548276,-456.85133693031196,-527.8348615967029,-570.4058012798599,-434.5299698280888,-103.9487446136204,198.7109402109456,305.54322092312134,290.28091878248284,282.5712344003571,309.3873701683575,332.85362937976544,325.58504130168217,289.4297598364418,247.07327255610682,222.26182112642806,219.16075854047313,220.50881738178612,207.9845285240545,179.66953245106936,143.98186754856914,106.7531346896341,68.08053165200283,28.977405685831464,-8.078715988086218,-44.817805259037634,-83.75045991019111,-126.06963464967363,-170.53797893615766,-214.66307333828226,-259.56957694296966,-305.64616580181263,-344.25043748403465,-377.2601567189521,-433.8009062418818,-501.37158974311484,-458.5459189140365,-212.6644412645757,102.8768472419144,274.80202175089255,289.0129662651355,271.2131630792714,285.70751033575925,308.3604741589172,303.75722638355336,269.75932819441175,231.5176491663812,210.71698895354479,207.5262483140984,208.05059175936447,196.65994670152025,167.95077309109638,131.53540290040058,98.89274098766414,69.47737444732851,36.2027123822045,-3.0613957329285184,-45.181854468596825,-86.80372267007776,-128.71432841293935,-172.93491324188335,-218.28163207758402,-266.4807424405049,-320.4830423853962,-371.3006687688323,-406.48279337965266,-436.8339893837468,-495.81676989413586,-565.8671100900251,-516.3399533109261,-248.78954132756448,95.5399903374485,288.9731115492053,312.56377022857964,298.80772931639,320.60703067150456,355.9674725522392,365.88703158827525,340.18905848164246,298.94230341289665,269.4415623643929,259.5484464072004,256.3227749849201,245.99430506042296,226.32089956505484,198.8961755078172,162.74534070080722,122.4121324813302,86.06434882342397,52.641587063867576,13.79029780277053,-30.50364662598112,-72.74291626307838,-113.79833406164066,-159.0738275077288,-207.71589502318426,-256.9140480648083,-308.5306703741887,-360.2774762793591,-399.51751480920694,-426.68232665155324,-475.04167659093275,-549.8652972383688,-540.7173766348394,-319.38729941345264,23.90949398757374,247.91968949830223,284.39513291554914,259.7614657258931,270.6558295933751,304.72475592494334,318.78151748562624,297.6695417856628,257.2682725548082,224.36717346305664,209.83563941209385,204.8282640391832,196.42855373155945,175.7065660040796,141.98581089393554,103.92157258579786,69.5310442307413,37.974337048515885,3.65628976382847,-36.899284012878,-80.52018012262245,-121.35914758579221,-159.28255265898156,-201.33388164519266,-250.55808581310922,60.0,100.0,63.0
257.07953410990194,275.67567303956326,257.57470516428776,217.08962052001127,187.89512154165345,183.41769567906846,187.40472581196647,180.9636118223457,161.77187994256022,136.68824044072315,109.4442682742592,79.9856221464832,49.178485904348726,18.35615433241629,-12.641736208134184,-45.83995645156031,-83.25223138417972,-123.9954646693542,-165.00026877345942,-206.6489611740386,-252.94537226244734,-303.10153308669624,-345.6965024348688,-373.89957183787027,-407.5333873411079,-474.19474822527235,-529.8644673802104,-439.49674646355845,-154.9093370409856,147.192533236616,285.0675703004004,288.33741009976643,280.3966472837205,308.00298018525257,338.7771197683922,338.80178078605445,309.76524701806,274.87862687975667,251.74077967781537,242.72903596977793,239.99069232390772,230.72136683647065,208.2809252828212,177.62136201237416,144.4093222707195,110.50787773196723,76.59046364066181,42.06165209444562,5.753276312169005,-31.85571955288231,-71.48588850666746,-116.11646629395233,-163.64319746070805,-208.93705340521925,-255.7831566598798,-309.17261770325433,-362.3275916346172,-401.8388204246488,-428.5790263424262,-474.04756942980316,-549.2402724749784,-555.1648735617025,-352.4037467321169,-1.7829864792394554,250.3033902176907,306.7515606131381,283.9133871553903,288.0589739210525,318.2881887091125,334.34223010717267,317.3779933899776,276.5810497648108,237.4339311092928,219.60188594671493,220.11482877393098,218.74269941294975,201.11569946331454,169.73288544939166,133.3046336946835,95.77011095989114,56.67117422312212,18.059703051905412,-18.588479946249617,-55.76453219794028,-95.62166133844487,-138.82855762042743,-183.36463814202443,-227.4180685872963,-272.9831363689604,-318.0221518832138,-353.4049417683982,-389.9301566551039,-455.65282394355125,-507.2863934594374,-407.264744974993,-117.5880319742928,172.72958921476797,290.10722990830016,282.10545171650574,272.104125126437,293.3886618625041,310.6562107138312,296.1341501341887,257.8425144607888,223.30385094790182,208.45127772280009,208.04969010917966,206.5221779254341,189.95123221845117,157.57886033452317,121.47446835431789,90.38526092901982,60.49231345929693,25.395189855389553,-15.128668982262301,-57.32137656599862,-98.74471438362492,-141.26298869843768,-185.9737317989549,-231.68000760280867,-281.60230382640304,-336.19626718423183,-383.2473594255249,-414.3806223331852,-449.77948240122487,-518.7493686864212,-571.2145246911817,-460.28490020612145,-145.4497196509849,172.83779335124424,308.0954019194044,306.9167930688373,301.2452470192438,331.46655927441043,362.56814984690953,361.68698262405525,328.51897866977316,288.3567734433312,264.8847733673042,258.71349629506904,254.38262145186374,241.148042397011,219.23120258095145,189.3199747655474,151.1152118353642,111.29228660438763,76.46894765942116,42.242922597629104,1.2121165348757006,-43.1152389068601,-84.43550509981948,-126.33938854816918,-172.97321461567245,-221.86117242737342,-271.47354773860104,-323.8963572765064,-373.46976738477184,-407.6435222214432,-436.72543626398704,-496.37023514931815,-563.3453976140282,-500.1141602190436,-222.0076412927661,109.20806326373977,273.94946112032665,277.05434286010137,258.1909792304973,280.23919607075004,312.20836798562317,316.0638396762186,286.75376312947475,246.03537840963494,218.4306575979774,208.01606163045082,203.25088064440357,191.93453006507647,167.05051372941477,130.94672234719454,93.47482373549269,60.34795712326884,28.58627705923802,-7.420146412647541,-49.481600328457084,-92.7680387488672,-132.4034780087173,-170.6396756880315,-215.07343639698783,-264.6898695512634,-306.23217575022545,-342.3593821758245,-402.33828323922137,-476.5813223177747,-455.5677599130286,-245.76599020522985,44.88823124421507,219.83395240827792,248.63246394505913,237.82371942715514,253.26857937343405,281.36573563771975,291.14866302948525,271.5130218394882,237.67946237588163,214.1913398594195,206.45287787146137,201.67081648284702,188.28779657226724,164.85111405338336,135.58347546122545,104.70126338071238,73.33583857145145,39.96419284447845,5.310382470900969,-29.00903136481034,-64.77169631148939,-104.12364725047146,-146.86088972824737,-193.24054356880424,-244.48203654302557,-299.34382122825355,-349.4403685730401,-384.86488353951455,-419.0495115289477,-486.31802700827785,-558.5609015119902,-498.0896563249024,-231.13082537813142,81.57219469867877,242.82680441506997,262.3781493117412,259.06355784426273,285.70865396729243,321.1551919266771,335.6789124339878,319.2639564119802,284.30515669846756,255.01726711921793,241.23588624134482,233.76960822677452,221.9418536914137,202.0267093211362,175.18095785798033,143.11017954744045,107.73460998334966,71.60195867134873,34.86458719993005,-3.6277331033543696,-41.395301686092104,-78.10631207336758,-119.70908126154448,60.0,100.0,63.0
-256.30299955256964,90.81716194426694,283.89759044219915,301.601102328957,280.6437340411268,295.9409391865649,325.81043685565356,332.89324139554105,307.0619433513966,263.9135375500016,229.73840477898528,218.6045624983076,220.85977013091306,215.48720393290773,193.06263653596554,159.41588657342578,122.57280187552057,84.62503228227186,45.30680730673604,7.342970456865397,-29.15314831772288,-66.94003418892756,-107.79560478338648,-151.70024356227094,-196.1116647613006,-240.32344047224294,-286.44080634270176,-329.44644809279635,-362.43212863917313,-405.5336983946155,-477.1950775099165,-499.88226300442176,-338.2257182690665,-22.619578575300885,226.30584730929948,294.4923574719196,275.82478227516964,276.06874141607165,300.6308281205176,310.0341297398459,286.3846227158625,246.34051641217403,216.8873355450204,207.45375632940716,208.4717653541078,203.6428415609937,181.82352367883877,146.92299393872227,111.93665524135619,81.98844204230225,51.021877531651285,14.108264191868663,-27.326995464260005,-69.35735377109829,-110.7865850321721,-154.02312823261485,-199.0485060936755,-245.44068778332928,-297.2272863453526,-351.26541719916224,-393.647967727169,-422.4906092716097,-466.07332104043905,-541.1903468547094,-562.2236975859546,-385.165636746763,-41.976048321141036,232.92262069994,315.3073314515828,301.70363196919374,307.19331118368996,342.3255026096867,366.2662959106622,354.60717433032977,316.2802817216318,279.34252957126404,261.8882046620786,257.98520982350595,251.61005088713782,235.58603355429668,211.49510950121288,178.98543320477225,139.34471186013738,100.68362058599587,66.95049649728786,31.179748944522462,-11.667499714473985,-55.37949500905051,-96.18200071687296,-139.33375081955194,-187.0488133193512,-236.0263695208962,-286.32622455218325,-339.1058744644529,-385.2126205377162,-415.0822227504714,-449.69105863557945,-519.2930765189303,-565.711390068777,-439.5287519878314,-119.70695602901208,178.7027402203899,285.5362998339101,268.6131501940692,260.7181655057127,290.6258815123901,317.09813113322974,310.39580145389726,274.8611689649863,236.0630502222537,214.0356292507915,206.65882850138482,201.09583367273933,186.24442937964696,157.39516308664895,119.8301006013548,83.45794212042257,51.29232131886099,18.82056462973739,-19.058251078413825,-62.164434115101784,-104.65966709352575,-143.2806729660903,-182.57675863545683,-229.36282469089642,-278.03660364411843,-316.1822594810152,-356.04962858966735,-425.34466387095955,-486.77506242419844,-414.03264791109797,-160.35893493202454,112.94271627107503,239.33856796026512,244.8240234008842,239.15947374594955,261.63910816186296,287.0583520510255,288.29772504764094,261.99446617665114,229.09293191225018,210.7207780762122,205.4511166169849,198.9338427191264,182.40616278892725,156.77691383213218,126.69611136575313,95.74535744814159,63.94083719696218,29.972603348309377,-4.628141636026401,-39.05626997065485,-75.74969209253645,-116.1495579049163,-159.8299061093423,-207.51430238472207,-260.1650808619197,-314.87850338940285,-361.2683793145028,-393.3494088717629,-434.13690746296743,-511.2230303255259,-561.641696937548,-439.37512897728203,-134.24471046270438,147.61348461183394,257.822389900316,259.45951505221353,263.82600196877377,296.6339167704177,328.3640219125219,333.98570748929006,310.00906035322544,274.362600789255,249.62277856707897,239.01519999615715,231.09442806187857,217.02385051667775,194.88587149783922,166.39579269768117,133.10281513166038,97.30068826649206,61.12404271347717,23.897305412656696,-14.782260815367279,-51.891340950176804,-89.40338115927607,-132.96152304287492,-180.76738328225457,-229.8063076601355,-280.9124054786195,-326.83801718516776,-362.61143522245294,-412.69549799566545,-493.995914279999,-529.1322633377558,-386.65814610584727,-90.18239430381944,155.41490715374124,235.5676961664532,226.51892911142028,228.29809614479922,257.2325085408519,281.3269962237017,273.98912428482635,238.8767694085471,203.35869537544878,185.75826384934032,182.41599277360916,178.84118014570086,162.0713539597171,131.1978755359125,94.98270169363862,61.509771499847346,29.468207368449935,-6.166397324779579,-44.883243666565974,-82.6025620492629,-120.36235292034864,-162.98451120546082,-208.6379181838487,-248.88641748112332,-282.49048333419876,-328.70738957479546,-406.28415872430753,-463.64794214765595,-379.7951225182913,-136.15216306182612,103.24441671031092,203.2508975894689,205.59362701449265,208.10401846132373,238.909590123243,269.8698222953065,273.0835164725368,247.12900535792667,214.3838742062013,194.50836099222334,186.4850896970999,180.59596974962167,168.5439753123362,145.7941531595435,114.98521238934465,81.62245104097774,47.89441998174078,13.724859419991526,-20.89771804817547,-56.59680016555827,-93.67553557607744,-131.8419695369336,60.0,100.0,63.0
-485.773170362251,-559.7472768422897,-535.3708618492401,-294.4303740745908,54.80522914314584,275.17847925989696,314.53019889625233,298.93694446670037,315.9275733854996,352.0919698002359,366.76023901921513,345.16045767940255,304.2374225842704,272.13769510896367,260.09170381674255,256.9725416476573,247.96261093450818,229.38423627586056,203.047363846678,167.99094697118005,127.68646859300951,90.58012728738836,57.24712584498351,19.423248640829918,-24.593379801703275,-67.31834338439035,-108.15921287540004,-152.75941040574676,-201.19212530325888,-250.28376148535875,-301.4720067603283,-353.7947101040361,-395.3565020103506,-422.75752760999194,-466.2130259346258,-541.1398544103153,-552.7753946482877,-360.7632532171881,-19.615240626036577,230.2511831966241,286.4362187773975,261.82202242330237,266.8638126575948,300.58179968531886,318.9787423677426,302.1721326242778,262.7381276346965,227.66764610789593,210.9249137786318,205.43418986155064,198.12700619584214,179.31334999442862,146.97307291224004,108.87135543303472,73.84705466128295,42.21163601686954,8.568288561919033,-31.181619197573873,-74.77380180937813,-116.17145342181489,-154.18385563853894,-195.23845422761926,-243.89070186608984,-290.3078276376615,-326.09188161333964,-372.6432354845338,-448.4913876368875,-485.26627351559165,-355.63939804713584,-73.30502870465237,167.13299142921036,248.20659888734673,240.72684554509422,243.2902548106158,270.215028333975,290.57066876958453,282.9649860005484,251.92203699072454,221.90192710514802,208.43318290089027,204.29165541907363,195.29086209728544,175.7442864795934,148.33868420283608,117.76351640203913,86.73127402917632,54.335384670225764,19.934699047515817,-14.521975445517054,-49.304285614189475,-87.05460137029814,-128.43541823895882,-173.13072970763366,-222.22447155568645,-276.0813454750161,-329.7133571856821,-371.67622939723384,-402.4331248910004,-452.9125024103887,-534.70507784012,-549.3227292075956,-363.54707219254414,-39.85274176250064,197.60814473497516,263.5340706600439,257.4933721760396,271.3203314885677,307.38665265640606,333.25223237985506,329.67021429679284,299.7337503679515,265.49194546576064,245.51225304149625,236.98353892917325,227.85877404925182,211.40636112318865,187.22441685973638,157.20007634596004,122.88513286013603,86.8589375582967,50.5613098086459,12.767324929678884,-25.76028102083073,-62.382323658220734,-101.27821737396025,-146.5761588638301,-194.768638853541,-244.43948630919968,-295.2788144661046,-337.7592806699776,-373.94340596079303,-434.0671616246114,-515.1714863900354,-509.91699648922,-309.3638761439868,-4.811063749216918,194.81084031562446,236.49216645217032,223.57989142069155,234.96258659586726,266.2728281882946,282.94590230345847,265.68539361169513,227.4077481043699,196.24933920377018,183.86894369840084,182.12497815563492,175.65774489081392,154.3187504150082,120.80741245965756,84.89105547985923,52.37088672686998,19.652733972488406,-17.220071030225665,-55.994788106048524,-93.27377757967513,-132.06489343504586,-176.19429703894545,-221.16650862401704,-258.85692254235425,-293.2319994228071,-348.19774271238816,-429.9038696850648,-458.5545525283112,-321.0674485582692,-57.57226020492833,147.665806771392,209.04667975802943,203.41415613443408,214.8269859467437,249.44339481846052,274.28610965859747,267.8892393241539,237.16064865427094,206.99648317834715,191.3957188208136,184.96653394334678,178.06106871459997,163.08760955589707,137.45953034777193,105.42655617398819,71.91306859812535,38.066913967064586,3.7787336191055996,-31.06183179760061,-67.19547107861779,-104.55138129330801,-143.37414793450804,-187.1040854746971,-236.29301761098142,-283.0340818380677,-320.34037014764357,-360.57053112304357,-429.2734912069671,-501.08644496487807,-463.32363860110917,-250.92638627677837,13.230318026010082,165.94382848633165,198.49231169577757,202.37210784914276,232.14124392326718,273.2388804155372,292.2248918314394,277.44515961760686,244.9675278936856,219.74399469356098,211.12155045172733,208.61662491997865,198.3057348849489,178.29723656484893,151.44118153122668,118.51721222265714,83.20881153037894,49.191385738348956,16.5436104121051,-16.111717677331246,-50.27749310718465,-86.46718148235763,-124.80439694677712,-166.27320414176245,-210.1712626719258,-250.4142716118786,-282.73686703747785,-325.861327299638,-402.4129708995138,-460.53268920483106,-381.3977568556635,-150.9670408405547,73.06994614175657,168.1947782443678,174.41237262339985,179.220291306617,210.01405186748698,242.01893852027717,244.56648862660745,213.6355532253587,176.28741915115194,157.48419073319167,154.87721357850424,152.99192765472688,139.9400294327865,112.66085454966628,79.91305059297247,50.66452801004807,22.020938393307418,-9.756640216665618,-41.28532290350602,-72.99007359750935,-109.6197919932519,60.0,100.0,63.0
-258.24872112746124,-301.4360802281369,-336.84792436796283,-392.3332998962035,-468.9815410810094,-468.8142484662353,-282.94817707155926,9.544791290363879,206.51169363679952,249.60339223728988,238.17058634264413,249.73097517204965,278.1400493871295,291.57538921595636,275.51504979125065,242.01371989983303,216.26773031754288,206.96562083127938,202.65502521421658,190.70930783785815,168.41823360371797,139.64760659981732,108.82349116092509,77.60059544813437,44.535459818222115,9.913289100362732,-24.422235988835066,-59.82020095379231,-98.67047890746878,-140.98299887442903,-186.80247713583475,-237.36580679681285,-292.04102830461994,-343.5093163192993,-380.8880566957069,-413.20986711065706,-475.1705524253046,-553.0275151973271,-518.7343316571612,-274.8174800398246,46.10028899809572,231.8583949599524,263.45543907181093,257.88907006895687,280.86169225294526,317.16400802303343,335.54028104587246,323.00892657041913,289.1241524165088,257.98542160322825,242.41418458327612,234.8519697087985,223.96968271360015,205.12834808874302,179.08557576191362,147.63204683856267,112.53341488786842,76.41880329321056,39.858226182268545,1.5466151418744865,-36.510644942672606,-73.06309449061428,-113.76148608608666,-160.40376348073733,-208.8679047782769,-259.2705575752304,-308.88071121611233,-347.8862088250336,-387.4491361725482,-458.0388589709056,-529.3107217069537,-472.79149912349186,-222.38429220390364,70.4388467635049,219.85273128170437,233.1841869833815,223.3047687265161,243.44932060693213,273.977362493182,281.4929612431446,255.5098184249586,216.676897521804,190.8435747363504,182.91126203331513,181.40661192975318,171.13284916123158,145.5035619718021,110.24278435407909,75.16328041278767,43.21126612973931,9.44045407675327,-28.446244995243138,-66.92249385965559,-104.06252083597751,-144.28171774557538,-189.5076944103699,-233.0086751021096,-268.3809909689407,-305.7502242543386,-370.5811596287724,-449.5021976876842,-438.40041579557146,-250.59628929830177,15.269635029372026,178.80229113673195,209.32144875204833,203.27689778909865,223.73070064411363,259.05151653823214,275.896736167239,260.52216135949226,227.33430157183557,200.97742404990714,189.05607945670437,183.3963520048909,174.82139031105658,156.68772093546613,128.58815537668332,95.77813031591224,62.179630132034006,28.200588408304824,-6.205225448869512,-41.341638898189665,-77.89962099111528,-115.51651253399719,-155.33437380548773,-200.96042639753432,-250.53177927594467,-294.7386695195909,-330.46140066741486,-376.8867704393263,-453.4239620965647,-507.15161501960137,-418.0036483176618,-171.00020771802045,72.58244317830764,184.15168249888424,198.65011810535836,207.9611110747738,244.47717120718883,282.0852853811333,291.1579023174893,268.6956098365975,236.08750818371402,215.71678845500844,210.5221769450763,206.77211555382155,193.3506843281209,171.20612797721944,142.4647413231646,108.3353171453997,73.18514128664307,39.67327407357023,7.17678191077393,-25.774655950794223,-60.53772536737078,-97.28545603284542,-136.4293623698109,-178.85489195599274,-222.568730558579,-260.3191028046311,-292.58618243788226,-344.77246488564555,-426.1093629714044,-456.1322408694987,-325.5970992236402,-77.24064439894408,114.70334626131186,174.7184192945529,173.32525701472892,185.96406978328454,220.74094286288982,246.64577654824004,238.2987677649885,201.97687442505875,168.5471174574772,155.71688227461564,154.9071579010101,150.7182783069267,133.33165713295418,103.19338423283565,71.01572485345179,42.639855902812265,13.088140121285488,-19.047194934671786,-50.1935630115605,-82.96005705063895,-121.17452963380133,-162.26026808014274,-200.7776853751824,-232.93860126003727,-267.0931491706736,-326.28780293872086,-395.25572216181763,-377.2043458227809,-205.18580746441023,20.79539164223932,149.3391289802433,169.85237951846625,172.3309697156755,205.14101387583116,246.2263852818092,257.65010996376526,230.90792824216243,193.34696095692186,174.94956082655602,174.6442072018521,170.6273553333061,154.78716761855256,134.17784135046054,110.48095288094744,80.65241442436454,46.29864490150872,14.626353539996838,-13.202456497232843,-45.22209517675175,-83.00056190910482,-119.89166980280962,-155.7442605345512,-198.72272048693245,-247.20803190649366,-287.07215013001974,-319.62913953411413,-376.38059600533643,-462.1087897338623,-481.7109117650722,-324.5588268631338,-56.26442590316244,133.4999564534583,183.25984327701144,183.16649204479688,208.5050791684705,254.45732178924092,285.92628639517034,281.9573142830848,250.15100523247244,218.87786574765292,206.09903971858677,203.76709045118523,197.96649131781123,184.1654520991832,163.13834170842262,136.92160083396823,106.65729834109031,72.94177233496332,38.13921037180158,5.15138725162501,-28.030521615522503,-66.86297658005014,-109.97175485868742,60.0,100.0,63.0
