4.860433375874828,-229.1256250325092,-332.1956287104407,-312.7042395433572,-260.9882598100105,-223.70103934160977,-199.03444673983702,-180.8960859700687,-168.2646499931167,-161.85265152626215,-160.89335368885116,-158.02640085398332,-148.34556279627364,-138.62035448804036,-135.84611743340724,-127.4501884979129,-89.30299860537792,-23.428223186741107,38.397241055274264,72.02800906604749,75.51768502590109,61.37516140410899,46.19650127074709,36.54324939243056,31.637318628171982,32.742857548803684,42.10728831361801,57.55117016559336,70.28339991672031,72.56874622261233,64.96725486514445,51.71386857767121,35.57749175522277,20.53858774797322,9.507723015504594,-2.2061071820568454,-21.022706973217872,-37.197166904845496,-25.936998241245778,20.070811000627074,71.91753525083044,98.45935008699223,95.94497330849984,77.24203684157315,56.4471186154857,37.380091284431806,16.645667077814917,0.34569516506680936,-1.3484683407441125,8.941584869746054,21.141398779209283,25.915012833254327,18.324036409670406,3.2791336404349893,-12.602604785423289,-28.022687847262336,-42.83684775606596,-54.64185928232069,-65.21451134489278,-81.58676956126311,-95.96691592936604,-80.47959962403598,-27.043150601204466,30.482697162092155,58.64409084072139,56.6032138967595,40.54808357004578,22.063651053667925,4.520395646712503,-10.248555457564944,-17.620199408223105,-12.715275633271826,3.5085790909244894,19.600049609556923,23.64561664567895,15.745102539872475,1.0496861137045224,-18.05630711830797,-35.64713005073539,-45.8006795027303,-51.772294236627026,-62.4799849471568,-78.28528226633338,-78.04398018416411,-39.07888174966256,23.166045193531552,68.39516310461731,77.69997601541246,61.74309471024511,39.28689017290616,20.38691289413924,4.567059950730911,-7.856011822116434,-8.811628069444218,6.263050151717736,25.16170132753001,31.208774118727955,22.821218477162812,11.38646171480305,2.907197361804394,-7.571089482977032,-21.951469084576892,-35.923200461709314,-49.451474882149085,-65.60077814100062,-73.23841913914079,-48.68818586851194,6.854916971230816,59.53416170027363,83.33289500119966,77.27610042028505,53.924874943201914,28.168894615280795,7.798777299260631,-4.999584685955605,-6.796445640965122,2.937173012252339,16.054532935016987,23.10067660594428,21.53964421717629,14.182622976027798,1.5326993517063925,-15.406699263912195,-29.831881293316485,-37.75191787757241,-46.64651476514584,-65.39092713831015,-82.71609251796603,-67.821052794344,-13.255741979230157,44.58026568876068,71.009500382599,68.5080204737458,54.26898965495452,33.71715142323282,8.682636421174632,-10.526639519901169,-14.50986585393279,-5.439588616040167,8.37812994208482,19.2574021736445,22.26421526730704,14.769686806735203,-1.4819061497482569,-19.14657768731809,-33.6050520573126,-44.39586620107447,-54.70207471560447,-69.26754453413463,-77.85239080361588,-56.08965899221458,-1.1727616251697648,53.396023853171855,77.32898961035475,72.01284086638809,54.604909236708224,34.844084887834974,13.289972273381096,-4.50376333155316,-7.6656768097569685,5.462840146436298,21.291922254109753,25.621213301393173,18.85264208263438,6.660603934549605,-8.498095832268797,-23.236000333081332,-34.796651833600414,-45.03512070198161,-58.13817296715206,-74.66505477272233,-78.43791895094198,-45.93404182172832,14.30496760680026,62.153730388585025,75.62131327102918,64.9640494938691,48.011380016943534,31.567048203559146,12.318786494648268,-6.515293891988434,-11.760356494100108,1.3393134214598057,19.98610493906691,29.61488756312911,27.218655278966988,17.258003963823395,2.407420484553396,-16.11127476599338,-31.70916959503287,-41.438414609542285,-54.132563661734146,-74.0928569452084,-82.64016471499376,-53.545987880588285,5.758786481533105,56.384491353410084,73.0674883400446,61.73444316090889,41.150675341216825,21.552486175458807,4.357603762514232,-6.708333972486844,-6.573299172504353,2.7246376237107306,13.123067556784676,19.476449287796264,19.93726118464945,12.894778950516692,-0.12810959753124873,-16.29147631569453,-30.980117804227795,-40.02790632617175,-49.46633193341577,-67.47340104843094,-81.46937667880435,-63.357319304263946,-9.88797995132514,46.07143896125725,73.0426798053551,68.10879666674164,50.033542097094255,35.32644656343446,23.15184061974911,7.861879203238489,-2.743389395619668,0.8094006138136733,14.259457226559327,26.491437257887522,29.530445983776378,22.572979021369633,9.3279316058553,-7.266653513469478,-23.835537029376244,-36.965963269940325,-47.94698333759018,-62.66266089903968,-81.62081736235191,-85.48829195627766,-50.66271074824748,8.812099259190687,54.971620053646504,72.4345254135707,68.04300566893787,51.79503691879381,31.519746748422243,12.218335152705563,-1.693449888273084,-4.972731649813392,5.45967549355113,72.0,121.0,81.0
-8.855385358558976,42.28172586753933,60.514963286556466,52.70945518864777,35.18943027039596,16.863017275309826,-0.19265522778360025,-13.383393092831403,-17.605137138498197,-8.867142233170235,8.847720677409926,22.249286345377897,22.32504654850178,12.067235319399792,-4.160163240644469,-23.671839257977332,-39.39585206051056,-47.58121175254543,-54.038271076062,-67.03585171630147,-81.22977424842566,-70.99720741355989,-21.724519011109926,39.49263265605778,74.71191384635416,74.8086446221633,55.235656299275654,33.346146844008764,15.623312804427897,0.3932693418773401,-9.7505419944038,-5.8912994737458675,12.203473169603868,28.667908466756256,29.873627276618357,19.306786414465687,8.733850065770843,0.3514899650642278,-11.483781653674388,-26.18643706981762,-39.68512419342815,-53.91325326372532,-69.7366763188894,-70.21238758447512,-34.66360289841941,24.012972172368304,69.82092765443682,84.24332517140488,71.59718981268138,46.20471836679332,21.605221962734763,3.2167928022616348,-6.821667309356639,-4.951010506790644,6.867030570697452,18.995681121102088,23.43341455871549,19.909733422803875,11.122452594945367,-3.1330282531706626,-20.18439046563148,-32.67453872679957,-39.674425755702146,-50.99931611902125,-71.77909465527192,-82.9456783157693,-55.14991388052226,5.220214825997517,56.02623290373256,72.42064897469324,65.09194138008637,49.00617318778769,26.64877553345339,1.947283578558781,-13.365649080956143,-12.895335498793816,-1.5538398627702594,12.097016197484088,21.08549735565238,21.232814436734262,10.7027586282045,-6.7643403834580145,-23.712511208877615,-37.06604838022628,-47.13545224432932,-58.493249541105875,-73.3867446036079,-75.57766678105607,-42.639427574166696,16.466597743201987,63.990483270375776,78.07944824464651,67.54178292195856,49.04162440848837,28.76036637149085,7.265691901088348,-7.285778805802513,-5.194733049433669,10.58767337198334,23.985627944571487,24.50774275320742,15.738067619307136,2.487299638338412,-12.996558477119857,-26.89755408207227,-37.728685544237145,-48.32967361994896,-62.868525683785556,-78.26868778109494,-73.30884068476021,-29.81655348746126,31.10021973345879,69.55925573190416,74.15316485699995,60.119650082840366,43.286490282630986,26.41332100075647,6.331963140736081,-9.982216275224868,-9.562801198409373,6.959795737884132,24.059140459115373,30.020148119123675,24.898010859895273,13.47681473454969,-2.7607338427317734,-21.262261843491846,-34.91058197172888,-44.296180289807936,-59.495424302850644,-79.10589234413544,-78.68758376209867,-38.022414387596086,22.992513322580546,64.94871285931225,71.84541349396432,56.025501904857826,35.262674075544204,16.278063187711982,0.24910355021367558,-7.910248485368177,-4.511132801117488,5.958753895680433,15.462044392019747,20.311081163591556,18.67523816613667,9.617512857786943,-4.612822522738371,-20.97041429780005,-34.14568445815391,-42.18896406673622,-53.80463135237814,-73.16456274546574,-80.50231388467867,-50.54347196170946,7.81467421464603,57.56956791443103,74.28928421425411,63.2489217498325,45.14074312884671,31.935192725249493,18.99531098357923,3.7055213343439877,-3.247039770562121,4.152218377742043,18.384438574680203,28.49431716325453,28.40782381091998,19.233929974396542,4.76178404438788,-12.244483614035198,-28.049195359276904,-40.14078594279927,-51.554826438977955,-68.10581554517016,-85.64893991491549,-79.70981450401747,-34.30075289190753,24.840591728288015,62.86523242767106,72.94562995678383,64.1630626466079,46.08835992327288,25.6599556225976,7.43160155638918,-3.982820751624142,-3.2666659357228984,10.08977547496628,23.479855569928016,24.345057126761468,15.043579550915418,2.9296466052012815,-9.6304987489985,-21.492994537099015,-32.1977123979836,-43.863178835294946,-58.43475445768269,-73.35236988022774,-75.27497907726438,-46.5169799397399,6.814961304389082,51.99953702332831,68.88354589152897,66.47148027810378,56.147780220434115,36.85203276774252,11.843908107510089,-5.72364045284441,-8.158823165190732,1.9961209441826115,15.754791243028976,23.28429030637376,21.76142517916493,13.906029019801327,1.6266905890788543,-14.548670857361918,-31.40758882769555,-45.64165628142171,-59.47563264250919,-74.65028771658153,-80.8994044894612,-57.44091982831642,-2.0171692027478505,53.70377078332636,78.4096966433611,71.61992004876748,53.39429305926981,36.4029410245354,17.48312108649547,-2.4723596995291097,-10.725583697736539,-1.1325916053068399,15.059245749796222,23.43235014568877,21.588636074680434,13.05438214551902,-0.6583447573428167,-17.220999765203537,-31.05312487502778,-39.95094827703665,-51.3743645597059,-71.72769251936646,-86.998023847109,-68.80978214343345,-14.399585336031963,41.51598675568269,69.32089439659458,69.55858601116822,57.083681869588375,41.78522833040985,72.0,121.0,81.0
-41.981428984489725,-56.32614624900873,-77.47627227897526,-79.64286971875968,-39.46625935441162,22.741792484146387,64.31649438648955,71.84788526462076,61.05944871360056,43.19835234461407,19.310905766030174,-3.959122882950971,-14.798716354370796,-10.357478032555312,2.5125978558412037,15.405965631144008,22.167027850526924,19.269674839267708,6.021268881120345,-11.957615721701622,-27.96618686602662,-40.21855968722744,-49.97964184624687,-62.72781437547699,-76.52027590750417,-70.12521820096855,-26.768316802837802,32.99604647090068,71.55948145032386,76.73431077191778,62.494490919395815,43.379658067697285,22.498559074690743,1.8063349467918557,-8.586221125263943,-1.472416798898681,15.466050133524686,25.48639545778637,22.627595549697087,12.274123427993219,-1.8953336724338707,-17.343405352155894,-30.270916252903064,-40.63082174119121,-51.98742176992584,-67.82191640352444,-80.18200497453681,-64.64232311709685,-12.091572625925474,45.77214400891872,73.95209699281158,71.14021450844606,55.144014074180724,38.60832499470583,20.904204408756534,0.6021311039746475,-11.943796754479724,-5.901891129403481,12.587142471271271,27.11384221294468,29.468151859625994,22.088898575184633,9.286785800121953,-8.169152876774241,-25.948065176552504,-37.66694774941005,-47.72262473210853,-65.4128132982193,-82.44025297336499,-71.0479029561543,-20.65505641588892,38.440103608094674,70.3804270355071,68.70034251247488,49.998260968000515,29.56231202547435,11.208042849381028,-3.1956549301894555,-8.082344028037957,-1.8304507672833052,9.068244858226569,17.40516324700754,20.605056601843895,16.761744161208814,5.9144476006735855,-9.299607648783962,-25.36870462914091,-36.787710925153995,-44.66840442901407,-58.983037106281,-77.91799518325729,-76.14799437309382,-35.142730945066695,24.687788912837448,66.09038313490223,73.11272415983,57.86834418229226,40.79392908730836,28.54769842482762,14.516835723388589,0.2927638604159576,-2.44643289779881,8.080936283057056,22.130748879722745,29.59236546624053,26.50943764928181,15.468872719438417,-0.029126077099757584,-17.117360898437834,-31.90983110041693,-43.23310120503447,-55.64800629796766,-73.8074776047598,-87.68004615235354,-70.2819929906538,-16.73520727522052,38.862903182006605,68.3350458558353,71.89075464462839,59.52528338072675,40.203311540484975,19.979834175625218,3.207136446315094,-5.241253438502071,-0.3906992013627092,14.7240425445692,25.195458075458586,22.3119088812999,11.645012178993124,-0.6898297114030387,-13.192178814805388,-24.653120746775496,-35.34254591094207,-47.76070200951547,-63.03902492616409,-76.14688972634848,-70.53796841089896,-32.433739191178915,22.200052727524106,59.80150075139439,69.42208886410815,64.1920738012633,51.60969217715586,29.707956932268416,5.440994759928822,-8.023768981183336,-6.220548765983315,6.104060104272292,18.858690725217674,23.70016222665574,20.00195306196348,10.799272348195256,-2.7155887524446305,-19.56637254513485,-35.797517516180285,-49.488881707263374,-63.86465631293544,-78.24422879807368,-77.95036964185078,-43.81293519266275,15.859891366885291,64.68644127077064,78.94423988122735,66.61814034818046,48.30417420858982,31.38013685493047,11.374600879075686,-6.63970781958854,-9.58728795471949,3.6515200477990737,18.633388457757178,23.79216502707915,19.6966427384073,9.590425014943342,-5.361176308574388,-21.747554836620516,-33.9792946438767,-42.500273338206796,-56.45695945521097,-77.91281891343678,-86.15684157938895,-55.73820369426046,3.434884478196145,52.9389311210786,71.62341248768988,66.62510057631292,52.79531285058615,37.04287145141653,18.78740095773792,1.128255874400461,-6.3127342727208475,0.11968063547701373,13.615892404680668,23.556931720738202,22.468218120401755,11.291498969428911,-2.505352432921997,-15.88714084022736,-29.750421343257447,-42.80244036512222,-57.36048085880077,-75.14229518627567,-79.51079113310782,-48.899906979995876,7.040059515447829,53.67341104973629,70.94453280010659,64.85110598236481,49.681766750120296,32.433515563313385,13.713527496833517,-2.163250230934555,-5.721747517313293,6.086900215419079,20.90585560323566,24.976380328983815,16.950524928091575,4.051637918753035,-7.2420881753330555,-17.842440522515563,-31.096233808960207,-44.91306340457902,-59.49627537766309,-75.79028549743325,-75.73853269017846,-39.25012804963066,17.061812367638247,58.3389793365919,71.59047383713443,63.68192430771718,44.43378956764335,23.319670279719237,6.228656109226172,-5.7930404183725415,-6.928066908418715,4.803016645791579,17.1137307079999,20.028270024755543,13.648265860602502,1.6808687873957628,-10.688299780981296,-21.4234593568316,-30.581412398369135,-40.70701188867854,-57.008000487136684,-75.1200978461941,-74.1188837572214,-38.32510246833265,16.48741138773614,58.88419417789402,72.0,121.0,81.0
4.672505145633828,-13.633443506033098,-30.037086551524396,-40.23305183887871,-51.9181033530086,-71.44357729599858,-83.28544947955966,-59.81542274483377,-2.536630339699425,51.38995893272943,72.84263581354001,64.15897585640793,43.92120463465968,24.041548784645837,6.42829853602131,-5.815323738152516,-7.259952709525624,1.2412211802496325,11.919595631056856,18.926532056237033,20.2962678743181,14.241848571354527,1.8507677955022674,-14.087095304233461,-29.331157885281833,-39.04937297903053,-47.76649332204716,-64.7455195103757,-80.90777691844866,-68.20129094887129,-18.053398890944045,39.85296773512346,71.53774355601954,70.02186620985563,52.445110308129614,36.96092603219926,24.93608394129298,9.92825167415258,-2.0686541324200505,-0.4552764669093323,12.298465590068178,25.284862696194434,29.75987813817461,23.947038018544845,11.339766909016092,-4.966573846621756,-21.780716040600687,-35.43577877465762,-46.40726088585823,-60.315762631554584,-79.31733402867607,-86.93853768148996,-57.50513871663434,0.9253686757246745,50.47653862454083,71.60047242779017,69.5164218415305,54.32946623417238,34.255049297015546,14.581867271711573,-0.33054744104551403,-5.3410459000783925,3.4508807229830425,18.916824020615543,25.677441201467122,19.641161169425477,8.146202543069306,-4.330518015584379,-16.656331551209973,-27.729213698378743,-38.64222576972873,-51.92931962084657,-67.55686283370753,-77.38201177671452,-62.854453853045854,-16.822016663104282,35.97022746327108,65.07939154861148,68.79120560390368,61.38535779429384,46.20710611882174,22.312950809252175,0.018173177035235688,-8.992673969057343,-3.3651100231287026,10.236979546957423,21.240867162182308,23.378333726153272,17.803607812415684,7.336613113056955,-7.366700247601653,-24.51863027021531,-39.92734758517199,-53.4175333939584,-68.35844464094738,-80.6754190758849,-71.9659663206569,-27.822812542514086,32.71844574090045,72.54496596288276,77.17230683592719,61.229334412811916,43.43175835860978,26.008055929846616,5.362920100864736,-9.456032772944074,-6.9711982806257815,8.549976916370696,21.287389228127537,23.37188795139168,17.32605734364489,5.70187555504768,-10.206599080311488,-25.88593068728993,-36.517633569969256,-45.54708000898548,-62.34330192441382,-83.05968627278324,-81.80698675381268,-40.036278910927926,20.30195014630118,61.58032150409172,71.90941665137932,63.01969558931003,48.40459924020978,32.06259490834182,13.23871568572621,-2.4523525071486154,-5.738377045760162,3.762056719683826,17.290793765712266,24.530246822401132,19.97980071107275,7.283421933429692,-6.363459591538323,-19.86514909533567,-33.64473542614186,-46.59328349740723,-62.47519304708903,-78.98468814241669,-74.62703179700135,-33.93663834896146,22.90812278682539,61.803806156066784,70.91930635030369,60.897168493912865,44.84463180841354,27.131901957328758,8.451691737286493,-4.852681403849365,-3.6084582744700033,10.843500275222747,23.48976392004158,23.671123350914307,13.336033208286718,0.5113132771354589,-10.166527672744653,-21.396518317175392,-35.17134766582387,-48.846097241954276,-64.36832884941502,-78.7273821033411,-69.03469762482582,-23.361471699337002,31.671993948786042,64.93536820820782,71.02167969123354,58.8717291163828,38.12782335583239,17.90934076480975,2.111767707260439,-7.591100020499714,-4.52179319527322,8.971382889257278,19.036509644835064,19.025641763242454,10.527074072779453,-2.0258994033036894,-13.96052674889508,-24.211558464795484,-33.16121396762274,-44.65837178079243,-62.72247955999035,-77.91076427170326,-67.30506097320767,-23.018449685683347,31.171814903838147,65.9437868901228,71.99413545944144,58.083862030683264,37.02645501362009,16.532101770255206,-0.19615756321093064,-8.902014779140064,-3.977491735489523,13.789795274487375,30.919355205262374,33.15666930627319,22.395161744702367,9.932512849379801,-1.077407389664176,-14.590879856193386,-29.092548279511952,-39.60338518161727,-48.59248608894781,-61.511490370353975,-72.58999283320804,-61.92317917113218,-18.993986202647285,35.82216797253709,70.53594920926383,72.15132139177439,52.29088664142085,29.058955085936198,10.420557441784386,-3.5032910387646687,-9.22635758025022,-3.8235497186879366,9.363083273008321,23.013691320763144,27.369812687125467,18.970554693507236,3.987070413865166,-10.338732520512307,-22.386178356957,-32.525444911520594,-42.38857042970473,-55.078839410892456,-69.60240239146053,-73.64912075365046,-49.164916792549384,2.8130428206075955,54.70317590733662,80.58563169371985,75.10895767075237,50.262524675497836,23.12834529988107,1.6404773525878147,-11.58256634426569,-13.688587755298732,-4.869374065459672,8.892810630803412,19.21168808470506,20.444339783522828,11.675504904480553,-0.4399609881945611,-9.411101354041103,-18.481129105664436,-30.69995942026517,-42.96020671518256,72.0,121.0,81.0
7.926927700834289,22.28472663339664,25.00080875186031,16.5557559093953,4.586380458855738,-7.965925135952604,-19.996731858731007,-30.779998174172732,-42.15761105692364,-56.33935324813399,-71.68834824208645,-76.51617181579022,-52.27958559554803,-0.6000992647233229,47.52200030792136,68.12129089275017,67.34569697793822,57.96583972644347,39.970307875263835,15.044753116569684,-4.2112964670542254,-8.694128832537002,0.19074564264814242,14.117881967185161,22.82667679541403,22.404098933429246,15.219291344207157,3.511892523573421,-12.249133988805724,-29.290794042094163,-43.86376673587618,-57.51629953791789,-72.7493679501287,-81.34864812567703,-62.754911256995925,-10.319597761017423,47.6594479549501,77.25118528054189,73.66065399821511,55.82572147581688,38.63902476712879,20.247414685975112,-0.18199963439821762,-10.704968767926454,-3.1730926421777297,13.141953346438703,22.972755432151597,22.285779809220603,14.50424267433977,1.4254548968279774,-15.041104917129715,-29.541013650616453,-38.863124115550015,-49.33463970259901,-68.73887735713643,-86.33935560786622,-73.74418720520559,-22.66738326152784,35.35797487571829,67.47450306880404,70.59185946614431,59.01246232092364,43.906846553393144,26.819580460250876,7.915095541492431,-4.9231601498542465,-4.032281005157247,7.7471046487093895,20.41111615868211,24.450833882802574,16.77974280631266,3.2565643858151563,-10.202969977427607,-23.894280480654132,-37.413406018058645,-50.65978728218513,-67.81175365875745,-81.05740785813208,-66.41848645988797,-17.523433622144875,37.091352924383244,67.28928673083169,69.29081606631195,56.511077608914114,39.89902027403171,21.697670135146023,3.611180653418003,-6.2539979907736525,-0.27458058737120766,15.402729944996377,24.94087530151522,21.446779800817904,9.540572190517596,-2.790230945291513,-13.14323279541721,-25.21500248579607,-39.18510059626892,-52.94740035937454,-69.33154404067992,-79.58872457554571,-58.99857481078678,-6.67746665196055,44.25239903833139,69.17598821733336,68.94357455109439,53.33595526234475,31.907867195630004,12.895548921051546,-1.563183077838,-8.249468959112194,-1.1413107370796112,12.776595548042906,20.065477282709505,17.30088304157763,7.059527107364409,-5.64530010736366,-17.09342354497722,-26.862545855684086,-35.9397156799139,-49.253818687356976,-68.31868334536162,-78.44250022769923,-57.42389498547769,-6.858154338527042,44.07922119585301,70.48016922142783,69.42313760279447,52.26100092829835,30.872084617235444,11.179460663833106,-3.795093647213302,-9.063950178194913,0.21079201313621287,19.6105964933872,33.37894739985677,30.875429767363155,18.592313943069808,6.754661523285082,-4.611066125405308,-18.95514274248452,-32.60805427103519,-42.05463416744251,-51.84951520931911,-65.61183832350208,-72.69066550846314,-52.51201594427707,-2.865209622739863,49.025226844312364,74.250631943078,67.74495512407752,45.31525260898562,23.16604373919712,5.865508896237554,-6.242760376266492,-8.756236428965948,-0.5650528902686112,13.693361636749351,25.584895839863584,26.120696999786148,14.916558723747523,-0.39035336782166563,-14.035102206136665,-25.487770127240612,-35.26539465938867,-45.66306014209785,-59.37236732875628,-72.707348960459,-70.05116746368041,-36.09592595539734,19.278509883290784,65.49512862718316,81.95263688390344,69.10539912085518,42.08582159875785,16.226258804188934,-3.1687290046996073,-13.415106334917452,-12.115299850644293,-1.0087691103796983,12.541315880307394,20.662712252760826,18.78589593778456,8.092470270276994,-3.3863976885156575,-11.736706084620856,-21.781763063220552,-34.34785986509687,-46.43809257908091,-59.24535907288975,-65.93774107599336,-46.067252652566154,4.01253882768987,54.54005379067506,76.52671781662349,70.195386953453,50.17249976083883,24.57182818492177,-0.8422181874650139,-16.984406966372745,-18.40040672066396,-6.625613667596158,11.353692777088856,24.506422790828108,25.331429992564587,15.27235186466546,0.08505515789906587,-15.620080824420977,-28.924789547598103,-37.85181476430741,-44.06105418773381,-53.67191306514408,-66.3643568590127,-62.728125286494866,-23.409395265763152,34.88671802312286,74.10732104048563,78.03764506871887,59.26395974028849,35.977461151612765,14.321972347329199,-5.904771966075689,-19.885563186524337,-19.465985460957775,-3.724010805488544,15.507916913365639,25.479709068572397,23.5688939387665,10.72584236412792,-9.598207178171696,-28.041257857693193,-38.40076499434206,-45.14743162524573,-56.56508424719753,-69.03388685944624,-60.21193599942181,-15.028337125089122,43.40002020623794,78.79950334556132,79.81051747777342,57.70904960932283,28.187934308430982,1.843206654020274,-15.485823222055592,-19.638988079961983,-10.827598834804359,3.6502517164784622,16.759166099012823,23.603328393766073,19.73817884840883,6.410891945965918,72.0,121.0,81.0
39.25576847086438,21.352583057475346,3.098944359152264,-6.164754863482599,-1.3690742028171285,11.79940277839333,22.771482482332054,23.321750846603198,13.092727922849042,-0.7060791561184436,-14.07799927428277,-27.917305966088236,-41.100332569388506,-55.139573065220794,-72.97395776753548,-80.67345477324211,-55.064876202631446,-0.6352328994156551,49.026603413285805,70.30546842319389,66.45921086346007,51.873355302798004,34.824261978194734,16.216744769403054,-0.5488583907051223,-6.226594917470449,3.9524003589527075,19.366368557121532,25.225973744025023,18.495587378866183,5.753821581136187,-5.873430392656483,-16.300383303697288,-29.21861789122578,-43.11576429550199,-57.3488775205224,-73.94794268651412,-77.68758680990628,-46.027781779908494,9.793292732199966,54.46638336797366,71.27430828946143,65.59328518348607,47.309832405666064,25.94791099046717,8.25122803070434,-4.637385321340279,-7.639978506693388,2.861644855930041,15.930769372294495,20.22963529248027,14.931041903166491,3.396215672967929,-9.130817755558839,-20.089443259602405,-29.415376186853383,-39.08731982678186,-54.45205775461949,-73.24796087043126,-76.19130099683679,-44.85679988224905,9.281641477680019,54.774533699527666,72.62953772617539,65.51159059169521,46.13346047023936,24.878799734932723,6.200878080404973,-6.590107436893883,-7.948079239021036,5.339119870599328,24.92573220152396,34.33887156446339,27.756192200035944,14.914677890221556,3.644539663929765,-8.463451500865052,-23.259995203231735,-35.70067144532335,-44.536958057687194,-55.5446694397233,-69.24646702487595,-70.38256834888921,-40.40595792188315,13.45324033855205,59.8219746906377,75.16627835345827,62.01610208795599,38.45817245580926,17.707573764469597,1.694133912749464,-8.148255324404802,-7.353086079232284,3.221549794614503,17.841748050562053,27.14013457548257,23.830880428416812,10.538830452536752,-4.584523634933173,-17.55295176880014,-28.43341761795805,-38.04981181891616,-49.252895889735754,-63.728511401887204,-74.49470062263462,-63.647747507255836,-21.07300622187386,34.8842354217475,73.6568348970361,80.77432199334721,61.91538611862611,34.097109694341434,9.86657191592339,-7.21558196401607,-14.256963917601816,-9.677199824335053,3.0542194460608902,15.714596800746541,21.245662298649943,16.33006068577322,4.475817785798542,-5.989837039208533,-14.249574417885295,-25.32823814210895,-37.901688416001285,-50.02970359751577,-62.60151702162985,-63.75054852541809,-33.87785831722028,20.27481040735965,64.3842221396642,76.9666754243358,65.28499001007503,43.15846863605868,16.839867193232884,-6.8402309883177965,-18.952650632569735,-16.14555162971995,-1.6220008411576858,16.136273541547954,26.106584218001903,23.304697942484758,11.163624266617278,-4.546745324621663,-19.823118802516117,-31.985718143678795,-39.701045701427674,-46.225474098049865,-57.499232159525505,-68.22717640619081,-55.12629233057144,-6.813735428846231,49.55724295911981,78.70644875657665,74.01221646364638,52.46561969615137,29.572453454662185,8.258371021480533,-10.962091386064847,-21.519134389063254,-16.18019460386905,2.187747507150103,19.63702523699216,26.09457489328252,20.94172543602894,5.28806138074302,-15.568567848436452,-31.866333507569678,-40.302930122043364,-47.76578295230497,-60.75145103006032,-69.87750677502838,-50.625183392612335,2.3009040304588213,57.100327789307485,82.38363792085971,75.05984280697893,49.35172113715449,19.93539071498104,-4.293220771314646,-18.175189955938972,-18.19700314638895,-6.842795357672434,7.796717795140274,19.611176378839062,23.687080449162753,16.61842458006349,1.6136306206069946,-16.138123061009832,-32.87471864771757,-45.98149203038045,-58.98296382782736,-70.47281733263279,-62.622977059337785,-20.772645351854624,38.57660881343716,79.6766968745757,84.67966087456618,63.85689257018305,37.08174082062723,14.685645938940445,-3.070001734275843,-13.466256490795008,-11.632209796557941,0.060508706113723665,11.360457061742123,14.452018268200034,9.916806085177631,0.5208359629066206,-12.588573637118223,-27.832269602149193,-42.72448563192032,-59.01067045863701,-77.4099694562127,-79.96352261520832,-42.77051256170348,19.428736289834145,62.13136536780485,68.10257672197515,54.20679463673831,36.62386610859649,16.79089275557636,-3.573318204876439,-15.596282869648231,-12.665408114902437,3.5319106361314745,21.941550230335732,29.467855707021243,23.610570619599187,11.952869402843435,-0.6234741265352355,-16.760141213426866,-35.89089079493855,-55.8159640057195,-74.92089595671288,-77.80746272219905,-44.001013176967604,15.810924509809826,64.1039483608489,79.04278421826109,66.01054162195346,42.7356542281556,23.089936219510907,9.966111370240142,0.886397264165879,-2.4284026530709792,3.547446231169674,14.555258497659437,21.571390622975194,20.292400505734992,72.0,121.0,81.0
63.0059428143103,72.63242066798823,60.59832807665703,39.89731621431376,19.105184952631973,1.6919092776193416,-8.423372653501989,-5.522653775892242,11.064470542843392,29.309019856215386,33.835559584731776,24.141018374509194,11.453609529909356,0.45720253521304205,-12.608311785323256,-27.3321450014617,-38.43183239835361,-47.233827945485196,-59.58804640277513,-71.87812211509373,-65.27524263132608,-26.12004518416277,29.07865305720842,67.8330117834673,73.59619476553921,55.46323217090294,31.927748802974047,12.63810744767044,-1.9991188523419843,-9.113101816313794,-5.109431663714307,7.376112631672731,21.53663034461076,27.565128436007612,20.666460846664457,6.048050058462723,-8.570195925389958,-20.900049963228675,-31.25351967983796,-40.97093487933204,-53.17156041455373,-67.86908070356098,-74.43568141000337,-54.36917683690167,-4.843118137261366,48.920309743388266,79.0425031446921,77.3445649171291,54.01882935983987,26.48271852415627,4.090843529068345,-10.414485331558234,-14.095844499144585,-6.517625985896284,7.09487758377061,18.27299789904309,20.910360208401265,13.246940175851702,1.040560849137862,-8.355392526254501,-17.06686426520648,-28.999495624810752,-41.3715099396288,-53.763326788124154,-65.092876094296,-58.7684995587269,-19.43347892113218,35.58222857210177,71.37155611282024,75.35290833342425,59.578523321183035,35.77830420282652,9.302675679634019,-11.824963606217619,-19.63384922115012,-12.879910766503185,3.6784274393125376,20.22162771046769,26.577507968076542,20.48750537929763,6.772740662786053,-9.13418272774074,-23.763132836577427,-34.641950242738766,-41.419412277568,-48.859505937270235,-61.4399479688063,-68.02879586303625,-44.26619089638386,10.507560955530423,61.7241516480576,80.31361701335767,68.60427520657024,45.659311851248525,23.310285728139622,2.3157364559445446,-15.304513362504908,-21.754704818323834,-11.713699172027068,7.985379794204191,22.768894103582845,25.74893476577631,17.406891615575386,-0.6278581529333724,-21.10711384978403,-34.95738987931247,-42.12028247551018,-50.95661366493324,-64.7556808314099,-68.21639993406419,-37.91795507386051,19.76274946869245,68.11262887005802,83.13701789866292,68.78239599015777,40.72900617852903,12.139881604902637,-9.56413200494449,-19.66429239119657,-15.757756652835402,-2.6113463914199357,11.702498785352901,21.817487645762412,22.78195986215026,12.827168809504965,-3.3945355376058792,-21.267521343500135,-36.99217352776358,-49.53094095321108,-62.97252597366874,-71.2048882416059,-53.995662837528556,-3.870036120387494,53.70466401154981,84.806882196043,80.41103002243506,55.99763123353591,30.06572697145646,9.08512498325882,-7.09342180909047,-14.283821073705047,-8.901405316368326,3.864291588264673,13.205857694783482,13.773277924728253,7.630514134817509,-2.923343880856615,-16.895654688876103,-32.21534989424103,-47.08114557829276,-64.44448361035143,-81.09594934513453,-73.67848153836394,-25.449979452326094,35.40698600056454,67.25454261910559,65.12141180814591,49.23628929966665,31.21182820590693,10.646096101524279,-8.324295856147975,-16.38646161871099,-9.028940649057429,9.291727961320476,25.610856391698857,28.920164444156025,20.447138144072376,8.459551144808907,-4.806371643044958,-22.146478906206745,-41.55166357488608,-61.72825072228013,-78.53614027836892,-72.16990560138451,-27.873219729015016,32.4963101734674,72.02563863230417,77.44457433721223,59.54217282728408,36.35190278014719,18.735554017941453,6.977911462531099,-0.8835132651576683,-1.6563314307884718,6.614958670497205,17.32452093291516,22.061689003322876,18.457566724222385,7.061204886835509,-11.652464434561715,-30.83987796526853,-45.95103206897859,-64.27724266068856,-84.27172222874529,-82.37606458853087,-41.33913189146955,17.651415097316626,56.8933604071087,64.63911999786961,55.00572663399265,41.54381914375509,26.318065058833035,9.414804291912604,-3.110063732151329,-3.981204804884237,6.035904310899268,17.546238645700715,21.329687797955483,14.391867901822462,-0.8310479411099944,-18.72030431357857,-31.879759077862023,-39.45371497622709,-51.6397518378615,-74.88637584819318,-88.68925596419291,-63.24481285508917,-5.847233299508865,44.50056613242842,64.85349588088472,61.66394365821601,50.96685682032337,38.37775125195318,21.67880043603071,6.946831497352093,5.48369597205362,15.92157987683577,26.67881338539476,33.061705522818606,32.771178843703225,20.812729128825687,1.8551930852125902,-14.178016798132195,-27.343189646378804,-41.592657897770344,-54.88068038984767,-67.10937370602747,-83.7553773340008,-96.07616885647336,-76.86377948939574,-20.45248873823434,38.3132043933481,66.75500667713254,66.10736142827025,53.6962231203571,40.97038749711771,30.326641148396952,20.075179693949906,14.66247007336056,21.20796601235,72.0,121.0,81.0
-44.825177033981916,-57.547264246334144,-66.12514989357307,-50.765554179964,-3.53954601376471,49.09553048236985,75.51678511324283,72.11959946380375,53.25873488153823,28.140425379241954,2.208670373769611,-15.643840202836977,-19.064808824140343,-8.760088087189136,8.986907858229838,23.39410723110168,25.95876408028412,17.035310220481538,2.215093222595946,-13.610777379233493,-27.380332292466818,-36.915619443716935,-43.18131153835218,-52.03466946574974,-65.01277490601554,-65.11823757693112,-30.527191900320226,27.471169372269596,70.92581604363893,79.27750438849587,62.327059619913214,38.99026487352539,17.142466529225892,-3.3947717340651575,-18.70002920152025,-20.523235283292465,-6.374748834920908,13.301518723505382,24.861271984367512,24.469930465065183,13.013555478514307,-6.768321714546535,-26.020665638368783,-37.424738611742725,-44.10916862134497,-54.69704894109883,-67.99187952916827,-63.50313940087486,-22.676256301063493,36.322632756813796,76.13476510961074,81.36996942020595,61.38813372007613,32.10399498269702,4.934090971864012,-13.861730212647224,-19.92460177829769,-12.523475270168792,1.6868584230579176,15.263798303613765,23.242935539109055,20.907196643566238,8.525320006315216,-8.53719578379707,-26.207573062048272,-40.7835462331295,-53.23318150972205,-66.65224369403124,-69.73066795592128,-42.35443067154283,13.715060427363294,66.42416232537113,86.80003173963924,74.45855662202739,48.109864761631414,23.513412987764664,3.834898196937258,-10.362942923604367,-13.984634488116823,-5.508404398277286,7.336408327855274,14.260107257976967,12.542901179739085,4.986023290103957,-6.661130599022322,-21.323273985887965,-36.5111220711898,-51.67408242559877,-69.99460193949051,-82.7569250516245,-63.60893597530491,-6.970928129692345,48.65190149994196,69.36399761973453,61.08246387400808,44.1867205491689,25.535165217962174,4.591293889580419,-12.124057441703394,-15.832397199917335,-4.409913974071027,14.872229554322585,28.099142736294755,27.334749135801232,17.044246040272476,4.907094268512103,-9.388870327837864,-27.68538614667275,-47.27672715813288,-67.50053961786152,-80.20539626028811,-63.06502858926948,-10.289516567408596,47.2386534887274,76.93966769930947,73.85428611030882,52.68840056348132,30.51351910796057,14.88440604610424,4.265394550469056,-2.0560453527572293,-0.056117966183713563,9.896956850635616,19.544563382256097,21.833734042226652,15.992339535813938,2.2507206827283905,-17.570435639470585,-35.45542145366534,-50.55565915679547,-70.59711116674761,-87.2525118409269,-74.40023620132732,-24.32934295934807,32.22980082613873,62.01047758686633,62.831513137016266,51.2332400566718,37.40701379403624,21.450756680072534,4.9650607865936145,-4.740708728829942,-1.8890083499680574,9.696454206980993,19.70213338940291,20.388819040037326,10.657191805812142,-6.060714014993579,-23.262236805951847,-34.36559432316739,-41.90328145154547,-57.525083053692164,-81.4177630060904,-86.02525316867494,-48.40091867266804,11.065034658079332,53.61758990668526,65.60426755646012,58.80372401965243,47.6293917456552,33.95237038961725,16.65984981196851,4.871328113064936,7.768813279396716,19.40670657421794,28.979164715010494,33.921483289138095,30.576189469320244,15.54020132378391,-3.306671775775265,-18.034198307349772,-31.326335513368456,-45.69781696706794,-58.283965421492894,-71.36739133327131,-88.82457509334071,-94.85606583196223,-63.41241992358585,-1.7403977476436332,50.217509607305686,68.8247857471037,63.03262319959796,49.79363950758993,37.76207643433754,27.31038707072994,17.613746821666062,15.215497780433832,25.157654979330374,40.746671607328615,51.00148024920855,51.046425059204864,42.69364467763943,29.984153974295385,16.73274052448462,4.459685994483684,-8.234718085021347,-21.98121634772074,-31.89081503886343,-36.90202956321517,-45.76969546202941,-61.40866815095543,-77.31219740038728,-92.27266800431626,-103.39281077842385,-91.44170552867013,-43.56381759410213,17.905442548562025,57.50317523753575,65.10901640308889,54.1553495884373,39.72290361060064,26.01443598842329,12.921840076168667,7.133243118289254,15.158289188300788,31.085740608766976,44.09033326316753,48.904725183816076,44.316480774301915,32.5249335166801,17.756858235080276,2.3095016481225747,-11.7644566107889,-22.87452782127724,-33.46474874592095,-43.64714984967799,-49.525569154480266,-54.6129698717895,-65.39088984023319,-75.92631865975018,-66.36998755841992,-27.0090544815443,21.89475006156961,53.856391531063494,62.20806937780388,55.07565991948078,41.78177951641375,25.97134897259523,9.851678532576306,2.686378247124706,10.643100053042138,26.117826985207515,38.46743825828606,41.389886948307094,33.78263358554384,20.428214925424747,6.593169369319078,-4.754148345487508,-12.172124047170605,-17.754973949163844,72.0,121.0,81.0
3.856865875056333,-13.74152989472405,-30.852562648221326,-44.361165677226666,-57.135288337631,-69.55262587527595,-65.55480907869205,-28.07397555552446,30.98727353872624,76.22379431447385,85.93181496151048,67.366871751738,40.47110764425597,17.384308560333377,-1.006228012997079,-12.721810988263323,-12.603942891846625,-1.7290398406823613,10.250362456799353,14.553464991105413,10.842028995876795,2.00438780895055,-10.664653950801906,-25.78558206666662,-40.758324328748174,-56.6095081568052,-75.24892219599168,-81.61581024327134,-50.03029517017177,11.36802067338763,58.6588431001232,68.96589841632225,56.449131105136686,39.04509910929867,19.596609421209997,-1.1250709609502425,-14.78820989323061,-13.955267274053588,0.9233408368323284,19.90049641597266,29.324853527873938,24.928510283693445,13.561645966125765,1.1846264831483524,-14.358305614365289,-33.29355984187247,-53.0993468293473,-72.78494936489528,-79.27064305628727,-50.679664415170464,7.686351753478,59.44013082108214,78.98904467774153,68.74432116062736,45.82166885080824,25.29048461328998,11.440691443020892,1.864723776357621,-2.498285047023392,2.2734400466748013,13.14002668985815,21.09789224161321,20.927419813167138,12.868923165482064,-3.1358125384779916,-23.26824296376604,-39.746777559476556,-55.7032434752319,-76.7900878173604,-87.64057724192422,-63.00132574009642,-6.770953207229541,44.322338707318615,64.58143886513625,60.052518993382904,47.355171196489785,33.071153963765305,16.493061759904613,1.0884076963956786,-5.247982125681916,0.9786934190389529,13.203329968063802,21.030252993049228,18.55169605572828,6.320954578581231,-11.342649896867876,-27.226772156232723,-36.47593059357758,-45.09382718030889,-64.33740071194406,-86.3236079328166,-79.48024277459632,-31.599977519405748,26.351135454462952,60.005411925807664,64.77467532111639,55.68791570974837,44.105339275441345,29.13224991565694,12.091999004428978,4.150582135066374,10.819731711367252,22.63185384403536,30.919108730426295,34.102963939867166,27.30153711750222,9.95076134010828,-8.028100600847981,-21.780561168551202,-35.45602570980007,-49.60385468181815,-61.69296669328842,-76.14792183996278,-93.05420461038354,-90.2419406234235,-47.171545923983686,16.012505343790362,59.08617752758268,68.82339414988867,59.40544388287313,46.04613891147222,34.70253893167965,24.284771342021855,15.77067501461307,16.895856166339843,29.60646267716396,44.632332146639094,52.072145179095656,49.32848062574231,39.27930089474553,26.08670506160778,13.09810799164993,0.943584136353242,-12.221895863164322,-25.499133985554142,-33.5622771790103,-38.66951209768948,-49.82729578173016,-66.21189339398562,-81.61654051058362,-96.44274478304371,-103.36895834567841,-81.0222961030436,-25.447322328413026,32.67209520735095,62.65468094953025,63.03761777116225,49.935180246063624,35.746149019997134,22.0263710850896,10.058735172029733,8.036352030489683,19.477671089382817,35.49599379366686,46.423620917475866,48.52871540956406,41.45201478599357,28.4211302238978,13.296360783072394,-2.01945345218719,-15.243215294834508,-25.842670015782865,-36.638680444923786,-45.83965068654711,-50.697356242191404,-57.07142365584932,-69.178383327462,-76.15529566679419,-57.692865534050334,-12.455390497024181,33.588065855537224,58.48706216882856,61.25061573543564,51.58884347378852,37.445390733827445,21.07948893012142,6.352648870709191,3.5405637664280727,14.883805080437128,30.360873260589358,40.45572087009822,40.14167077717033,30.23895498163994,16.314541716326215,2.963414191234438,-7.30364712976629,-13.756415287979612,-19.75210508156041,-28.92876793996106,-39.47443002787925,-50.037437779437,-62.110915776630854,-74.23663538474965,-74.03338792758122,-45.09693614693508,6.2406665362367475,49.05123245760404,61.54772037782835,50.575822903614345,35.55442879471309,23.001213604040142,10.09609802389328,0.43742808101885616,1.6181998728009406,12.370549686977341,23.74439004697905,30.655728708198,31.49731803045326,25.12042758347583,12.218435435858604,-2.53024056115827,-14.237078556471847,-23.084473045237065,-31.332947848016346,-38.06633132259455,-42.75225513248842,-48.744335526015384,-58.22666925885682,-64.87204301379532,-50.62833680576097,-8.033377777915009,39.89549217366576,65.17467552038163,64.7241612788232,50.81632000307423,33.43713214805766,15.868797990521312,-0.43106005624406923,-7.731993409749036,0.5441882749649026,18.585689670841592,33.7382777666195,38.02814462397254,31.578973510829854,18.041468180903653,2.544100947059883,-9.40582417572535,-17.279022911460235,-24.098991921644334,-31.34126400655852,-39.12707401576104,-47.25863777784938,-54.889116235974384,-62.52355155046151,-64.6818580250867,-44.99739313652917,-0.04604274073804415,47.00425482653584,71.70740994991073,67.61591045457729,72.0,121.0,81.0
19.381009627065026,9.054900889509367,-8.918599328047835,-28.560567004979593,-43.95704411582342,-61.453568616895254,-82.22494213645808,-84.84412806284564,-48.69513911796718,10.25420360724227,53.59396208820273,65.02154924529046,56.680014727361474,43.400736103258076,28.501526957439662,11.598213941848618,-2.00201861274724,-4.627041789265465,4.371204099206227,16.309083721837464,21.45069123046702,15.881358165861162,1.5079269796491324,-16.467322396877044,-30.554391312254012,-38.47734121806023,-49.308073779588916,-71.5893205435905,-88.68128014831194,-69.15349237837746,-13.955468033199676,39.37235317521959,63.85010132224451,62.823113946553136,52.4713264750965,40.27475718666494,24.049035799589632,8.325987706810784,4.777994643208936,14.281334780638678,25.491503770325462,32.48480371510493,33.42092839592579,23.047723963351118,4.359576422284322,-12.319413068595324,-25.56034719964416,-39.66023632358229,-53.26642237018852,-65.31328893332278,-81.32334862397721,-95.65407973804909,-81.9322515479245,-29.095102558388714,31.854010402087592,64.97436762696108,67.23978266910404,55.51571289321336,42.51862940420985,31.707156592360004,21.35008837401632,14.779724942267437,19.633848691201436,34.2467692742085,47.82823538132206,52.25528922812242,46.99713714011258,35.60582928187076,22.22547363973766,9.554309726000184,-2.6738284991465,-16.268996413302446,-28.518002746607564,-34.919186295705124,-41.03519815869919,-54.3678450891968,-70.85197490224114,-85.92997167934011,-100.09160693483524,-100.77613927345256,-67.54450380001568,-7.129439797380932,44.85638316415428,65.21930834268767,59.87818563352525,45.71215993768007,31.807404424355376,18.11775398858253,8.057973548649642,10.170092995439514,24.173429550390562,39.432797799144694,48.00654414405591,47.35728108518002,38.08728191091118,24.161873550024538,8.811779769083882,-6.165692615623,-18.46388533892788,-28.87362729147027,-39.696195189043166,-47.585462766838376,-52.0077509526751,-60.1190346212039,-72.62805075003766,-74.120901161397,-46.5540342687809,2.1139802020771152,43.35571141969178,61.20338186695022,59.27522432515608,47.772854227517726,32.91763294220303,16.253461909017894,3.914679320320492,5.6771256552589495,19.44747238138466,34.12927366925111,41.53510345283739,38.056339667463796,26.372723386499246,12.263217521326027,-0.40254198031421784,-9.502257168263224,-15.293812272077638,-22.06919940447352,-31.97271847876169,-42.47891818613669,-53.30917298890391,-65.89733990976922,-76.29916675014573,-68.98521309386777,-31.437821790828984,20.936724219804386,55.99753959662582,59.89762888518043,46.00627665111691,31.798977943869986,19.335998892792613,6.596305251842861,-0.5282225741315667,4.108601888404777,15.942411575353724,26.28599099880828,31.58381005827513,30.42485986427735,21.931857906236093,7.871354122441115,-6.32861691620628,-16.957820629468483,-25.50177547757196,-33.5341232684897,-39.529258201113095,-44.1785779836973,-51.161444172538616,-61.08212876056889,-63.74734116960283,-40.74425751504635,6.787651450457254,50.20035474077884,67.22010852420846,61.53203037279643,45.8800160489627,28.373012394170683,10.828137095152375,-3.926760218898714,-6.936381901306707,5.297048681588205,23.773849163161447,36.21717599519907,37.12756665918723,28.209337868351053,13.486297376549127,-1.424153693214408,-11.972910546883359,-19.246067915234534,-26.13611447699918,-33.5310578368167,-41.47898940717589,-49.52006758696637,-57.0931920972173,-64.32499883925071,-61.92224437918003,-33.9700942582437,14.676562264927252,57.080491178782616,73.31785638195436,62.13207512539576,36.74952703790062,14.508841881222377,1.8078307865274086,-5.560197517898396,-7.75077022108956,0.854940608525467,18.797056545157474,33.316887047996865,33.849329655580846,22.375712156214966,6.279974283771476,-9.071123161367831,-18.705651088189125,-22.53730918488299,-27.433644404341607,-34.869928651277974,-39.53094192573861,-44.206480660813156,-55.603410251878564,-58.97570425284981,-30.114074368670824,22.158082544424175,61.629358607695366,70.94007540787914,58.319138331267936,37.43159067760154,16.744411090476245,-1.3139524588514064,-12.518796524204076,-10.91104499961902,0.23054855775958027,13.312339590944607,23.856469426342475,27.11209377963142,20.11044035529767,5.251444328016019,-10.680246756247653,-22.531930649628393,-29.700788677063994,-34.26951406238253,-42.43187871616586,-57.86912383342429,-66.34555291857232,-43.68467963545906,9.726187916764578,60.72971292928461,80.19375671904146,67.72787440034834,41.71754715795695,16.982059086356998,-4.5108602995655,-21.049958315069397,-24.59170651899123,-13.104033109349919,5.23230658783395,18.963576798657325,21.490356971362466,13.222002890325998,-1.5349224503626635,-17.19980282709966,-29.311705838600872,-35.93305920652645,72.0,121.0,81.0
23.25677884002761,38.77438361465223,50.2036394687527,51.60506444094564,44.15117350971868,31.776303164590654,18.443209552679082,6.0651848011428084,-6.442177626266078,-20.231806502143325,-30.9581574320274,-36.23054275212298,-44.11135437403203,-59.169280948973544,-75.30637013733335,-90.27834782476265,-102.70579997605164,-95.14050459755379,-51.55886999726944,10.367380239365021,54.18271397502712,65.5704742117615,56.04873109018053,41.5861149150827,27.8507769844165,14.46059746106851,7.144390463458207,13.3813514905054,28.93968529976207,42.774000701180064,48.8060873808385,45.434647353037136,34.34590110767823,19.79583582885613,4.346307693266232,-10.06323198195256,-21.504387290353492,-31.99977370723736,-42.4870861597934,-48.96685334270699,-53.67569234104826,-63.65573753739896,-75.19979204722746,-69.45492417886328,-33.48731542688637,15.944022687665129,51.030871215800886,62.23058937402929,56.535511667140206,43.718051019105275,28.20015716372119,11.742166186641962,2.7565164661037818,8.882996448833547,24.05024175290901,37.269160304688654,41.65663769210064,35.26506860811684,22.32355285955544,8.341428497357125,-3.4591239502467963,-11.387682807357926,-16.93043730689424,-24.692129309957682,-35.039490525283966,-45.496766756429324,-56.75756612340535,-69.5971454723803,-76.88221869115308,-61.192137579181335,-16.40674568805726,34.03779150884026,60.13930012772204,56.735972319947805,41.54971669423559,28.209784436866954,15.57605680852678,3.5590650961332773,-0.4214319473317813,7.2285829533746035,19.33892803797209,28.399607205645715,31.97099125706527,28.725468458752104,18.244859480059137,3.525968679520923,-9.78428450879228,-19.50740639251881,-27.906778728862843,-35.54445495949779,-40.854220838895344,-45.818660582418325,-53.89655078923755,-63.41996824554311,-60.333992422811704,-28.586158034553396,21.206866568277004,58.089174534718396,67.32811793134393,57.54471431015084,40.83917425239298,23.30009631326345,5.9561997705553535,-6.397696959791533,-4.770637773420655,10.590348988582651,28.405794293262247,37.68057347299344,35.399600128028645,24.341525366041534,8.917005883668299,-4.979272584037748,-14.257417975377528,-21.19947143307892,-28.219284291193087,-35.76787181450303,-43.846648599837465,-51.7189693126197,-59.339929338144366,-65.40168227220113,-56.864117265561134,-21.037162059005542,28.803565364206214,64.84317558553512,72.54344354022814,55.42660321079386,29.420820344329883,9.958607168771199,-0.6743025092050247,-6.958999035754701,-6.553893509521265,5.492827596317327,24.011017504337225,35.04878687692511,31.43700671123217,17.922188447745597,1.552088847890416,-12.622884176865183,-20.158937630399752,-23.566610184342874,-29.53458218424997,-36.65082971465841,-40.42902138949678,-46.913585907624594,-58.678221393049014,-54.44862771975268,-15.916713379186714,36.28812324490161,67.35600884352746,68.90579320125214,52.61730002817365,31.257991414041904,11.179676528362428,-5.582923119857124,-13.455089217032766,-8.284080910048933,4.041365444831483,16.81047430112038,25.756366456829646,26.150002528369356,16.37102556021138,0.43911357144672086,-14.616494727112867,-25.04353719324243,-31.10316884273912,-35.90604000714954,-46.34750092907814,-62.17318694662017,-63.737031899705585,-30.34804608733976,26.442746805144804,70.1722022424275,79.22162948618768,60.70703626896308,34.155144105356584,10.516682384445053,-10.112060353796544,-23.717058645964933,-22.610317841216315,-7.983846420467458,10.106109148729564,20.937770240385554,20.069212522193858,9.376859035423381,-6.196256335868784,-21.214812523679406,-31.77513032461164,-37.06200545440977,-41.101739467841554,-49.03340206256268,-56.15693536046903,-43.94500200908052,-2.7729612258326064,45.05234938368297,71.94590916502416,73.85978330924702,58.6253142464993,32.43555877219037,3.5831664517486868,-16.368593369421646,-19.511149582006684,-8.611576700190525,4.741551475749557,14.067263060213751,18.820559987924824,16.39452570007968,4.953224732296341,-11.952099480598735,-26.66089465917376,-35.78970639340938,-44.96245038874356,-58.74188961172847,-64.70742064183683,-41.80211889328698,6.859691921901596,51.44530508714426,70.25783286428205,64.37603973444472,44.41304658521691,20.699354687506908,-0.6431739842146302,-16.671436338229032,-21.489471008926962,-10.325247309231518,9.977725014904944,23.783261647221664,23.00749688378273,11.740581282070096,-2.5217518832093497,-15.060248397700871,-25.116077251110404,-37.85057711328056,-56.31482135451421,-67.14901316249312,-47.09901582772535,3.0081125106323867,50.58028686641593,69.2910395110881,60.75387882077058,39.28883422227511,15.948131430153525,-3.9364177563369664,-15.119979257204292,-13.407618353487395,-2.8016304352685673,8.449729998787747,15.998167624633709,17.12082009187943,7.8882458671862326,-7.955816775860395,72.0,121.0,81.0
-18.79312492230516,-27.554230782338127,-38.08276539419639,-48.57936977829486,-60.387218132227034,-72.92911304966134,-75.47613921211583,-50.73153569780621,-0.8543753681944689,44.91108152526235,61.64618482740738,52.635214269832915,37.37425178976194,24.656976319062547,11.800952990639466,1.2210435157688098,0.7488251251396026,10.712931439338432,22.437606093314294,30.055349071150612,31.784445068047663,26.398776263684702,14.179627994451703,-0.6748151121885934,-12.901498073650382,-21.96528468431574,-30.27123761578764,-37.32426247916792,-42.14130961420212,-47.74551880882426,-56.84713644885926,-64.74954851149973,-54.313224989687406,-14.757733019780737,34.40828959615702,63.4912344457876,65.84657774119901,53.02139278232669,35.77254463650372,18.212991860201313,1.4517804097688332,-7.625048809966839,-1.3742604318182117,16.0809945930526,32.264000718865944,38.140251009643215,32.936541482374786,20.09204637619203,4.494009493094033,-8.103019184562577,-16.352626884874567,-23.175103725457042,-30.346322202596234,-38.05565411080993,-46.193504628937916,-53.88689655065724,-61.55774363251787,-65.2807399516436,-49.31355275475056,-6.824648841812474,41.65948815412502,70.12441507714188,69.60972790350914,47.97848181343787,22.74428674084729,6.1992592925524175,-2.861441557906426,-7.823637373148371,-4.306198163513177,10.744544712683059,28.5443868803082,35.46485197357859,28.190707113012902,13.253284838846447,-3.0046622065526356,-15.564187983291623,-21.226045085150268,-24.883518591857527,-31.765056417313538,-38.05142304520743,-41.56059544049541,-50.27336618934104,-60.413331170854995,-46.73461273659488,-0.4708052576254701,48.42186112183444,70.48890997103406,65.3889286138565,46.538295532694605,25.22919787310722,5.852702274367318,-9.109792479087998,-13.207969350176635,-5.070720497626198,7.8689647206214905,20.00215143286163,26.918963167829787,24.29971930652355,12.092678648283373,-4.271101809211121,-18.13869721438392,-27.179662855726626,-32.36149357607549,-38.0521452665686,-50.87115477501256,-65.31418776423152,-57.959673968473815,-14.859914814272098,41.93815467616269,76.5092420113039,75.8656830083634,53.08874633760036,26.92654022038373,4.2572659296566115,-15.165528765867915,-25.080437268232572,-19.438611048673955,-2.5715846097391424,14.327379215212206,21.891156070498212,17.81051833365807,5.1210552481847715,-10.801067584534836,-24.8383375592805,-33.76369928689666,-38.07074613497447,-42.91432933872989,-51.798939210532524,-55.539424708927626,-34.62025256623096,11.898307159288247,55.6069982639805,74.75582383630505,70.89426939454627,51.928915082767745,23.863955215004317,-3.57101332363845,-19.139552152548895,-17.347134080080274,-4.524066497456473,7.891593001035473,15.969030511806551,19.0112064782807,13.976867345585356,0.3196960633043959,-16.74598675435286,-29.7688312964851,-38.057067019101204,-48.61438543610327,-62.2960141752865,-61.62784150968807,-29.31642478787393,21.564634785442763,59.83941969958467,70.67271457114934,59.558986939017416,37.56502799484686,14.162245861784543,-6.003360934624079,-19.543577135404405,-19.88875362598214,-4.739400307486855,15.255236886566477,25.0519575503623,20.47535447662164,7.657094064912829,-6.452836102971706,-18.096760453721203,-28.207026456115575,-42.79509586826904,-61.305524750654335,-65.24929953375731,-34.63572769762529,18.668005481082883,59.36205810053233,69.03443800141244,55.264259020269385,32.427033242361574,9.66688906222559,-8.346276828774949,-15.948373050233622,-10.882031944193544,0.6779694133656027,11.095236645084531,17.17615407095964,15.583159172434991,3.5461995897081824,-12.340528001925971,-24.74503685350908,-36.07857212646005,-52.40623978105172,-68.74400521954435,-62.568597023896096,-22.37927772968212,29.22724978523894,61.014714269722695,63.059176383026085,46.68183425088749,28.394991553813327,15.041957893841051,4.417802850624617,-3.2131961570233036,-3.138767411953429,3.8255544187314032,10.091367971830783,10.207569957974195,3.7478536257113326,-5.754203954555298,-15.308573796843525,-27.38951111262787,-46.93984044591395,-69.22509854789317,-75.51494291814257,-48.60963082293901,1.983937171407712,45.32032056475323,62.131315480916655,57.19902731477958,44.62491615622526,31.791883899224047,18.885445601394107,7.922401522830788,2.7850239260078253,6.050275400272127,15.289627580338786,20.76113706836332,14.854408479695026,1.950735881594971,-10.838654423504355,-24.899168020148696,-42.05544600360247,-60.628206828095635,-75.30358431855015,-70.57438079295987,-34.42674139288408,16.94240611160917,52.854522479354166,60.08330459352693,50.13259093571492,39.328350414795516,30.0570781716948,18.310014486115236,8.401075617189662,8.356403843309025,15.236319666544954,18.416409225627536,15.007701497625535,9.796311660191554,1.887321074827885,-13.61511143975845,72.0,121.0,81.0
64.83991091165576,40.26866353039752,16.90136452826887,3.078581794558845,-4.779761761265807,-7.972387657654975,-1.0012496197098666,16.267022694714154,32.08363973848154,34.62406577936791,24.318239054769638,8.484009602074561,-7.254544467991742,-17.857274180329746,-22.120958980603437,-26.551572993173252,-33.93847500635771,-39.1132564672568,-43.211664439247386,-53.950424628477904,-60.04090530085697,-35.97265480275955,15.169080452443191,58.07869249931048,71.27704249474792,60.74614947136239,40.307462034234504,19.378270207989715,0.8481249263638158,-11.692899866409935,-11.85846494487302,-1.491999557136939,11.626688238071257,22.76404684230365,27.253366653653423,21.60965193868221,7.456146179237071,-8.734748990074882,-21.240571718413516,-28.974423444249382,-33.629294661922984,-40.87584617376883,-55.68389695346841,-66.57927108203276,-48.909707570001295,1.8730317947336024,55.39173396878116,79.72085889035081,70.62769595619913,45.28788430686751,20.048098597404103,-1.8025806846462302,-19.423715946371576,-25.06343097093202,-15.282117250625326,2.8277598333387917,17.716714260602167,21.839507220948164,14.816899350143133,0.5999343531121796,-15.238560291311842,-28.010981804530047,-35.32925422393675,-39.12931215085295,-45.15404355524708,-54.23559053671356,-52.73028538017266,-22.907074380072665,26.259691395217036,63.9263972715709,75.61874716299096,66.69865496915834,44.432798029677215,15.336407593167065,-9.70183842187298,-20.37127191687226,-14.219912575708486,-0.5422680924959534,10.659935757995246,17.479246287042734,18.50699304193624,10.798205776812157,-4.620846632165531,-21.150313706020455,-32.41738714836909,-40.54930389804377,-52.67944097891824,-64.67018923762008,-55.65986902464271,-15.142384000768185,35.07388186574438,65.79644375382267,69.23416719948204,53.842539956587345,30.638491706875843,7.906265146317547,-10.845424707182692,-21.28992870516877,-16.891583100848386,1.2871573989236587,19.591977942726675,25.047443369841623,17.25740445108119,3.4891005581459553,-10.151963468932161,-20.9573177633702,-31.711058642513006,-48.208523045939806,-65.11857323358046,-60.21095626768173,-20.091152649328013,33.12554274201598,65.36044810766718,66.79187502150747,49.0602566820844,25.60812858992206,3.7608526660554866,-11.865784614627911,-15.650767205124529,-7.805552816747594,4.019249532888167,13.385284678208716,17.726334531484348,13.086983745199934,-1.1213314552274671,-16.352617556135744,-27.833712331112828,-40.13586562086012,-57.89575929875987,-70.35744476600087,-54.04723299744858,-7.058232125053321,41.39635344282898,64.44732509996334,59.42985787515123,41.03239897929905,24.055846556795956,11.809413284086467,1.7171734205014686,-4.142240124937293,-1.5423481407121447,6.036781547937395,10.876506142851397,8.904864389558181,1.125514402780685,-8.53213650086255,-18.27431134416884,-32.19526012399375,-53.708124992527,-73.70991391744478,-71.38591820398658,-35.190086959869106,16.57526766420606,53.07856381944017,62.31483803415726,53.81851959056354,40.88519463773943,28.05889817580057,15.348160492167704,5.6785267559510215,2.8342254399188556,8.422847685033945,17.76854228116738,20.264795703632767,11.41172648277336,-1.8381962620456815,-14.600121421519574,-29.580227590004487,-47.38378515597526,-65.7399402663203,-76.80614965139841,-63.25140647210229,-19.748617368924677,30.012453047383705,57.755727411088834,58.09919900973737,46.69062314603528,36.7171504009306,26.939874955655103,14.827623723261075,7.223907050788405,10.098282196917028,16.904794288175136,17.93081270597464,13.526393387611629,8.069654231025938,-1.7892575763341576,-19.040626293965556,-35.62414912751869,-45.96682080251261,-59.16411161384284,-79.43708130545495,-86.35398012429397,-57.93220508985411,-3.9766521473863072,42.81272922110185,60.06436244469868,51.33202356303648,37.57425773912097,29.927012815261904,21.369132432218006,10.117690990930377,6.754940691621495,15.607851866991986,28.851749324487148,35.452328627607976,30.189758922374047,16.980084440708016,3.4860346194302134,-7.926077222744914,-20.705559488758297,-36.879712838729915,-52.81293236765394,-65.60996060930003,-78.1308738541351,-85.8702153761426,-70.79648819829164,-27.246550316281034,20.474866458270785,48.46187206338438,55.405838528451255,51.63979544972425,44.341122843047934,34.41102865381917,23.565130259855874,18.023390632006,23.02710893138449,36.34536627064889,46.12655710367251,44.78929092873611,37.81058393180652,32.527698302350906,26.032998302793107,13.433146303837198,0.10519474115660186,-8.015357216157405,-14.149662706635095,-24.045106347824614,-38.03064263015292,-49.21877717821062,-52.381335817761794,-53.065218056827895,-62.09590243354608,-79.06999431456823,-83.48817028058373,-54.60495024721088,-1.9846529963420276,40.5829907093681,52.9723175604891,42.55503738019747,72.0,121.0,81.0
-36.566256906145654,-40.40314910195157,-47.757035110357876,-55.84760001241095,-47.34554184248748,-9.393338026718988,39.50337502213609,69.93535347264991,74.7672821342668,61.40491366382367,36.31965755453866,7.156225183712602,-14.586535775799572,-20.102917785380438,-10.462563026984625,3.1578847799555647,13.071346272797431,18.522637772968128,17.24301441377339,6.933741510909455,-9.657662757442782,-25.04850169730872,-34.75854642805819,-43.45281948398608,-56.87868550131549,-65.22589828687691,-46.79427370940921,-0.11298327538628065,46.77761312404259,69.36969067635341,66.21949011000459,47.48831083035139,23.794519525163782,1.9712479269437417,-15.020360522775713,-21.746329518684178,-12.639869073927203,7.316817122960657,22.75623235576043,23.886210264983813,13.557254518716144,-0.6499239288059427,-13.576226401318461,-23.779539370231767,-35.77111126020528,-53.79823587723311,-67.06355455052022,-51.94395162781939,-4.364926538302188,45.627765770557644,68.63798694107464,62.95401432096703,42.426269346776564,18.94389091588923,-1.649626930745938,-14.350691101162349,-14.323478513398165,-4.412057064731795,7.119550989333518,15.277454464892473,17.51231169616798,9.702568234384623,-5.834449660044303,-19.98023643311421,-30.982643515769034,-44.75921109797981,-63.06841232594012,-69.40336879609912,-42.71305613482296,8.348154944248236,51.262496472454906,65.41954877738762,54.68577965973569,35.59526481263731,20.152766586942427,8.713073276833457,-0.654292292934813,-4.297006005961296,0.49920643979526547,7.988531300261673,11.058112517088288,7.096658220956383,-1.6413780801956257,-11.267445072753286,-21.58673214116939,-37.727360367104666,-60.44429100388344,-76.27975013351771,-64.1916320554161,-20.377533767260438,29.737996388532537,58.40532542541872,61.00066212366319,50.14045062122113,37.188357398001834,24.302061458689533,12.062340876439421,4.016180906977468,3.628227351317108,11.164365616731715,19.62916202550983,18.723878693963194,7.626160471751624,-5.517344540864525,-18.57838707523834,-34.51017879961297,-52.78480986539115,-70.33749952193345,-76.17650135168901,-53.18956651969507,-4.522812637556353,41.06973641747141,60.21243621324634,55.16286908841967,43.489687021765434,34.12561435130959,23.544287932742794,11.724342662887006,7.027300607238408,12.193192619374035,18.002807238822083,16.958740826723467,12.032342574214688,5.9780901944013545,-6.185260503596939,-24.39475415344383,-39.08792977170852,-48.91878236580995,-64.74562621210495,-84.1347223649708,-82.06211345487179,-43.66043621636041,11.699659306923278,51.18233818297742,59.41976821317811,46.954036389050074,34.84751188572594,27.94737111273561,18.02694373386645,7.87583003762371,8.233296106905765,19.499133131062724,31.84247876018587,35.138310640509395,26.835507275853637,12.850174410848275,0.07182403099595726,-11.297700263899502,-25.087951485831226,-41.75621113166592,-56.76144937561649,-69.15793823155104,-81.49667502728794,-84.67984286190267,-60.510601902563366,-12.467057815714508,31.059328987737153,52.22941632425477,54.96445982346223,49.76972856374499,41.76155632802828,31.152213156917302,21.112031126639046,18.283141480130137,26.418004374702402,40.11642776634481,46.848340215660095,42.91093467507634,36.02180807915004,31.12117241531613,22.979367947579565,9.248500360871173,-2.792667045332725,-9.695131144183263,-16.4625213792259,-27.86049163795928,-41.93697229919149,-50.92713289772336,-52.3429457057756,-54.455193992966606,-66.76410397486124,-82.84582648372158,-78.88902243493614,-40.48815469758984,12.778969124781788,47.38012934127822,51.50649122846828,37.96830718253306,23.858549728184222,15.106707574146895,8.878122787546214,4.931606273183578,6.684067355735875,15.483491018715664,27.571766769514205,35.86085691331432,36.34914956826164,29.55221426851646,18.53062547255948,7.035996111370238,-2.755404334757567,-10.27060558205547,-16.939677772701817,-24.40023445118664,-30.373861185612423,-33.263811240744715,-37.70995767134369,-48.20711542196366,-57.99166143869911,-48.471580261775784,-10.88475963525828,35.0576577779672,60.47721225404778,57.316364894767794,38.11720150296596,19.42363617656377,7.161985160691006,-0.9219983466995307,-2.954645094597442,4.677109551022679,19.74226211096545,32.750286954184055,35.42873970278346,28.58140433716353,18.04380584733572,7.686434004969359,-0.8157295463022685,-8.554768087592757,-17.209353932832027,-23.80287982661774,-25.575687658902652,-27.299017897928806,-34.07585292390118,-45.58466122015617,-58.818963120069775,-63.5677631266918,-41.85277931893987,5.740462352496529,47.89715730509792,57.72637250452388,42.26055210934458,24.247850742053007,11.414332460626289,-0.43915371257553554,-9.772617113400365,-8.162259654306954,7.533241547278824,25.988456415027223,33.24717425668779,29.281888319893003,72.0,121.0,81.0
-10.36115692661586,-23.29151440836438,-34.379668634678495,-49.90679373852633,-67.30108353378554,-65.4534819104644,-29.15919643522964,22.966180677736578,58.550910030772414,64.23011976479182,49.28027815526256,30.55759179600504,16.59470307170991,5.7382285331051,-2.5453946757820347,-3.6708548108852694,2.765726979330813,9.540939738658734,10.616557912340811,4.878819715444498,-4.458659476045937,-14.011987615381546,-25.412769340766797,-43.914588783928714,-66.67416669016298,-76.40174716212636,-54.11274769009114,-5.030395943861866,40.92738648820417,61.436677393523794,58.58201397446924,46.36457844962563,33.50014509678307,20.573346758152425,9.128871905111755,3.010747580490621,5.1364550719613185,14.017946037318492,20.63314070330344,16.252561751445764,3.7336292966696196,-9.150188388350324,-22.83624167391529,-39.63836755549236,-58.178823517497605,-74.03346268887923,-72.98631079512403,-40.77631760613613,10.393472289566285,49.72708752986897,60.53511621791054,51.752901098238254,40.583137161465295,31.396165237183983,19.969524948564818,9.260606566042547,7.754033608835824,14.324951871486675,18.43872120442569,15.6658275342964,10.521685968817582,3.333927408130451,-11.175020227694588,-29.388785693584964,-42.03028117886838,-52.472787374168085,-70.81995408693588,-86.96448330566248,-74.46856996593317,-27.879946887249254,25.913004302086048,56.761845211853554,56.9586021865871,42.746435810144185,32.66439057162547,25.60856182798716,14.599218666576185,6.603165244646593,10.692546688217872,23.480643945401834,34.0227042018934,33.79413116380711,22.99956149784024,8.876185501066587,-3.195688178874247,-14.896747664665899,-29.75708638965224,-46.46169984405895,-60.449031229018146,-72.79284119629872,-84.19457841308753,-81.03769287139627,-48.02110015783608,1.8296303589791676,39.61477900014963,54.42308976557642,53.90603930958643,47.706118341456694,38.93571506087164,27.912169458214265,19.281357412679768,19.51864607313,30.34265189823424,43.22906073156239,46.59109649693609,40.808559050909594,34.49035275381396,29.4187591512923,19.369301199213677,5.244861866352863,-5.1935706584213115,-11.371022264744383,-19.20778853042579,-31.95157283186087,-45.377186898825855,-51.92003093333276,-52.345439328033855,-56.813186237102094,-71.88750681422812,-84.89342562988519,-71.1428307741471,-25.027387546596547,25.806785076360516,51.455789072915316,48.54526009627706,33.42358851529181,20.842113739710218,13.17972578842025,7.365793230872131,4.716469361700818,8.559226112668531,18.941412963894415,30.63555365353537,36.847673472692286,35.032986819918214,26.62658370672597,15.123773790093894,3.9794054681361697,-5.143347643962913,-12.167919686386043,-19.036498812434733,-26.44429310505178,-31.43272490415218,-34.083880532442876,-40.12721026995848,-51.80649466715513,-58.063401168190396,-40.159051978308284,2.965304421760409,45.39048486376279,62.19938084126383,52.612774591302035,32.12175452706445,15.30076264786872,4.435394694649478,-2.3345526599499706,-1.8034775353708785,8.585170209440607,24.207426560334017,34.7315910457539,34.18496380513174,25.683730049993578,14.928705965508946,5.02021562332229,-3.0081978646988095,-10.990844816033686,-19.55518783475285,-24.734122627084812,-25.756142600683877,-28.668995592579208,-37.00575641215604,-49.459190795148146,-61.8361187428856,-60.639182228946446,-29.792920941703457,20.163602022807055,54.417361339845066,54.804119885955124,36.56473815749682,20.154224479320234,8.017554007965185,-3.713947318587627,-10.798502364761367,-4.847612647888018,13.355698150769852,29.540214261571176,32.917682884859424,27.165381794402165,18.44866685143141,6.732642920488072,-6.458114957459749,-16.13878185684261,-21.29379276891521,-23.576237993822396,-25.331862382486467,-30.250351517247296,-39.25985698636716,-49.70493267812777,-52.08756481518729,-30.53327513486427,14.11224043160828,56.25957916306771,71.728974762702,58.258059463534885,32.75304172879614,12.743067767633294,0.7406159584938303,-9.713967755832085,-15.414445632936346,-5.980376628503418,14.857809574974924,29.33737199151836,27.23757073757835,13.484323468854386,-2.1664021628492365,-14.356950466680656,-22.070432743035113,-27.45102506373242,-31.86354068961393,-35.12115526382156,-39.50065532362885,-48.11133489088241,-53.26044093899025,-35.87752220514091,8.657046495768814,53.67650565999367,71.45768323729703,61.91832938382457,41.39446790008806,19.990469644734972,-0.5142831416570626,-14.58254601424722,-15.771868994899071,-6.0862878231104816,7.16907696004919,16.42933541329903,19.57731373116051,16.942614813501027,6.383312553411022,-10.404854598587564,-23.912319177644434,-29.46769875844764,-34.54120768743132,-45.7734935308213,-55.45576672753551,-45.10358893092392,-8.21061710369379,35.840189180246,62.05175356142587,63.0169532860376,72.0,121.0,81.0
-16.52933845839722,-33.8093729385251,-44.71789922800136,-56.85040384453797,-76.85615274141713,-87.2370181499247,-63.77828468981444,-11.487887189697435,38.04631084456775,59.60922675339627,53.272243007913666,39.0543647721615,30.778541794696352,22.80763814368257,11.411893556356908,6.442998723462274,13.926255400776604,27.25713960937757,35.24029651017132,31.514689549217046,18.901076191120648,5.131213439406208,-6.421051705855017,-18.79598574788637,-34.61448080854301,-50.884578886955154,-63.99053203595626,-76.46784416763462,-85.71803062844228,-74.66624717854941,-34.002135086530664,14.959869361183216,46.12166230648399,55.33531408598266,52.4250242500288,45.45145758503089,35.88066322250983,24.859319842518435,18.22017885585266,21.715130251112218,34.47330877186763,45.44503599396489,45.507348008783524,38.71898510549865,33.13588524923265,27.235494474864435,15.357228457913685,1.6164144527881883,-7.191048928678931,-13.208452483698247,-22.41570370091242,-36.133517213865524,-48.17552953042563,-52.33120226474558,-52.69958188342216,-60.20522944284004,-76.93946211367643,-84.57528037739436,-60.42436582496585,-9.166998047799819,36.523343073008036,53.01113750743637,44.58492670543779,29.18868811072632,18.274791792811097,11.361316646143406,6.106412588271506,5.066483138102817,11.019150986449448,22.523327171802844,33.20505363979501,37.139172477303305,33.15393088106496,23.441099656617418,11.762298914733647,1.0992326126164114,-7.339083963663411,-14.058488214837968,-21.214629432951238,-28.262330415576674,-32.24646458194622,-35.20994522391378,-43.11195297181441,-55.02748692942509,-55.990572038974996,-29.523889960438893,16.742774313924905,53.39383867295264,61.61386183085012,47.004109408652305,26.536733241827474,11.701255251923325,1.9983211200705524,-3.1304411561095553,0.22336159285380103,12.977047912784776,28.21245748439566,35.71875273189481,32.2626947034558,22.623084929688947,11.890354699728913,2.537860880380943,-5.203954623571598,-13.51935323321042,-21.594841691307593,-25.255767213349984,-26.122530698747738,-30.528735477799362,-40.283806323046065,-53.39641088108623,-63.77255237704112,-55.0281919976525,-15.937753579539962,33.141339772531815,57.84590791966218,50.3024523535319,31.178713752543946,16.454499862889413,4.583755947468317,-6.6355903035922,-10.672020447144453,-0.3957546041450805,18.978143104688836,31.903459386269056,31.816723155809903,24.860938954620007,15.426423539964949,2.844363729425753,-9.768086006175304,-18.020888153724762,-22.181015835163176,-23.974037525157513,-26.302851894775632,-32.493854921396654,-42.34819843634533,-51.92782309439241,-48.83888170604783,-19.190018172374632,27.908105746117872,64.04788481813034,70.2994401241066,51.175004265622206,25.958681441085705,8.741436003759901,-2.2846309086778644,-12.35319588678191,-14.489728357165466,-0.4419662877420767,20.457072299716902,30.450085533270492,24.00107840039528,8.815834238957107,-6.15762772869017,-16.993849304277063,-23.74684526002394,-28.83752749352511,-32.901118971101,-36.07054673767714,-41.585620462301925,-50.710703866939866,-51.33735641001237,-25.11527608198694,23.21665123108399,62.17640847991255,70.86960539891194,56.41831597507346,35.18067218279434,13.861281570894441,-5.62415490863681,-16.333734691154213,-13.816581316377134,-2.2459613007581125,10.481233093374657,17.918388088864873,19.47258511831539,14.792811671415642,1.849151669585671,-15.09229709506304,-26.181974420483844,-30.511294274887398,-37.170311599604,-49.48185804940559,-55.277124955123874,-36.74944758961745,5.061207000966184,45.98988172958327,64.7271690871809,59.66667854890312,41.54258855713755,20.22569422148005,1.5596457092757658,-9.879291477716691,-12.493031522975814,-7.366520084570528,3.6362392852696184,14.969023587413721,18.949998126787136,11.80848238726148,-2.6750553522661127,-17.22505106293346,-29.149707182353396,-38.54607939066582,-47.22889812708226,-57.71269301312845,-61.16461922311905,-38.755142337719164,8.981457661297744,53.50245220562127,69.59910765733439,57.895363028660135,36.19489669042484,18.453689755985963,5.220142637089526,-5.593672168070374,-9.290070362388905,-2.928746553064223,9.420686018552516,19.975143236551098,22.04907521260327,14.85086485834969,0.6533309752870418,-17.45796927632983,-32.62605484973463,-40.32898969796104,-46.59374094890156,-57.75842605866671,-63.6001167347879,-43.48571594242085,2.255653748769395,45.17150666525624,62.60496722706411,57.92695169535751,46.131546707262125,34.360517074874686,18.693400902743925,0.6814515486947754,-6.954326319626781,0.686205165310046,12.274893847457777,16.753166924299205,15.064258444089596,9.959118560346282,-1.4035384265845583,-17.082331526199724,-29.0807180407197,-37.243475340297735,-49.06695087694341,-64.97158374005576,-69.03148806962076,-41.53411532500628,72.0,121.0,81.0
40.09795799360913,25.420599634278087,16.049734901529867,9.634568359634077,5.201821387134439,6.02865604091594,13.98177171193877,26.03236088111698,35.1743059177376,36.74922125701298,30.785585794000095,20.09814686137184,8.497584816689328,-1.5859579681118725,-9.37339031889033,-16.008340206882146,-23.408796472872424,-29.782232646576958,-32.93986282097028,-36.79444625205176,-46.54042069410203,-57.36328812759178,-51.443748353827765,-17.06048992393324,29.62424059911262,58.84019583531191,59.052341526009435,40.945440683539026,21.525089673373785,8.516869462958741,-0.0970650392042021,-3.196158929749888,3.0940734190178465,17.605706256898277,31.515551846949563,35.73026706108231,29.829969453254737,19.491687192187342,8.976488972576359,0.2153279867069618,-7.471906728029238,-16.06313980295569,-23.215049736721394,-25.503902316297356,-26.828685392525276,-32.85673098039461,-43.856031945488446,-57.194573705129685,-64.10278084645215,-46.62647370680296,-1.1351814449316986,43.87214713900264,58.359923506466025,44.89110007263741,26.306060113498074,12.982063105596545,1.132689658959838,-8.966184656799527,-9.259735777301168,4.9073353125818855,23.983239731260255,33.07759951576563,30.16997181362562,22.397425712285717,12.09849894172416,-1.0564762563170151,-12.670422504395509,-19.56001366119162,-22.86139270225082,-24.407870947025323,-27.628283023751028,-35.05639709894669,-45.476950518781145,-53.13224441358984,-43.18977829768109,-6.2400321669299395,40.708135838110536,69.1716827731614,66.64678128170782,43.62392991281064,19.95922058638254,5.283847496058979,-5.339455136845451,-14.349530075994522,-12.066638092946642,5.734547730601963,25.042056123004137,30.095262447919843,20.034431349235966,4.205705872979364,-9.78217734511317,-19.26699502306397,-25.306003199140136,-30.142286385691325,-33.83687470987004,-37.217445185377095,-44.07577374988586,-52.66886775884337,-47.00101579456258,-12.284028084057045,36.89765151575038,67.93265439362814,68.29289758024629,50.44167656746351,28.994707485773247,7.830607647472959,-9.98318717760695,-16.909660307730675,-11.08857788089637,1.6885780926802911,13.297211457419902,18.920943646178017,18.87048718679914,11.905531562998899,-3.075856627273424,-19.21609060041945,-27.80482228906903,-31.79525837206988,-40.386052470976075,-52.70165662880963,-52.92781939315779,-26.266880996371842,18.225498972136894,54.13665037440465,65.33360386471725,55.24270785319256,35.40669395656581,14.338527181876263,-2.639925863844985,-11.511829029497662,-11.750362185452467,-4.642598581364656,7.230966886863721,17.160366294541546,18.01481656068278,8.032712050308218,-7.101456511856395,-20.946388874926935,-32.10153069792055,-40.9646927135857,-50.12525885166976,-60.268516111423715,-57.959879066515235,-26.656420454068783,23.6805731041499,61.55820541923402,68.43122562084245,51.79948237779128,30.40949138402777,14.364158150426084,1.742750783428283,-7.658882892715148,-8.417883072507092,0.32993788088608783,13.027424424892242,21.60133949056715,20.825178633563183,11.374890119091479,-4.404702430957073,-22.500404077696736,-35.54793096802329,-41.8367069426924,-49.36938889715163,-60.934903342977336,-61.10932057546955,-31.96914261702374,16.39251670798142,53.13658544188319,62.87843733667084,54.670138818361735,42.781556002023024,30.443357147533415,13.26634712134142,-3.142362512254821,-6.045957421793636,4.313678314358867,14.46331984875708,16.667911062263123,14.007291569605394,7.4322641976066945,-5.840682011547688,-21.17687789831038,-31.538010393204054,-39.9956992031916,-53.634821211621194,-68.41099234016765,-64.73963719582514,-27.866760021834196,23.440024954420696,54.87116380142132,58.08240296948063,47.81995101745211,35.63326903131979,22.107441214361806,6.039073165812785,-6.191076365035703,-6.2646697383665275,4.400879975710938,15.708500848004837,19.993175913680687,16.776286671254308,8.421809911776677,-2.6397854538786745,-13.543311001601921,-23.031089871174952,-32.576482729363434,-45.47932136966455,-63.788813992429425,-76.77076399601476,-61.70549720812079,-15.466195173218194,34.6378222738783,62.01903638053315,62.148627527134174,47.76819920063619,32.009292444271395,18.12443567360708,6.746954746873361,3.713356764025159,11.142958229158427,22.175318720538492,29.027271668345893,29.030050742850015,22.67640989154536,11.421288465346496,-2.8871201097205454,-18.663116558243814,-32.21799736483319,-40.077070103562924,-45.7039359371212,-56.91666991029572,-75.39793797126003,-84.50511588894442,-60.514998094736995,-6.435767416273964,43.819104360365635,65.0778231734585,61.72854540459831,49.35887004124084,35.938469694300515,21.178483340331052,7.02977414299106,1.63100582369909,9.436577801025694,23.547885374991274,32.720369627963315,33.022342095089115,28.30564866275391,21.457280187363033,9.752234783299523,72.0,121.0,81.0
28.168779178705474,19.748061817059835,8.479675605867328,-4.813675973323429,-15.141065999494142,-20.806396786681027,-23.37710366470577,-24.98682851801809,-29.335656407630392,-37.88433337272852,-48.45632752496905,-52.847889193183114,-35.069693009498394,7.6256867302227755,51.84116665078289,71.54270136571816,61.217568755456114,36.09816517043556,14.828467549851528,2.1414894121863437,-8.370516273823158,-15.36311545575845,-8.196206332634729,12.04576420541892,28.31745748363294,28.407670418516457,15.609709529182068,-0.21700523126091126,-13.007510927536604,-21.24010019152939,-26.788855237214,-31.346361338745783,-34.71478824294928,-38.68711185356946,-46.82664877397772,-53.450831637428344,-40.00456592502473,1.9012560463819705,48.89215787450038,70.94376029725879,64.19196707494334,44.262909824061055,22.828394775484398,2.0309384244604813,-13.382742771724798,-16.367608378983434,-7.765790299674091,5.504138442837012,15.567107884947212,19.471887482214523,17.698120955882175,8.28296596205328,-8.121127478862935,-22.611323943913554,-28.99284149698747,-33.54045667450206,-44.02710720486347,-54.91802021610632,-48.14812721838284,-14.160832516856559,30.58359290405222,60.07504184904594,64.11378344565995,50.036710066021485,29.19035029874768,8.793272500975919,-6.132336787891253,-12.413749677064766,-10.393842702548003,-1.4829793203824047,10.66513905409322,18.558180385940513,16.117563152126692,3.8209848695655064,-11.373087710014788,-24.441718874865344,-34.84444843146178,-43.40372950413627,-53.21973573707137,-61.83240372717359,-52.12369182508861,-12.797096138114693,37.22631811607645,66.83517013817593,65.22483055066452,45.37750018987803,25.167787216295576,10.53710802798461,-1.5202276115814373,-8.95821733659819,-6.708521208777153,3.9352932564800596,16.271940889692388,22.398362367938773,18.87332692571114,7.364126177167751,-9.692739101932219,-27.0813884400164,-37.820657895515794,-43.482698775373834,-52.62669762844958,-63.19914981418016,-55.94793196092746,-18.68264886196392,29.425987291645466,58.663931688174095,61.626806695647694,51.193065361879505,39.46350016189698,26.032030648094597,7.837302918353385,-5.732036477668949,-3.923544762956063,7.869441515793154,15.898106694545765,16.204778426556427,12.6652618807047,4.277467680756335,-10.47608989304626,-24.76663245913315,-33.804217726275084,-43.261159112663016,-58.4186124257566,-70.2999243049925,-57.406612301694,-12.864703185106816,35.6150275604985,58.230706635421996,55.766759282396684,44.30470926361553,31.997478801539316,17.612131146577408,1.6538743778504994,-7.6364086784578715,-3.9218676582572662,8.081076442807312,17.802538284161873,19.736351417271152,14.790168733947107,5.37686879054114,-5.914536488791163,-16.409827952098915,-25.667995829692714,-35.777677644680544,-50.32787586651049,-69.05137422558663,-76.12062720672914,-50.730151105520946,0.10833084521845743,45.5377340473223,64.49060889924733,58.76096237120864,43.022448000911666,27.855797748296833,14.393592095652531,4.7402288480282655,4.953531580035218,14.381837564332397,24.796434682702653,29.743506013369526,27.791629774107175,19.8498480068116,7.526371406360408,-7.385291877141922,-23.046215778823377,-35.066841767124856,-41.6098565627986,-48.04796607925433,-61.85273762716453,-80.17771298584265,-81.61004831343992,-46.81329124273815,10.135489254087975,53.231818632483886,65.93821715179746,58.50450379701765,45.52485450357229,31.860156732439137,16.739538295055034,4.189811229864611,2.622584734390708,13.400864092575679,27.079078528004523,33.63484803489921,31.94566611992482,26.5820931290726,18.747293103508976,5.140690625168357,-12.787694624902116,-27.404476266221163,-34.194295733167834,-36.568942633987966,-41.87506499711646,-53.81783370624842,-69.50461374764431,-78.37517601047585,-61.79529148028709,-14.47521472558747,37.85743359366012,65.04568866064606,62.966818365211594,46.607996045882295,28.506526808475307,12.928109459683252,2.4364245248435594,0.037674427941428626,6.7747123990031035,19.223483646814557,30.018772013006046,33.12247647639422,27.132258060478616,16.160031268703623,4.056133159608284,-7.599887556111511,-18.38880931869254,-29.510826158234373,-41.32854521780742,-52.430059835578156,-64.7499583392106,-76.62191874309943,-69.07910906197898,-26.710727245102834,30.315365985622392,67.75755648815785,73.87646748583624,60.44777167269015,40.25849314490956,17.07590616380091,-3.988494208860459,-12.708402900235388,-5.901807641344466,8.788570497446141,22.271517992003236,29.03702654459928,25.655932974365257,12.407758599787448,-2.5178295404610695,-14.076111856744468,-25.289490849383533,-38.07186468622732,-50.19076421204181,-61.57477987437752,-66.57832957115596,-47.63717513694576,-1.8811273335962437,44.68347927864271,66.63537422805226,63.015140079998545,47.32958647558368,27.6398677645721,72.0,121.0,81.0
61.363353820136794,44.303458658136186,23.021274942368944,3.712912394008162,-8.872822897781544,-12.621049079140715,-8.450390175200994,1.982030322090418,13.732479051081375,19.049064775678655,13.343817032353932,-0.6113998835650715,-15.43159769152015,-27.715054371946973,-37.408811712095016,-45.97411149033459,-56.344465344653656,-61.83847032256223,-43.570696442462285,2.0474506331402704,48.90253290805486,69.33507898537286,60.4676001280363,39.020811402127364,20.46368475181873,6.870155695186677,-4.424082029937959,-9.392797771956275,-4.26515669721384,7.693519345493963,18.9639239253256,22.349690283741015,16.26110460612469,2.869368726298432,-15.034216993043065,-31.038570959479856,-39.606499450442776,-45.49706213926971,-56.147001954563954,-63.93677768814586,-48.02438445971967,-4.413245842620141,40.69891872448454,61.85407754386479,59.27142790348562,47.70872214069499,36.03123018036813,21.108832277128414,2.779400896006304,-6.90512706694441,-0.9028345388179484,11.023564883717896,16.625310164193973,15.474908339163305,10.927715358585731,0.5115493701315179,-15.056145100922379,-27.82840840165023,-36.10643731185668,-47.10718192056764,-63.03509691697912,-70.03023974442418,-47.14299412902432,2.476186873892271,45.37711936636731,59.39873025508192,52.77463380095593,40.78908334293201,28.17323902745664,12.916746829866684,-2.159897795840752,-7.911019111109269,-0.8423515906471329,11.525447364122552,19.20046033202181,18.90039656103985,12.431517633559194,2.1708399233797935,-9.106060755224753,-19.15524420518383,-28.365510543726632,-39.361316654662346,-55.644417867764744,-73.40882927093645,-72.53579973061012,-37.44530468724913,15.138695801064983,54.06309316489706,64.81208117238756,54.57558112702826,38.40354311306957,23.829733113553623,10.936412835205147,3.6143578615687955,7.022839606432837,17.682050970855805,26.924230487369083,29.870298465672033,26.051207048208184,16.65327694618967,3.4235265269394137,-11.975665895790769,-27.107254628921616,-37.40216525044462,-43.11480859135636,-51.07093648387421,-67.3161438354352,-83.55190738357192,-75.42922041069119,-31.086120489404607,25.38111929811882,59.90907283681746,65.10176063844386,54.897909650624456,41.67480206606528,27.619196112449217,12.473675555889105,2.3203059807472046,4.729114329104584,17.609886778118707,29.944522535819218,33.819457861573305,30.59106094219067,24.694964011194383,15.514557309205394,0.11721678147426595,-17.692047898060625,-30.160585121848424,-35.02110642428644,-37.50955143377639,-44.656956713898396,-58.24757119342928,-73.50916932782587,-76.97983612441374,-50.666319055785934,1.7570964022821935,49.05914607983134,66.93930832151565,58.97578473141913,41.252633185645344,23.661820826841883,9.222111332157418,0.8182518629364526,1.0799577269456522,10.088717843657934,22.829929082937475,31.891146685226083,32.21197126771401,24.250982806345284,12.678654284328658,0.6038079182260692,-10.78582567289349,-21.49332137959854,-32.92518929275216,-44.61089412881751,-55.711657487062816,-68.71418275996464,-77.58731005236014,-60.244602312885355,-10.085454726361647,44.256884536476804,72.49962003912184,71.26398181815624,55.02073155002918,33.78006040840177,10.346079996789872,-8.167252297442714,-12.135393877186448,-2.0139372257518238,13.121241919129686,25.08151067963394,29.229692991394447,22.59308575270395,7.854999566216468,-6.160600157618219,-17.161584843796188,-28.893134121702982,-41.71107220706025,-53.539139247276324,-64.33933468287702,-64.28508726474166,-36.4319302840103,12.965155642348435,54.0831449181172,67.69750282920417,59.14042014460789,41.998602320852875,21.191852380650026,-2.571192225310218,-19.913625819051887,-19.82134154693166,-4.341820826796118,13.194248905055703,22.83030356200432,22.39454657022583,12.898480441736693,-1.9601709399776728,-16.777895176715177,-27.878953747742013,-37.66179796301415,-53.53851627299981,-70.74150430436362,-66.83546748817784,-30.556106257091052,19.079146616218694,55.58146201625856,70.244856646982,66.00982885720498,48.446267107896595,25.532699499626588,4.4500278530212904,-8.45240436131744,-9.632377855695117,-0.693037670231384,12.91867450249413,22.273175068447465,19.854587650998806,6.6616805634295995,-10.665722344022834,-26.039018740457223,-36.198939682967286,-46.28702245881211,-63.152657830321665,-77.17240358539823,-62.673659562879706,-13.545002487339362,40.28094887046793,68.32844174495166,67.13016278207499,51.755977473155305,34.973772655711954,18.46859672023449,1.9783206437307845,-8.849590623573835,-7.004519126871936,6.282657910859046,19.282249356562044,21.331258900136316,11.902112482122847,-2.4650385172788782,-16.91533348142,-30.6557366892705,-44.59241040495935,-60.61884936326327,-75.71383816140631,-72.73619320382444,-36.119501244759256,18.85610029817479,58.937697957665385,70.03647842393379,72.0,121.0,81.0
-34.3899804197829,17.1503082158892,52.48640626158782,58.813283195202075,49.42277577534968,37.27088055673775,24.08825104519175,8.17812126380651,-5.148857901523938,-7.031529002016578,2.6966018436703716,14.521477279114746,19.898677650967734,17.55256803646695,9.750757813405297,-1.1173861697279246,-12.175140321159555,-21.817613066161332,-31.199418963298054,-43.425470601761674,-61.22311662153545,-76.1973639987458,-65.82870731957361,-22.599980218511405,28.892628082280307,60.082664354715625,63.32935753962393,49.95822678723476,33.980986575435715,19.900218473128845,7.928451387597322,3.4559937602479347,9.736877807569618,20.827180763602257,28.497708956496762,29.422881792515025,23.842558732149964,13.136395225136985,-0.8588249905992569,-16.573442003345097,-30.72357339105871,-39.307513006261175,-44.80327270587809,-54.88557284073929,-72.91638194687566,-84.81284799432251,-65.9360394547605,-14.271532142656941,38.571178374032215,63.991084255429335,63.00520302903608,51.12120074999582,37.77134360889401,23.231399168925893,8.60856750335059,1.5741358608228682,7.7792523727887355,21.746310724290023,32.031680470559046,33.389415619489654,29.05738873761668,22.558076705143577,11.703365473332564,-5.138423185676886,-22.106235220172486,-32.227845120146476,-35.635238112928455,-38.88197439811448,-48.01551189564464,-62.871344013568375,-76.59208667117542,-72.93856474418111,-37.13183269527094,17.49844664896049,57.586092088959845,66.59655313565644,54.22996561880915,35.9595810561502,19.06965991921775,6.023649222784584,-0.06397608273924152,2.892779135037043,13.730109667531165,26.113982619725,32.9945345977173,30.575222361172926,21.08785804832067,9.167878572632246,-2.7878501937613045,-13.898294845045912,-24.676181427753033,-36.369745902371264,-47.80330555408227,-59.20263787911969,-72.48863850088851,-76.25563928604441,-48.37686746598783,6.885074892103505,55.80836970226833,74.65379914064113,67.45123810731937,49.238047769418976,27.074551807486422,3.996352351245181,-11.046827774268095,-10.325046506293635,2.2780230847468195,17.16158471874188,27.235492497248792,28.487525084745222,18.79083177981906,3.426233588224336,-9.506201376260035,-20.340741440735425,-32.61269079430817,-45.227759210550595,-56.87777777509579,-66.28459714921658,-59.484805903284034,-23.238349297554453,27.025275147631504,61.00002299918317,66.85697425898091,54.627051838905786,36.40101157207011,14.41419626604454,-8.851812667258093,-21.909257536559693,-16.434853582674926,1.1304521834840722,16.98548086952988,23.735191437592604,20.47524668856085,8.923668005611912,-6.472763593572021,-20.41899010223296,-30.517351470936237,-41.41547674516763,-59.17627087644833,-72.81499950434883,-59.355446825034605,-16.232770871259703,31.751444775583437,62.0069831985564,70.76974654204018,61.973664419038705,42.02642365850835,18.964727027118386,-0.36867771619814427,-10.014936850686016,-7.91583511078573,3.098512914827299,16.495593541622505,22.927164064918355,16.884259232608976,1.7867928667386905,-15.548499400904813,-29.471373244547415,-38.69405780128942,-50.44117765397669,-68.52459738108983,-76.93168785681917,-51.22141836422134,3.2562800613681016,51.73181458428697,70.48846441046534,63.37797641644477,46.79797236937291,30.26992791414954,13.5641964650001,-2.0930718538462756,-9.801396293098868,-3.9559594695967886,10.680019236738213,21.23716887710404,19.549113250116196,7.954891743721681,-6.72274042192752,-20.937792344843796,-34.58897332408287,-48.945153532497734,-65.54811792497907,-77.73825897655371,-65.64063257967412,-20.628473342856434,33.1629249755097,65.00204084320316,68.85818441831402,56.335188431793256,38.6001854464436,21.235804195474085,6.656329842159802,-1.5349065521177945,-0.12124593217218603,8.53187870380524,17.89922812211238,23.114933692458695,19.664341954774923,5.752046673345179,-12.771143367746328,-29.532829462233874,-42.736515455413645,-54.856646971585796,-68.90974712843281,-76.2479200074595,-57.43565896173475,-11.645323837194795,36.135501385457005,63.848698752317766,67.73908795424353,57.192388946323696,41.56067657052518,23.811241614293092,7.7179688990524635,-1.0872626034459305,2.610327339862228,15.469506787192689,23.988644166643997,20.72658584724972,9.922069950435535,-2.9141229676737916,-16.576838300441946,-31.154663344925126,-46.32776182990154,-62.83817804231937,-81.38490279737347,-90.40412598891369,-67.56890222683427,-12.44551999499212,44.11602680356434,72.54070042697198,69.64257234663162,51.57926800456586,32.745201217027,16.772534634774335,4.662931059130288,1.1289043224280353,9.351616629003436,23.680166429352575,33.22160148055129,33.46060737418169,25.795446943262398,10.137714210260627,-10.283857725910066,-27.75825896867805,-39.31014053788267,-50.502633301500786,-69.12661311026854,-91.0373389672041,-92.87915069801288,72.0,121.0,81.0
7.326915331374314,-10.41206253342203,-25.89289441823119,-33.689328525936276,-36.23860339646476,-40.79466350471557,-51.88674131445181,-67.47088867161682,-78.24449791749414,-65.99047881934789,-21.86504025290295,31.88383302144827,63.32055587322832,64.44373802321549,49.06098270515573,30.814463344966775,14.782497743581816,3.418022435355225,-0.17616938226193862,5.4090347742358995,17.49820023112669,28.92271338381388,33.273704367411135,28.332341440604136,17.742237098383963,5.662873569578028,-6.101594324015664,-16.971783895657275,-27.961940341292966,-39.78159771561243,-50.96081769844866,-62.94880330272411,-75.58941958307351,-72.06924007779867,-33.98677020037385,23.232199074555837,64.63795945895191,74.56100624470002,62.798255679821274,43.15653633538098,20.233658557916304,-1.680051117203569,-12.513099298162269,-7.487845422993781,6.736305610700794,20.777544050314205,28.65385650696085,26.770785183636274,14.486379070735506,-0.7216789378569928,-12.655917433590083,-23.684838567087233,-36.35991052764289,-48.63957346948107,-60.1426746468693,-66.8963800983832,-51.9887875703737,-8.760657933249464,39.570122866634414,65.4097517895747,64.50180823412003,49.70130790576712,30.487262139083803,7.444832113836791,-14.257282145435935,-22.241879501025327,-11.985567848849897,6.400070880815304,19.97519796606124,23.792899630445362,17.84288053009459,4.621538390540624,-10.847344734844823,-23.687586441582525,-33.192169820276625,-45.87678004790723,-64.58137314127906,-72.46587158358379,-49.182687971853,-1.5352043260434751,42.78834499206218,66.60617840215535,69.81496532131663,56.991207741414556,35.36172704802986,12.705961682547699,-4.349604114368201,-10.563217337617674,-5.434953883796488,7.115140993671706,19.466369539845324,22.46889941336941,13.140341309353849,-3.2645561966279684,-20.127046519462926,-32.434710834440104,-41.417154562004356,-55.274714482087056,-73.18322353860519,-73.60530586700516,-37.13324441414415,19.450727051221588,60.49726791046068,70.40584461568373,58.896719125972375,41.92219712605623,25.53177908794524,8.700757106678362,-5.495770530539064,-9.54400842212156,-0.10880003807957786,14.697613212001611,22.090623484373896,16.910364632400295,3.7803194975101304,-10.918211846082272,-24.908822741164048,-38.56959723194733,-53.53423762738139,-70.23119432794591,-77.66564690868012,-55.52829224666578,-4.35972150997457,45.43295629309905,68.61165084586187,66.33180061766112,51.39555391623991,33.423326370589,16.61942451653583,3.436362534186226,-2.1468903404015673,1.9112059941651782,11.424285678623475,20.015471959495294,23.210506949476162,16.589629789562636,0.5126641831900333,-17.95727668286408,-33.68320483518407,-46.148975988710866,-58.759315221815214,-72.56197108649552,-74.15985470027131,-46.16124579299998,3.234248219616162,46.71771789965719,67.15927057186991,65.63412573134276,52.992705714267295,36.547998163742456,18.75688509838698,4.155290223183921,-1.419304496576015,5.896062904950452,18.963882979002555,24.224455944824467,18.0609815074034,6.301908510594009,-6.768352494324588,-20.701773271171835,-35.4902624749194,-50.863593146580286,-68.13711417788636,-85.96227287243188,-87.81526526524105,-53.99197921187655,5.415467201343962,55.91422252535631,74.3893033800363,65.15218971230077,45.87840727549909,27.848602118460835,12.72549189621505,2.5162470989371992,2.343587404546547,13.355446296177414,27.31726547640527,34.210301671822755,32.02136923213249,22.09173935950234,4.399098341888513,-15.9312826545783,-31.601490774733858,-42.18092700586335,-54.935350372870474,-75.84770338164616,-94.90968196646924,-86.18608786289684,-38.970372065258665,22.09583570806492,64.29929929819379,76.63784927855491,68.00235340562338,50.419496230430674,29.827526808257677,9.620400570123987,-1.1628003651620262,3.3608877005854776,16.97408373134012,28.4751379062667,31.415344215802946,25.539122712794317,13.790219841350703,-1.0209318089578905,-16.669905991135764,-30.54338202052794,-42.221308649562694,-55.76015953971536,-74.62224465798452,-89.4655661485153,-77.94095392729461,-30.81838047737772,29.26278294939445,68.75325161050469,75.08060711863097,62.62748075016387,46.60589827172554,27.23578151820166,6.048022896559368,-4.6286058022049845,1.9899419061870751,17.410098818204688,27.58292476454539,26.519651906109203,18.29275863535969,6.84815381812746,-7.239321680016284,-22.192452142877105,-34.84821019245404,-45.58470220795775,-59.55325799639241,-79.76065142913902,-93.7746496440448,-76.39052983416984,-23.25305337943996,36.57400948108713,72.73202556561911,79.51653782602162,67.9705946412584,48.44870673591663,26.024812771259604,6.071630192828494,-3.334356038327492,1.3640720827424468,13.547444505613955,23.74316065068676,28.268598393787624,26.040096273041772,16.21962432398383,1.1804757430003647,72.0,121.0,81.0
24.210131126201244,0.520870729740169,-18.458411044193266,-20.93634507212846,-6.840958646297551,11.196788059489094,22.12569001720893,23.021250571187217,14.583244828217905,0.13315487418615138,-14.978519714519507,-26.616978463696423,-36.14280007208613,-51.00529547417013,-69.12498469973089,-69.29732016956261,-36.81457102723466,12.78524046845834,51.98333564566316,69.47606415097579,67.49789214125231,51.27235387347578,28.621741187235187,6.916593389861642,-7.387908005608829,-10.137975390354159,-2.310664929109593,11.133097761586155,21.6114169417429,20.916127058522637,8.807461374448735,-8.348970532585541,-24.285633401061556,-35.053659989946226,-44.60742412005048,-60.61400954312767,-76.39196541134012,-66.90170593105294,-21.225521625185916,34.17767247758839,66.48256982317511,68.49808259490649,54.0431285544356,37.14934257169987,20.715925461038495,4.022924164265252,-8.026822980082505,-8.070740169912815,4.221173449258213,18.037549588622117,21.820212393541684,13.600531836616748,-0.49040360002937206,-15.039503398519283,-28.8458713768511,-42.655380204196945,-58.34752521018672,-74.2402189936669,-74.96927822356348,-42.74662500368637,11.73957270768911,55.27197972027228,70.02986899080406,62.78088385273942,46.241160025129716,28.356436323087728,12.286691393371164,0.8618039067628279,-1.9039158142890051,4.413818665141259,14.217021381641686,21.691626621430963,22.45568504024768,12.664472551752436,-4.900436504613968,-22.886045814257077,-37.53159865657174,-49.57728485022511,-62.87579915170099,-75.25187090023871,-69.39065629337733,-32.95451545251902,17.524953357778188,55.249468198082376,68.56675027142283,62.63674765811432,48.51873828651815,31.394609096654904,13.965653125061591,1.3452583225668575,-0.5883642136762591,9.719432186668346,21.720255902838026,23.436357585586364,14.949763055984517,2.6018389570876894,-10.695740705098709,-24.902899510533146,-39.860307501457534,-55.55901899162378,-73.60473835184915,-89.25989503417914,-82.00797087873696,-38.094128303698355,22.436847822424316,64.8338593688299,73.83519376410233,59.88264922017568,40.357201970326514,23.18189103091942,9.060054467995718,1.2321193202134195,4.567986842691739,17.619833989280338,30.29496420235867,34.41818037815781,29.964893701374212,17.689609373301877,-1.5779289884797543,-21.136451340403948,-34.963239806918956,-45.23362296166292,-60.16178223335795,-82.55340955834879,-96.35866310898432,-75.99346603515863,-21.096329192306623,37.23442966368312,70.76493920420975,75.7038981727383,63.43509667107116,44.68529213344051,23.657145679453475,5.0754609445320975,-1.3712424718406884,6.8701968352025355,20.931428106960926,30.315276601378066,30.518680685690825,22.601802712129548,9.730565775762953,-5.569159551214487,-20.958387613463593,-34.0437828369936,-45.68206064563278,-60.734340570999755,-80.19767213365198,-89.80319888257752,-67.5442954660512,-13.200918853723772,43.943986029688354,73.71829661897922,72.4758186025055,58.12542962376944,41.51521556046278,20.8795261006691,1.3033158514349297,-4.376115060931289,6.190836857761501,21.391615807935725,28.370768512385666,24.61346121968522,15.267632617886324,3.022490836796785,-11.61656485784262,-26.17950387055726,-37.98048367353486,-49.016031909226676,-64.89375428280297,-85.52995604477624,-92.88830047332627,-63.88949763347121,-4.982599726847803,50.21595934011356,77.3589031773013,77.49399612111577,62.8530630031861,42.09882555288828,19.66542659680136,1.9439351796127626,-3.321950422896244,4.60378174496856,16.97101624488874,25.681049681258177,28.38140708228592,23.94899031162837,12.247735891275479,-3.7089584101126256,-21.904704209153117,-39.99285617398902,-55.861488391205505,-73.59366552346637,-89.52869578751933,-79.12608998532158,-29.467241345549308,31.651656054392237,69.00185055026182,75.55220367021082,64.55579020930556,45.82872924531055,21.312790705075187,-0.9432603212720538,-10.962921869793918,-7.766116771269854,4.275602362731204,17.368645174842385,23.087743555374335,19.23917159051376,8.624818717438252,-6.771112476401432,-24.225179801320955,-41.323003734363056,-58.91597913793464,-78.59646443658171,-88.8113788857277,-66.08483090287336,-9.248490724155578,49.28480713305031,80.50772027328999,82.87120599615781,66.86967654472174,40.42792210916287,10.943498067958798,-10.923315319864368,-16.08179480036688,-4.367686232186532,12.531018176566018,20.977791271022845,18.264454807205276,8.419704671272143,-6.236534436143247,-21.859122003982538,-35.12486209948136,-48.885559331754415,-68.08261851717282,-85.9085424484963,-75.56876291817682,-24.689629155675345,38.71685666986492,78.2873285932203,83.86176557499672,69.11720722195977,46.18360246947824,18.413713673488786,-4.4358039258791555,-10.462589536824874,-1.8195842041819605,11.254311496813619,22.25316588756015,25.000264903135527,72.0,121.0,81.0
69.58961991707152,58.49194508176614,41.00964854493152,23.440341725463675,8.327080348024316,-0.9659436684584372,-0.8519239710307873,7.200835102978156,16.80270394093564,22.816202374463018,20.766881331989094,8.052859129368569,-10.313575263608595,-27.5101531852488,-41.134497914794046,-53.14131303674302,-67.0477709803274,-76.39786637213457,-61.828043145645076,-18.51026813463443,30.62737658303129,61.6294693356568,68.32414942777203,59.01479957756253,43.80704651524457,26.19325028028843,9.571926320945938,-0.5566392792656708,1.3680903478148312,13.695671016847712,23.517060721746912,21.75487538165995,11.551445368036047,-1.1595519634477034,-14.702256074804886,-29.169585565541684,-44.27205555737887,-60.480623775732695,-79.01310254613865,-90.6135797885671,-72.86495172020416,-20.70538058869598,37.78877838158625,70.77809970097726,71.32426790331664,54.22840358042887,35.086593691346394,18.738697410990348,5.905350631429846,0.9228011639686623,7.676147880831475,21.834941946185733,32.48894220679459,33.91433746500182,27.266783807359317,12.6464775107268,-7.573321365858218,-25.800615801222264,-37.9825089155574,-48.70349388502111,-66.15259538380883,-88.637630285974,-94.76268828227455,-62.66892889424893,-2.973988406426447,50.11386647903617,74.74541713628697,73.3467683809783,58.38098005289058,38.75815533624475,17.63493340093979,1.602281050020263,-0.26661485788664724,10.872635439779874,24.451305323793775,31.351371981321513,28.931804217155317,19.258438113363365,5.469455494634238,-10.130808828584275,-25.030131354734248,-37.390903473771864,-49.44549887990933,-66.1915573487924,-85.0294651304019,-87.31713475712772,-54.24059665800961,4.6521398464876516,56.13980068676767,75.92688185321698,68.85104447395102,53.54513557991891,36.01968734018583,14.539370675905984,-2.193526215110761,-2.6634815134938017,10.785148819421327,24.606093369856367,28.203809946020648,22.27211923502116,12.016074784751323,-1.0212393682954108,-15.994153228572738,-29.898112950929956,-41.02061662760246,-52.87881079284659,-70.77079029420499,-90.25626851730635,-88.73221819131398,-48.68194149610188,12.89309930205832,61.32179066492209,79.66309017874252,74.27536072827344,57.25949081973635,35.58802591679351,13.681939340148656,-1.093738852260409,-2.1315107281770413,8.201638593063308,20.04313977836666,27.113938815271258,27.899338753841903,21.21721486610032,7.938948071012043,-8.78990029887236,-27.309568029142582,-44.73680945103995,-60.571320130646214,-79.16064788375738,-90.47628524342983,-68.29087363857609,-11.090316690058243,45.80319812753229,73.64165253803453,73.51357916640627,59.821130518855874,39.1818757675246,14.09091088509082,-5.310509271356449,-11.259029510290619,-4.9218986787472465,8.37123791948809,20.037258356531552,22.857060334755896,16.756971348324164,4.580082106762713,-11.748540604838025,-29.241168242717443,-46.21923161828411,-64.50823304583334,-83.54915693819845,-86.42970632442879,-52.169006745015054,9.229385342204026,61.66438766392761,83.71226035530344,79.71028550921966,60.02326407603515,31.806034351626,3.339293073968304,-14.359606296302365,-14.116618264055768,0.6991822268702352,16.208177962337015,21.174003079122695,16.012974831372436,4.581012739457782,-10.890744645321297,-25.918253658861815,-38.80848844626419,-53.764741916352364,-74.30038213012564,-87.08458598142502,-64.45926927868827,-5.788828952790573,53.67574810613296,83.03810218217235,80.92009906096129,63.1298520247687,38.45281288376804,10.631022144493548,-8.121377967451615,-9.026452432432666,1.8876412311283661,14.854932341718229,24.23600213818441,23.323036209683224,9.699174287494255,-9.167556431309334,-26.242407526739544,-41.664241609902284,-60.81439414826188,-83.30202449613604,-87.54589336193817,-50.135248717555854,14.33839229976941,63.86088504658714,77.4296457341533,66.72434857810792,49.35407587492862,30.514421882444367,9.502251483399169,-7.006042524819986,-7.38480791142069,7.509779174504008,21.347486632850885,21.56294669536557,10.870095717211516,-2.110819158427625,-15.739808203559944,-33.23560318462344,-55.546891869439555,-81.1247253501371,-98.41760732008687,-82.08644859168574,-26.372110019347645,35.325492605031684,71.15637788689196,77.69103731508322,65.44543296853975,46.72540299035054,27.98922119220844,9.287559214616156,-4.148893721817927,-2.245101605946423,12.000182109692442,22.29754474285834,19.412016587704937,7.1873136898395344,-8.723093882892426,-25.692571899138827,-44.46935173263712,-69.19986434151133,-95.07284878385687,-97.46687880071265,-56.43346164831877,8.577057547945744,56.6531412330983,71.09664888708546,65.1643416739291,53.72710656668412,38.70525759834738,20.624386474850596,7.825931553398549,7.8941279561096795,17.084719772928647,25.004082483987922,25.074363609254156,17.393668087690585,72.0,121.0,81.0
-89.71688241370738,-46.863218734286235,14.48933107436838,60.43518040330636,76.49596178811345,69.88754141296597,52.99091983405107,32.670265336192045,12.005547304595407,-0.6036987446357804,1.9929043191013458,15.060922020130969,27.367568815144434,31.57710757692586,26.734441083192362,15.58103282911597,1.0533949885886513,-14.633930466188094,-28.85890529258809,-40.6849123474988,-53.64829811983603,-71.95018081189104,-88.50183286734122,-81.65719317282426,-38.604574390960956,21.818220083839112,65.46608520003117,75.79008921382237,64.6588931088428,48.844602819829966,30.092914239759,8.569262940728068,-4.220347973896256,0.291502944889759,15.387014084165221,26.87757973903466,27.21098090836005,19.60890443219068,8.533335640254876,-5.246060140612887,-20.27603415814575,-33.34260960217623,-44.1050581500177,-57.30254055303138,-76.93398570640835,-93.21015787942058,-81.08142186576035,-31.54829718803989,29.52269835199659,69.74551991215161,79.96067336542062,70.13077918550454,51.2976854413238,29.027284792279403,8.29382555938824,-2.9183476340256655,0.07134955271421906,11.884750458737956,22.68399080891635,28.027672134962465,26.77965331811668,17.91141914683549,3.365406375791278,-14.038236356801859,-32.61345260671997,-49.28423144298709,-65.61732735606948,-84.28169148473286,-88.43805739353735,-54.22567323220142,7.182699971075368,57.30151200470134,75.8576943771709,70.42102369010074,54.54496881762073,32.080669333953395,7.369978347590839,-8.48382750146338,-10.514087438847596,-1.4688518853579846,12.325278245188256,21.907667942055298,21.86436200988508,13.783690812143728,0.17244633475630858,-16.81264842605777,-34.1875275355339,-51.22303539839353,-70.29609799386829,-87.21232824944782,-80.70171503908847,-35.77839360655877,26.824989311478795,71.30988522200518,84.72277095107415,75.27253744113756,52.45425638756309,23.13475895642191,-3.338145395269406,-16.228460300487104,-10.850246264253716,5.8023999030160915,18.90897463328601,20.509179807231043,13.262472584646957,0.37405885578885345,-15.485145515787195,-29.75333616698398,-42.65594923190598,-59.22970657120463,-80.01807877791819,-85.09175213049969,-50.0545248810303,13.125254750271267,65.89780528503677,85.0365885603749,76.74682131822512,56.616725809120425,30.366904988711237,3.6318560473661914,-10.194866363244648,-6.585171455267103,5.7191922941437126,18.182232662486985,25.33391032098385,20.49764374704425,4.361001396112511,-14.417074743191067,-30.691525322909655,-46.54870370720396,-67.48673758813952,-87.79754010316967,-81.2961963167458,-32.51908900537113,31.837355118237326,71.40987325365049,75.89877060418546,61.903718262215705,44.11872363590309,24.579788451313284,3.719789385675401,-9.114143702437646,-4.101218188144396,12.433657515306301,22.959391029166753,19.183047954231647,7.096281493558801,-5.842844495972763,-20.29486781994104,-39.204251241874736,-62.79567733053602,-87.95428724668098,-98.20718743695414,-69.10342649498126,-7.2765160428257305,48.982327292249714,75.68069866394714,75.52815036011187,60.22652929760319,41.27911765429811,22.541466392899668,4.382002552793068,-5.43039585622426,1.2324213379521136,16.08017478079462,22.821319985178683,16.525714237507863,2.8105780660024333,-13.575254027985359,-30.764918413946855,-50.87990944985461,-77.30282673673226,-99.54856081043228,-90.06757455131375,-38.27086764512458,25.67549339672946,64.0584530935157,70.59573513420943,62.13132119307994,49.85491290789991,33.56001294615813,15.904859741572958,6.446947073780174,10.055032827703503,19.925047564575596,25.93527629816178,23.536659156787955,14.070803221237146,-1.0743193510210898,-21.65710949749831,-42.06172071414192,-58.96852280608549,-79.97555914555694,-97.8940303457383,-82.14090308968485,-23.581124453252198,40.77249466208034,72.29497554183219,71.96782003350555,62.117128704902996,52.93286714073592,40.35081671540058,23.287497062933173,10.09689414758932,9.69382165050889,19.999260568516007,29.675267388444205,28.762645854486927,15.22621122177987,-4.926601893033554,-24.755218216580303,-42.077209069711834,-57.389850520589896,-75.1462389590249,-99.68333635118952,-114.76140447281742,-89.68538921634624,-26.82793531300237,33.51536450602037,62.29915038962026,64.733185590407,58.46920652110053,50.77096108561693,39.3796207699271,23.13362871705398,9.586958205087843,10.100351172516847,24.756313686463834,39.382103825882716,41.066388732093195,30.26145713735217,15.877278259948854,2.849837993476305,-11.7063367859527,-30.6990971665294,-49.51279259846687,-61.81790560499581,-72.51843039060324,-91.37050032544387,-109.00899963015338,-95.42629463068866,-40.59757556021412,23.301056885144668,60.85605007873336,68.02325589198931,61.01028716122324,51.427378532101955,38.759027364922574,24.03987770884491,17.116251205596317,72.0,121.0,81.0
-1.4299221194221245,-19.407925032375672,-37.72120764622605,-53.76733455501874,-71.02002341161717,-88.27933657455372,-82.91177774122845,-37.67063280117286,24.34565698700628,65.96124451366494,76.03770887402037,66.55144809504786,48.710396145105506,24.71916189968771,1.4501826405171356,-10.451115210770263,-8.828616965975804,2.4060626467301436,15.904062129013212,22.91512988825547,20.204194476810965,10.352953707683733,-4.5281535248128595,-21.892843442787694,-39.076810590270014,-56.42844149412723,-76.0549732752482,-88.89264271659216,-71.47774167162034,-17.79640962770073,42.71150704218365,78.21127586876625,83.83856708751674,69.74276383751389,44.31950234197,14.68472839065415,-8.840366456363421,-16.491196167508196,-6.576829786143124,10.552662986732605,20.563007548250503,19.117317891723417,10.049690152711957,-4.11006180034364,-19.902522640156924,-33.44281810924127,-46.818486675860406,-65.21276095291509,-84.49280497269662,-79.45035515070377,-33.10131298781045,31.03987456691011,75.0903294253063,84.68582451709666,71.68401400110596,49.59205585703081,22.154173882488415,-2.2125632714203496,-10.708023424950067,-3.4339983570291115,9.532203942630627,21.096700731525065,25.372457042718715,16.66269465065461,-1.1627447057614437,-19.40720272637614,-35.07410260777502,-51.924099086071834,-74.28737858367332,-89.99314763909828,-71.174823344082,-13.50161140139501,47.02073662580402,75.83432672228383,72.86057916929894,56.86783575420117,38.74661360704191,18.458348154720603,-1.4083789352825393,-9.603065791543369,0.23302267738552052,16.777296011481535,23.269291699674703,16.101709684375816,3.324537940033022,-9.691119839434055,-25.249025816332395,-45.56725504405453,-70.27057086182536,-93.6436287669703,-94.46473746736632,-53.1291324223317,11.214794142523441,59.969504834305496,77.92890964069605,72.09171531283557,54.769436791788706,35.87986836588004,17.076393068866526,0.15303096903899877,-5.197832760041602,5.455417495194389,19.38577160185086,22.177693510258422,13.042379171089857,-1.775156052721596,-18.46701502908345,-36.05727315981664,-57.91164770916938,-85.21349477053558,-101.26010995919955,-78.80685323856592,-19.04191725545515,40.38362888879475,68.63955646457504,68.90633624799274,58.87374758909108,45.6151572084632,28.240195446003767,11.904343471847277,6.2525320476083905,12.75673710188144,22.400365037519734,26.11933773525493,21.413587737583853,10.29343814397876,-6.569912626976697,-27.94203404603007,-47.07324412860455,-64.35388676829986,-86.61172781910484,-98.10509467476992,-68.68474678866549,-3.3445616856669553,54.01763841017632,74.52102033108594,69.26193976603612,59.44193035773973,49.886477568827004,35.65309784558939,18.577399832106384,8.492389607848791,11.99052098213132,23.405995770408833,30.76690345625233,26.000553481577867,9.707589329820713,-10.870085983767982,-30.030207032377966,-46.618597808249476,-61.939463407567715,-81.68864320383243,-106.4484102803842,-112.54129255110927,-73.97851822330028,-7.221192829631112,45.418682608316516,64.87961624540112,63.22420518539539,56.40241361025792,48.02044451695664,35.042381387679754,18.388414304134912,7.9571502176595885,13.329731273352056,29.74108735837076,41.45691183257757,38.8772765452707,26.098246013683877,11.98135092951864,-0.9697023870849113,-16.78449735258688,-36.52949885121423,-53.793899147871144,-64.54322315465575,-76.98950958323255,-97.75259285177566,-109.55083614755955,-83.04853525719666,-21.080800770509875,37.680072681181585,65.47825367761777,66.68350154385438,58.369603734260814,48.21158859050285,34.410964961964595,20.704540256600982,18.033122673317425,31.083556373524132,48.904376604823085,57.54932856147207,55.29397810784448,47.65585332912236,39.75207253205946,31.3764983092576,19.737084469847996,5.856163016039922,-7.3272526803023394,-17.543839310565648,-24.681685763921926,-32.43715611218738,-44.6425906122424,-59.181898357875205,-69.82328594030442,-77.9091424999905,-91.53775048753567,-107.62311504428963,-101.89452877525535,-54.209239855801904,15.433521699236238,64.38530861604774,74.34891290971842,61.647381744097494,45.91520078927954,28.921221106828437,11.1347567560405,2.4316568494967865,9.374512697578101,25.760652768552738,40.398996992896784,47.92859384143493,47.882231391797966,40.57761857848596,26.843079738032678,10.646885701268486,-3.3902159170187702,-14.353629230648988,-23.71008396949376,-32.3142903610111,-39.173202543791206,-43.42297751341108,-45.581707298958776,-51.43222623262084,-64.88518388663334,-71.92136618484754,-47.81523101491617,6.735139375428194,59.059504808376126,81.56966506113956,72.0108755188761,47.053688511301395,24.81124857328341,9.175261414073661,-1.923720712663411,-4.216679464662003,5.328392632698569,21.124367088622765,32.76887785455818,34.20051210081292,26.12113423210323,72.0,121.0,81.0
