-16.393610648316606,-1355.4407820891404,-1804.1047440932434,-1589.9299155362019,-1350.1920265509973,-1247.6624902183996,-1147.3726575652763,-1007.823659203467,-879.8800447411196,-782.0773818290122,-696.1316346590527,-608.2963419664416,-519.8920229644809,-437.014060677649,-358.9172510749376,-280.0134409509859,-201.59875830432568,-131.99610003166006,-75.04598138482866,-24.839237774911567,22.781966942372346,65.05918144379044,100.11816945368514,127.9217963160687,148.54163738539972,162.83971867489137,173.88987851458845,189.79125098018392,218.24784925720718,255.7884452168579,288.8976174837949,306.1359723823688,307.148653160043,296.9075044223415,280.946264996753,263.4886288880826,246.27443054871495,230.02666098647094,215.10971430183804,201.40500765087134,187.8586559504738,172.0484542150238,152.41223261805865,130.49154954070139,107.45285682516473,83.17063624176234,56.23057900141208,26.39104603922621,-0.8135818834200865,-21.51889143857097,-39.93559121399725,-61.89912801068218,-84.0100963953347,-93.13369972499248,-80.9956783404081,-56.586049946637985,-37.587351791047425,-31.648267181243504,-36.25542842714501,-46.17774116866436,-56.91421140800205,-66.56209511616973,-72.71253111609717,-72.83639812757858,-67.77434583131473,-62.27748193199042,-60.10776218443473,-60.87655573135188,-62.21391993101421,-63.005553871338336,-63.06414517399543,-63.4813889754133,-66.8635868909419,-72.0755889504319,-73.99816249397543,-72.34548543549197,-73.62335182030642,-79.38237254128829,-77.91920721934969,-57.49150427915292,-22.672771113972665,11.229432367423673,31.817596346577872,37.9640262695013,36.79409053451287,34.478585216091595,33.37507022364566,33.50481577380373,34.50195030591227,38.064083214319254,45.345128169807246,52.59058413401421,55.75039856692261,54.53840299721894,49.42858159077445,40.67295252227158,31.83679446203965,25.512321177949545,18.07195333415323,8.303742862329367,-0.7292892708916631,-8.34134161154063,-18.0789922144084,-32.59165175497894,-44.18108606006118,-38.88460801329201,-14.290500456917027,15.795008088598854,36.85653333350567,44.53917486023723,41.184451265733514,31.898109786832464,21.99412260742062,13.724395631269124,8.264193075792369,8.461296203257806,13.933211140090936,19.443828846520727,20.266325417108693,16.4573100297053,10.096969478608509,3.3671989657677606,-2.9260258800063386,-11.696615380247488,-22.11575834095335,-28.639661604509854,-31.482397038233582,-35.25666331558039,-43.41326778353947,-54.76468149198972,-62.06791512792759,-56.630218099866,-35.255622787408704,-4.959953007687581,19.862551928816938,28.865180551015364,25.410857098256148,20.902129332650574,20.358152693615732,18.8218530288592,13.360641419531056,9.307802556440768,11.698298434866377,18.382006010786416,24.635210489424626,26.05565441576776,20.994767935765367,11.816540153393099,2.247269952359448,-5.298802466902931,-10.381545512435293,-14.282662067535217,-18.07252807455727,-23.879910921064308,-33.49964738203259,-44.60103378620373,-51.78585847350935,-50.509698592147814,-37.050037132408825,-11.311554504954861,17.528321084607473,36.08737642284694,38.88401558777511,32.147591717382966,25.647234264218525,22.192356961026857,18.31799001303705,14.034401657160677,14.488048178016019,21.721294621935034,31.481965531801706,36.553972930026,32.29479870255116,20.87871500839955,7.888679904075896,-2.7900192137790905,-9.420948847416597,-15.795439045375057,-26.043041595905468,-35.40245631854507,-38.507862066753624,-39.06460001366899,-44.32654997542861,-50.94589427926288,-44.221115441842684,-18.884291156588006,11.91648368046286,31.16522544291618,32.67554019148909,25.294546076726895,19.78178197045738,15.874334508265662,10.411906091146811,6.699932723875425,8.137602968292546,12.043226470812295,16.744085161906757,21.16479516726473,20.909740399757514,12.9172977158035,3.041629442727629,-0.9094811517771324,-3.0322284536405424,-11.091109986996134,-22.389580345350623,-29.68925754630219,-32.904135087212964,-38.51276558982494,-47.201790172588666,-48.191480490904766,-32.13820088306302,-4.1584262430391075,21.956409849301583,37.26475995536606,41.413597185939494,38.13589885206929,30.487470567619187,20.961431659093527,12.213397644754753,7.93812335128274,8.50417216092658,11.175263549320954,15.30771944788395,18.597363377776418,17.451649232048233,12.579622285785367,7.230969742721895,1.5062220993433955,-5.716974649443856,-13.360407761455406,-20.569385042463683,-27.42704416685096,-34.55994588098846,-44.07230781953782,-52.565785071958544,-48.643073338027634,-28.071100531294114,-1.5303899232556346,17.768722070023163,27.18312388012259,31.41938506046182,32.198123147758864,27.055404931685427,17.663921695490718,9.400407131835289,4.379176241938898,4.655853075038252,11.683948671790704,21.40922843229989,25.618631231766297,69.0,120.0,78.0
-73.41951181802658,-71.74506878995943,-65.99333029449559,-61.250871860339814,-60.13078344650035,-61.28997998349864,-62.51071030313064,-63.09481286545744,-63.0332795230008,-64.08004024575618,-68.39498638325371,-73.14912634684792,-73.66942877361129,-72.1153457944996,-75.11724150863988,-80.4232637375419,-74.10985308649563,-48.30818445263524,-12.07909810892713,18.837799586547195,34.83062261983732,38.02884388365034,36.07754864203286,34.00322150726763,33.31896306332752,33.67757463131417,35.14672616067416,39.86207358597019,47.6850409453828,53.99595183856249,55.80909092642807,53.47249698135744,47.199027804704414,37.8969202572022,29.83327028453316,23.66289394476573,15.372614604184003,5.501560130790227,-2.9858147685363674,-10.71575821229944,-21.871227988729817,-36.88217835595588,-44.848563980210976,-33.37532523298786,-5.364755182236419,23.18914926491662,40.426049861374004,44.51060459030535,38.85164982951976,28.924090509838194,19.419612887754877,11.739832727769368,7.645734276952341,9.670819960147902,15.798307578008618,20.252877890511197,19.546936354851596,14.7938602846039,8.089760426734376,1.583112662923685,-5.076777863801594,-14.793377156896714,-24.549244241883127,-29.652529555619278,-32.27483833916811,-37.09578950659647,-46.58682591216665,-57.71032997046853,-62.10467355011918,-51.9938625728863,-26.84493019321844,3.4254537528833335,24.224206673719713,28.667730435548904,23.767097324231592,20.43586199806742,20.30696115181547,17.534073860896573,11.708977323189782,9.307567394706188,13.398559013597177,20.4411851341222,25.696318575633786,25.2192861897056,18.592911349269144,8.9529147942937,-0.20401572666642723,-6.978993516393317,-11.57329699931245,-15.334300839504225,-19.41272388199908,-26.27955042813177,-36.770950396828724,-47.31711063690308,-52.452377672548224,-48.01302076356774,-30.65644290726275,-2.6798329543858608,24.42483146462247,38.42888860591341,37.44191340294163,29.934840464168712,24.448474988339736,21.255981591382458,16.932579281130195,13.463444468812238,15.96459983428466,24.58870289655694,33.73425302371878,36.3249436504857,29.477864395023918,17.0815070804728,4.427330483932168,-5.079098550638969,-10.993575952709273,-18.39846083937156,-29.198798004146184,-36.962371763889934,-38.561335117488305,-39.93843404815448,-46.66540120528141,-50.98447105022812,-38.50323225048478,-9.710254786469608,19.234113870926357,33.27254161864207,30.838278698196685,23.306394549012143,18.709083102519607,14.435201527794108,8.900300023076166,6.624591309505097,9.165017676242938,13.31502672901923,18.189051036750627,21.80962064946567,19.33534304870687,9.78804352606876,1.2116219564362554,-1.2600287545397197,-4.640423714562444,-14.387832729494278,-25.101113795074475,-30.801005713084386,-34.010748738446146,-41.022683797206305,-48.87844904608205,-45.38802236580105,-24.6954360493423,4.142824644205794,27.649020783724634,39.462625343897145,41.07041643833273,36.261240763670955,27.824420922166706,18.20317727836622,10.38027292682569,7.742076205283354,9.115861125755885,12.252915814070985,16.52840091230453,18.804697250979707,16.264029591131695,11.003093568293624,5.691111550431086,-0.43514525299296086,-7.9552945110183035,-15.482850193711032,-22.58889913786911,-29.37589230904759,-37.01192670846733,-47.07165337728453,-53.18065270738317,-44.17883562787115,-20.31316715366223,5.141300822745468,21.340135452193355,28.738971795056266,32.088012674172006,31.39306116158579,24.523601442802455,15.001298399102351,7.565085501372682,3.7874169752030924,6.046775216360598,14.548501598092507,23.552333572850827,24.894734801457897,16.70317805553142,7.270283571013294,2.649019507651878,-2.4873517409749186,-12.124958773632734,-20.692640987568886,-24.90579716358032,-28.387335351173984,-34.359133752315174,-42.75026602242676,-49.93395065060271,-46.92507921856228,-26.99004162412426,3.5231425152198934,30.34460960277455,44.14109242450416,44.393783416561014,34.27238795714122,20.091162922450273,9.980347184356566,5.801243764442015,5.236381798933508,7.233654090516839,11.377584292401394,15.713127948931042,17.55195720159787,15.401594269637362,9.995315036652052,4.766903185904265,1.5280134182369587,-3.680582206646106,-12.81634934128386,-21.538354757836615,-26.040056754327132,-28.57875741281499,-35.826807522712635,-46.534009102887396,-47.07353525969027,-27.815627878240225,2.2752670848607695,26.37040983457924,37.39791204542048,37.884392342851605,30.26684138286627,17.363457029482202,6.4070195706512285,1.3332099928382033,0.7106816241063629,3.359819380626605,9.627930488226742,16.933861268435212,19.21668904982289,14.381835634543643,7.477136074521534,2.2219294476924,-2.0924942946013845,-6.333642238841075,-12.871224918391244,-21.630528342120225,-28.319453337696633,-32.31927567502862,-37.05817477010028,69.0,120.0,78.0
-26.53132956497013,-30.44815993411887,-33.263810706162275,-39.363205930797626,-49.936751140938014,-60.08985650998182,-60.88304947663287,-46.02578964869906,-17.971126882653785,10.967998679623793,27.11206505501727,27.663250820442926,22.32886994611867,20.29882370050918,19.985169761920744,15.935287044168229,10.372718210739857,9.904288909578941,15.342515383049623,22.352012834449216,26.251614604637147,23.843894305862243,15.939282837008605,6.140879717196935,-2.4424461859365785,-8.466967067949144,-12.7041283640458,-16.394929705658285,-20.998273613989802,-29.01471646923316,-40.06142861805915,-49.56441475167818,-52.324308410645266,-44.40090487880129,-23.304012682055333,5.887232590277699,30.14922188593337,39.442885473808786,35.45677087672556,27.957475153485387,23.470378869457853,20.177066484197763,15.591209026600666,13.433329294957126,17.99221595237222,27.509734085544956,35.41170793779787,35.25429776216059,26.193152341347776,13.278333892440854,1.2405803010250565,-7.016628129344555,-12.712312397311084,-21.362149313188628,-32.069764675039124,-37.93573676847561,-38.59221836143996,-41.36432874661721,-48.8662957727027,-49.498662971039764,-31.30658538992262,-0.5389003119263382,25.213494946008854,33.90204767595727,28.606355662424225,21.655688307002723,17.64602698586977,12.835336761700697,7.688251350318929,6.9969044606474435,10.292105631578433,14.660709709091675,19.554863031491674,21.924054719825232,17.089999970769117,6.7596966577751925,-0.0005953017640931906,-1.703791994810988,-6.873411130807285,-17.764091776407817,-27.327264596590865,-31.669146994090948,-35.50977344852192,-43.67817000932411,-49.561232942393744,-41.02929932511696,-16.547518567378614,11.942295795844947,32.31021536499452,40.79606385956077,40.20326079084461,34.084244903144416,25.0617215500186,15.580755798570676,9.024027326514124,7.885278482664812,9.854256913811474,13.451377193152869,17.583587023215323,18.56576424438945,14.847440096059175,9.45333365830003,4.079631918758743,-2.5130288669531424,-10.180492960013293,-17.569706919778554,-24.57589896217533,-31.380072520020427,-39.7299529602914,-49.78941300379361,-52.44351934516186,-38.37103951811824,-12.448090580293897,10.952201209642961,24.147362857913215,30.00011581433461,32.440634145428824,30.018697091200547,21.763321663553807,12.547533749304598,6.016967117822724,3.7135921342786893,8.005129115302962,17.474750386669967,25.01359308500893,23.290123612630424,13.632445482558492,5.5029684086732145,1.5814540864751798,-4.9293484477646095,-15.024283168475778,-22.268425435405273,-25.78321116222217,-29.80500048461418,-36.60662206216193,-45.252729413633745,-50.580342388446525,-42.900418401673804,-18.659268797381156,12.244202268615776,35.825846431589824,45.493498988299635,42.346903555765365,30.194243515013433,16.5117204710855,8.258461741193996,5.349625867345937,5.558873248157926,8.256418947930328,12.739704594702275,16.59743752032495,17.36064138040407,14.063802183485063,8.28824551407004,3.7135709674293547,0.44911639317918656,-6.0303328159579435,-15.623925986245656,-23.313268006042257,-26.691263514196926,-29.969667262369565,-39.0075456217634,-48.4378866524566,-43.507348231731285,-19.447234458319528,10.431118233107625,30.88007163798023,38.44963380511804,36.477276583219734,26.80719587023607,13.6883929810333,4.3430294639539255,0.7962279545633411,1.1248586417999973,4.817327377889854,11.875377408897963,18.356376772356096,18.41914049322657,12.322337207826294,5.783545919106856,0.9193839607837019,-3.258187571997833,-7.872744557087585,-15.34279342513466,-23.92978363193387,-29.618196067668663,-33.49441341302298,-38.62560597652138,-40.838323453676374,-30.596464325976577,-7.838975345460069,16.167873004016677,32.50308557326161,39.05402035662204,36.5438510515409,27.619018050104497,17.30591078296598,8.117437304488815,0.6874263427558164,-1.675442039154984,2.9089475655619172,10.340266128574058,13.56094588976314,11.282937808421499,8.224504271581825,6.222147112101749,1.7401234586465912,-7.741204519712046,-18.588407109979133,-25.185156265184027,-29.9280155254781,-37.81608219075302,-44.809772359784134,-41.8100562123389,-24.453512040622723,1.548611443943864,24.20736762290422,35.429362317886145,35.772602707069595,29.70918771797458,20.064451477185067,10.4576642215317,6.4223180909006645,7.8133230728304275,10.709691816528455,14.083239566569928,16.785280321259947,17.36639203321063,15.362056379065725,10.60847362496622,4.350824456682247,-3.282566480948505,-13.838836550598193,-24.319689062382736,-31.435213089924186,-37.54930694994892,-45.403831965383624,-50.17652425214081,-42.63728265917918,-20.4793777395159,7.316489367013821,27.92973763596707,36.66189598395184,36.7272847376702,31.52092377942488,23.06855534722021,13.968038918813969,6.346936559415639,3.173499761885174,7.618602301966858,69.0,120.0,78.0
29.658144434429015,33.289618580063824,26.306232912638755,20.31867777127525,16.473346972799547,11.16685378117842,6.900192757355125,7.71922105505684,11.478312114746574,16.076259473244903,20.72659001450454,21.39294711480805,14.315266183590683,4.093305824475475,-0.7026041691224982,-2.49522118650492,-9.660623354730703,-20.998946306039294,-29.050699975779768,-32.486904050917836,-37.465495906925405,-46.187676258879556,-48.96028540982592,-35.23273224548725,-8.072871698903727,19.000860899777276,35.93325470136237,41.37295450074737,38.88126669761528,31.666575545076352,22.25430650661663,13.19917494108325,8.170103558152789,8.268510498288773,10.725739596823741,14.72020369155961,18.360502936221494,17.89280135962518,13.306863204737219,7.930839662537746,2.3510447755846564,-4.691841259450122,-12.367461310636424,-19.628736547890252,-26.53171891354061,-33.51217426624915,-42.67334478515689,-51.89537001872472,-50.19890732464804,-31.499076591730507,-4.852806060177209,15.831045194787041,26.338276585999594,31.02429241367422,32.3861685131983,28.100007343522535,18.943147771729784,10.335322283624649,4.805556301952449,4.218511334422652,10.438949855405687,20.24599214668914,25.638527400257654,20.95097371390759,10.747383777205592,4.170236675387494,0.24335921287087312,-7.73759671186967,-17.62846018014968,-23.497145512567645,-26.722528314771232,-31.475016854152724,-39.0318363437441,-47.52255054594765,-50.09890516695953,-37.38715521209694,-9.746164337389452,20.295189289332132,40.089306455578914,45.770133013303315,39.517395452345745,25.985398441734972,13.448378205842213,6.991197681685842,5.142995851295972,6.089270645306648,9.444834407999329,14.0474589327377,17.21412357092566,16.814422744980373,12.498246020090443,6.706224828527559,2.816386794242605,-0.9421007097091717,-8.678544439841051,-18.25105461091067,-24.680223393756354,-27.30969549938169,-31.93111666448677,-42.300245132674355,-49.067914638026764,-38.200140691138685,-10.585150310233134,17.702279627144133,34.26921451939637,38.73102244462807,34.407032409878084,23.027137595855095,10.376002327494314,2.7913334812654194,0.5666935700526511,1.8119091985431888,6.588515079955378,14.095286178587559,19.19426231259126,17.060543228417096,10.263610876070828,4.252090976598631,-0.3356501267376551,-4.4373402753721916,-9.688433596522636,-17.929641831616845,-25.941008728099156,-30.746700943972417,-34.83099959778247,-40.00119792913004,-39.45521892263544,-24.91823171349693,-0.48809311056190685,21.864868573669458,35.39359513862642,39.197414908668975,34.42056122502538,24.579669560019354,14.53405137413499,5.690128949222756,-0.6850993793278644,-1.0089350999478859,5.094480580899682,11.927410905385972,13.308407239452363,10.269260364879814,7.632641085365948,5.376968640045775,-0.5148780945698994,-11.044967765781758,-21.022008783536172,-26.429020912329186,-31.86670581475503,-40.32493635273261,-45.32592929088283,-38.21596641433037,-17.33709284636566,8.952968935631782,28.75224465584393,36.45211674594113,34.512092513937766,27.195307611866717,17.0264833152012,8.561696173055338,6.461938070201902,8.594130189626766,11.649158533834589,15.019932058344047,17.198688693020824,17.07340813519241,14.244988725985143,8.88336189650625,2.377275624974999,-6.052140517155104,-17.109886378079725,-26.714926674810833,-33.107734781563174,-39.67199291914061,-47.52536207040139,-49.574552506610324,-37.540886360397295,-12.410525073887134,14.431573828660127,31.610799583234513,37.37492976786337,35.674360433573746,29.30847597472692,20.390714332736938,11.534759514758418,4.770860735602252,3.686866837323366,9.887681368861374,16.878964617889732,18.45800842136799,13.801692987921163,5.630300634999685,-1.6767261014811377,-8.279101584443012,-17.223488012692343,-26.907505779199973,-35.062968669897565,-43.4039409692881,-51.94697867721373,-53.08198728023762,-39.64662271849178,-14.325545437104921,13.290683031551401,33.261225713044226,40.374681885909105,36.94814702545346,30.071093748576033,25.262251361712813,21.430530323123538,17.778071080935508,18.275016550759105,23.06079678343974,27.727270093729405,28.490836652499056,24.092708352898455,15.87461395065155,6.329344196756746,-3.5927627610593023,-15.088369486318733,-26.713980134933166,-35.99945426643118,-44.1630868359114,-55.37075702603519,-68.33289395894018,-69.60327174005747,-48.47289097961416,-15.419279969882528,11.585108340789896,26.756397858594802,33.072685318989365,35.514638329251945,36.17930256119923,32.44091611465092,25.79705511562637,22.10426912422989,22.858963505891374,26.747678084957215,31.01644873824253,31.879370330074,28.57130723955626,21.835789497072536,12.206604215010424,1.1375195785709233,-9.067307811959177,-19.380015475156846,-31.296113789812395,-42.82715359621219,-53.10862962789383,-64.66767802782314,-74.64236098244135,69.0,120.0,78.0
25.34317104346453,18.107168771469528,8.254571707690175,3.1078451129570315,-1.5155956291886887,-10.736449823866764,-19.826699810893754,-24.49146173026269,-27.814349024627592,-33.39463927656349,-41.56935437670072,-49.32974336973296,-48.26686945306831,-30.533946775213803,-0.6366825057214223,27.42194280473813,43.135630590024846,45.04466656441295,36.042883904576186,21.88506351311924,10.947013495501349,6.102582094588035,5.1580046646179945,6.82601953492178,10.752147395300137,15.228967606417562,17.522330700659804,15.922194614489992,10.796417306970607,5.325594132874954,1.9546016644455526,-2.722909483402331,-11.498634921058635,-20.584590427184903,-25.678912523977854,-28.09988983591464,-34.47910965642256,-45.33616429005257,-48.10796628765555,-31.37687201269277,-1.7038773576301205,23.900305632026058,36.62733527633848,38.307702287642236,31.704928843171015,19.13533508832232,7.5385573365840886,1.6996263973259425,0.6064608116329383,2.7979039238351766,8.624022501941312,16.11722044042811,19.366849869372494,15.28923497225066,8.318225049824674,2.842653073177282,-1.5472400502806456,-5.699704048373347,-11.8031787357053,-20.49379603289839,-27.63756839151299,-31.81541663894544,-36.33085424605887,-40.91815234473113,-36.80300180707108,-18.353966265146724,6.63818684681305,26.786464134030826,37.46350012572863,38.60984532212691,31.85735018907475,21.5577221313651,11.862293941280473,3.443458740583554,-1.527879323106242,0.24053618505487054,7.348741738919144,13.000033417395008,12.655535857244198,9.333267809196984,7.102881537664443,4.205734043074964,-3.207314311211722,-14.298583737778214,-22.994462830830507,-27.691346352833317,-34.1350306700162,-42.55801523883211,-44.78152527185248,-33.39950792572569,-9.741490871220456,15.765831000210934,32.22745842215803,36.66112645387052,32.823828701926956,24.42430909319784,14.119053378779872,7.261186342717879,6.857418916806281,9.423623114300852,12.631646428802208,15.850160964451835,17.414818844812405,16.554280605152666,12.901219385653151,7.082942293594989,0.24993122677911472,-9.091632987856784,-20.23546114328383,-28.79974535111629,-34.80873184930403,-41.97068958315908,-49.17199686779295,-47.72873651442017,-31.272648677972484,-4.198953328121747,20.662555049293477,34.30019755028416,37.48190664447058,34.23582708384427,26.87564805575787,17.728403421323087,9.259328934924142,3.6735715954381734,4.883644788439588,12.21104597845422,18.00690284380346,17.696686226616894,11.59838233865443,3.300086672711021,-3.4854371830154443,-10.593635038557402,-20.10691351283295,-29.412656269101774,-37.33059798623587,-46.05507432607739,-53.48586629048591,-50.779902721624715,-33.1962354340155,-6.101925691442089,20.205768617983242,36.67653906848996,40.197017086573645,34.97756906180708,28.392452103017494,24.207753836007722,20.210847407248057,17.353566106595547,19.379297132105055,24.628177617016277,28.457987983836144,27.732125434683493,22.00707338397638,13.147860655039302,3.5530473260779036,-6.741932293010959,-18.574524912348522,-29.675909487214913,-38.30293436939921,-46.93602620985426,-59.32568969429212,-70.66042431358976,-65.76447099606465,-39.236925983010046,-6.47007828113872,17.13246775131521,29.279466923260653,33.970676135730926,35.96570470578318,35.64740521825048,30.548474342497254,24.250508434142315,21.914126886407313,23.732652002999306,28.131559022190785,31.716061526348373,31.32091105929452,26.947703286902062,19.32614379419854,9.036062539984922,-1.939906585956696,-11.910175870605377,-22.69736964783157,-34.782696783063614,-45.843662905388435,-56.23406103664041,-68.14473023173983,-75.5169777621095,-65.33110844826099,-35.19713311264393,-1.4995073331335202,19.760261383121293,29.19982454538651,33.99188922874441,35.74974165120107,31.636804094473092,23.831774979541343,19.657493351496967,22.58760576156419,29.00542764274578,33.1156588771983,32.86133345507051,30.596686553947215,28.212639899650902,24.047868222624654,15.504098429633286,3.817151622413426,-7.073340405543933,-16.680925684421037,-27.606521257308785,-40.25471376976051,-52.078122835040745,-63.16241299471714,-72.05372305530209,-68.16721806253929,-42.66911756322845,-6.131577338808559,20.4208082792525,29.839262056450785,32.042997617818486,34.854882141979594,34.54893392680308,27.133144959537926,18.849373367260174,17.642555919271363,22.684412263830467,29.783591462015018,35.55137191238802,35.74713777463599,30.021656164989338,22.67199972117088,14.44738598747074,2.4939847706035363,-13.016582312267253,-28.36721738906114,-39.56884792853668,-46.406767261901635,-53.02800948089857,-64.02273471552624,-73.0842053189759,-65.23966168297088,-37.264555642562,-2.6310320075414877,23.082611970376107,34.167694006001874,35.879175591354496,33.34940612886218,27.314234850994705,20.207278952572885,19.124996425674382,69.0,120.0,78.0
-37.91255249683334,-41.08746997797888,-32.842891307135055,-11.222972865471784,13.301469463136351,30.890722832312303,38.73227534592728,37.33976695008385,28.997246634040817,18.62179575737693,9.277881305157909,1.472909294908883,-1.7731722643258696,1.979938951814656,9.464748696813647,13.510925277624283,11.745993151351893,8.53913942672998,6.5319896803729645,2.623056230990861,-6.253781387481501,-17.317838484579752,-24.5623398516333,-29.152081246095136,-36.63273586684335,-44.26626098585153,-43.03878885576223,-27.491037815014273,-1.9884147435240338,21.762984889884375,34.649410356197095,36.18703617421054,30.76817318783833,21.465076655846655,11.51297219611651,6.5600448061921215,7.47977457633576,10.293366323075816,13.629885220256297,16.530602328101832,17.429216170690825,15.795124080191872,11.366861013048938,5.227535477389329,-2.10444888475991,-12.320477709243193,-23.103495936348757,-30.641158096372948,-36.640804005159076,-44.337658240332054,-50.077538639475335,-44.55297261219268,-24.050855026838356,3.7953135672557288,25.880265892890275,36.099324033181546,37.071657512071404,32.44975318795469,24.291236713676614,15.132077055281023,7.200159361882528,3.1755410996004176,6.6561879510972615,14.36931116158391,18.595314811181606,16.430733664856614,9.20308163066543,1.147681108675355,-5.320468747719845,-13.153876831376072,-22.957640889597347,-31.769092349377356,-39.697957150426404,-48.65805973717178,-54.144964034971814,-47.15918389213469,-25.921857947822442,2.0467441916542537,26.25974650079754,38.95766863978853,39.26860777260289,32.915430218530325,26.971836499961377,23.13374934455158,19.058763382300363,17.386973318086525,20.770447570786775,26.064207314458766,28.790890549405297,26.539558313590284,19.655053915929177,10.378555605948707,0.729496973582821,-10.050943937163419,-21.995054896333993,-32.3980022082093,-40.59151016980072,-50.081074791209055,-63.28663356383293,-71.56371706819054,-59.94436838638784,-29.496255981596946,1.6082785703492084,21.691778953199226,31.17203263567519,34.677484094500315,36.25437355672073,34.65798354954201,28.545103940975327,23.08110112495385,22.072821819570354,24.83794212476971,29.44898676160143,32.05404551494371,30.429363440494157,25.05716158615584,16.58139478786694,5.8056299512205936,-4.898122275212628,-14.835851786345659,-26.14862345272263,-38.161414117795545,-48.77820819712571,-59.551948351928125,-71.30634216892923,-74.85023208261714,-58.23895920919819,-24.86129557172498,6.192089119122199,23.365767251217267,30.833082138353475,34.93555922464562,35.224317049297106,29.46587974304087,21.954199734838394,19.824061268941737,24.356972048664886,30.62871896820326,33.43754674780728,32.2747873277804,29.925564286081215,27.336770347629773,22.074775803288382,12.270802656975146,0.468203782144357,-9.883534676368281,-19.596404459619013,-31.18951317273092,-43.827215072653466,-55.291223881385,-66.24892521677958,-72.86568456653,-62.98140427805992,-32.28766006526693,3.301571192983042,24.656868235772258,30.655912245935998,32.775541262902365,35.41181945112538,33.05176432570196,24.3685328007103,17.63522880734474,18.668368834288906,24.66118874871314,31.77574046093356,36.32260110344895,34.543671886089726,27.898928460220482,20.51423451853034,11.455004395147153,-1.7366242375389824,-17.683010555063955,-32.125916727013376,-41.89231213360698,-48.059688436781194,-55.74369730956079,-67.48686765929916,-73.08795355933981,-58.83864566734801,-27.16635779707117,6.22810775082104,27.685474788020585,35.30236953354194,35.498762478746904,31.9581545519502,25.110088119725923,18.96647030125448,20.56283743480159,29.05642938392723,36.00043343932206,37.212048282784934,35.53485622043733,32.83258876997757,27.086397476229592,18.066167753077625,6.8551872548796675,-5.587769173089081,-15.700160847812949,-22.310094289259826,-29.32714614977615,-39.57894804921466,-52.776361285399304,-67.77245865671587,-78.62075422966335,-72.92690399117768,-45.93765256748794,-9.037836085266381,19.792401748894665,31.949262954718282,32.7090318525658,31.51613314125441,30.44204966292846,25.248874475497992,19.228626864963278,22.286216512326483,34.0748539335509,42.65754212333529,41.76393805675626,35.28185376886884,28.06496200093435,22.272253692631576,17.066169923828177,9.856891342306708,-1.0294655324850184,-13.965319184648525,-26.299637928534178,-36.614604075032396,-44.95078842186947,-53.77538935530103,-65.05153887022156,-72.10859280998469,-61.98492983263614,-33.63690182718551,-2.337550057678225,19.741692461275747,32.61438059627026,39.04823693542471,37.230599850706,28.29877202079877,20.08572285338088,17.941396001288528,19.53116379774265,21.340143052228463,24.134087461487127,29.331741375608782,32.6376965337927,28.02442177582561,16.46633334135832,3.9705837666791504,-5.303598219548251,69.0,120.0,78.0
8.820489643307747,16.188722258821713,18.628606023720902,14.718713447321804,6.74765500445698,-0.819240739574228,-7.296270080476174,-15.909852479022513,-25.696516415160367,-34.0307400570131,-42.204581101760695,-51.01268020660518,-53.70231872995012,-42.282577858452825,-18.068680436840996,9.864377872018398,31.304043692199645,40.15791723690572,37.77403476453134,30.92715052379575,25.768102145775032,21.985030326860823,18.109797495810984,17.892805471168323,22.324509041758432,27.271115554068068,28.689237331681543,24.947949048519263,17.10121426341872,7.605769278653524,-2.1960903837262955,-13.482589409156157,-25.27052841540991,-34.90271210135508,-42.98741239159636,-53.62134222183024,-66.90052317935582,-70.68005358547555,-52.40966815951607,-19.772211042265873,8.678625342524466,25.347476749355565,32.56310898849121,35.27084065121256,36.283047067205665,33.22671755218229,26.615753633874156,22.319656061871093,22.54463475114962,26.11930907065375,30.583393679268017,32.018819487727974,29.225691213630114,22.91016179740773,13.62714809584094,2.5934945113990935,-7.762452471884876,-17.906646068388437,-29.670076575598635,-41.39108613252339,-51.72129514404888,-63.03571866030041,-73.81176034448197,-72.38702664551509,-49.6155928300139,-14.788813650589034,12.601466859278167,26.155173993363416,32.24286764480662,35.57674124267265,34.13798283902282,27.124676218788775,20.574096302767856,20.59174455643122,26.27272142233318,31.9258264125323,33.40299314240148,31.605053394741585,29.262041318038445,26.233900852939247,19.686390613196842,8.861734207686592,-2.7219116468953994,-12.627613840991383,-22.697234457902155,-34.87424396664657,-47.26616600468661,-58.49373319509822,-69.05102630842192,-72.24788335127356,-55.8933709596468,-21.474528104451007,11.40219647742798,27.51482520847328,31.21494914712118,33.631928793147,35.51468875241845,30.945239053730973,21.789401929200974,17.14386047771212,20.10125246266956,26.73021499918073,33.5635625434144,36.52293418455662,32.90717091216868,25.764604706170154,18.225697604187328,8.085862148992403,-6.217050791888078,-22.21762240078859,-35.46259535811379,-43.8859491657169,-49.8463979891299,-58.90171146103756,-70.47654122825641,-71.30110756823778,-50.88991773788799,-16.943075180841774,14.003220325962694,31.069721644956516,35.84870532802016,34.83498160808853,30.261014688619063,22.92932402677425,18.43755672689361,22.637910553213302,31.573687519769692,36.894370445656385,36.849095943994506,34.91475647959406,31.568125947763768,24.74846022092075,15.039484134319796,3.2751201204460685,-8.921085025201126,-17.850287569211428,-24.098659054741976,-31.93324160675042,-43.12733660582056,-57.025635730142724,-71.83095181083698,-79.17956969849875,-67.09622817412748,-35.47791162524853,0.7877712985372725,25.000462561330476,32.8834532537271,32.26506637211862,31.370989992828427,29.462071053532007,23.146268711309666,18.873295505567473,25.23482023966052,37.4033549095101,43.320044474889286,40.2040253937867,33.122078159065865,26.229054415681947,20.80551523973602,15.313159590811374,7.0779124125637365,-4.688778934550313,-17.677186230220784,-29.52103029518686,-39.16695264922206,-47.290068208658454,-56.85138978200486,-68.10322052236961,-71.38523271492,-55.173205408034775,-24.12388791307618,5.17893426802783,24.221089143444992,35.143109690897674,39.47639680050067,35.109349199467715,25.47071733786735,18.82878955066776,18.224601696401212,20.088286753865034,21.920422367948753,25.452498371288737,30.806291542178336,32.247720590605596,25.150924470246608,12.705179501164713,0.8617893484552909,-7.232952395095031,-13.053773720704097,-21.11570334299407,-30.72764195679801,-38.20833747204502,-45.743578167534466,-56.684440411231655,-63.87342624563601,-54.095620697151595,-25.530127637750372,7.132485288103097,27.273059767400056,31.59403550767923,29.150864743617397,27.28126424566648,23.997905913339096,17.773052556831033,14.671582824365712,19.104559600529008,27.433384990249362,33.978328266529985,34.49293191073757,27.71690203664339,18.701658213450422,12.089906645911835,5.735213638115256,-2.865337709782576,-11.959822206265692,-20.585330712668025,-29.508428206599284,-38.86694141358363,-47.578567518373994,-55.87659851809734,-61.960648812493126,-56.69461411891518,-32.86029161385973,0.8008892951849672,24.806699760011934,30.97770273306677,28.49358894175126,26.788515979513594,25.94111336603408,22.3482051966054,17.641910023962694,18.472707619690684,25.994835736569176,33.58635051203758,35.866399632025704,31.821322694971208,23.664616092684618,14.408561321564797,6.016088193910041,-1.3424977253207417,-9.495154394894195,-20.49206162419927,-31.456869653873607,-38.162560204670044,-42.82896555753083,-50.321685148690804,-59.69438930453316,-62.16201220998525,-46.870027900227015,-15.61627131576727,69.0,120.0,78.0
-75.28614982405075,-67.9995379309324,-39.89863889500377,-5.454758977395891,17.76451764395976,28.341325493005062,33.480895566484975,35.808242268123465,32.5286011637502,24.822000929426537,19.79772624378926,21.86542180744209,28.174765258218617,32.834155053441116,33.08233996153418,30.912763681963177,28.564132148756652,24.82187784964413,16.903665773822606,5.3996170813726,-5.736991121089404,-15.383742217577435,-26.010267449660674,-38.57044111833427,-50.580798734456216,-61.69694600924893,-71.29764054412395,-69.89463365830991,-47.14896765661791,-10.827680399148612,17.946723409659892,29.29004262856298,31.756900025665697,34.49893569938493,35.01009708383255,28.395064345798616,19.64119257353098,17.3430667299544,21.821602585121894,28.827755244022676,35.0228984644592,36.12568312981565,30.973715370182667,23.648156731159936,15.708756904367348,4.339994215727518,-10.855116062018048,-26.502994835118827,-38.368890518255895,-45.64232657786964,-51.93077286161325,-62.377385343361105,-72.55325973405508,-67.59226583170302,-41.75797495027828,-7.008790686403362,20.52167478068835,33.397004489010754,35.95186192046931,33.886759711480806,28.29262199070994,20.973064387671858,18.718616631888644,25.140808329065145,33.732987718623335,37.29945578677449,36.357397316785494,34.200833498903364,29.983395839009628,22.174400420125444,11.838264380076094,-0.367861383946912,-11.942427607443893,-19.747784278788306,-26.043808878659352,-34.83786586386704,-46.89760843039937,-61.400561474639815,-75.3094884799482,-78.02255667546078,-59.52456616056321,-24.616486814695303,9.511649963410148,28.757280642093562,33.10768131698724,31.871253705707296,31.168379861566024,28.02559670619955,21.1914269870098,19.51727288503682,28.72684878738705,40.12698384748187,43.171960286891085,38.33035709775622,30.994571846663828,24.536262649232906,19.34102765814918,13.318506959431271,3.9786050347515878,-8.446949312366387,-21.284599743169203,-32.54954691136518,-41.57217149094366,-49.760856722098936,-60.14853821760111,-70.51598598362592,-68.90488120143256,-47.02788112490136,-14.831471901039919,11.757939665033234,28.03425227912142,37.163507708870334,39.127105376587636,32.50822614656427,22.935893641857835,18.128178710283716,18.70164085007532,20.604967259103105,22.65482704591197,26.973774119101634,31.947184777269484,31.079705089895388,21.815661362355446,9.01675779735994,-1.90563965464671,-8.939436998223298,-15.033097981697745,-23.937073321227064,-33.15378653760672,-40.133175252835095,-48.620839338161076,-59.75598166181563,-63.226545455181075,-47.36066538677188,-15.64680564337926,14.708657124184633,29.87686349664245,31.09676233850504,28.490476022777933,26.682318493952025,22.347470226450913,16.212651625174672,15.213155466339073,21.387448093162508,29.71562908431595,34.90256819895907,33.171660183415455,25.027344172953615,16.52382798342163,10.421522035987376,3.454489078874024,-5.539036817730752,-14.479446155775946,-23.09282936704841,-32.213694244898655,-41.47458845781905,-49.98794342285369,-58.13165387823819,-62.11757508686968,-51.688348496350365,-23.318145055884596,9.486179550423582,28.23380449093366,30.579379915720313,27.746083326467662,26.638845753879487,25.258801837896016,20.84015423868714,17.056643130359745,20.181689948360482,28.502712533033744,34.91210819257142,35.29397356875003,29.74656926509225,20.98739355365877,11.851929439431284,3.8228524676252023,-3.4835168606286584,-12.389462910684761,-23.91605293036618,-33.87773477664539,-39.46605771168916,-44.591996156825985,-53.08604083577614,-61.66492138292637,-59.852201956322084,-38.90910385571756,-5.882754714749569,21.737646162638267,35.78806731128761,40.09741734216026,38.13137398646497,30.444952394472928,20.547924158052478,13.227310997038721,12.0673447068288,16.68023876236456,23.755062992090462,30.11072873425178,31.745446417575295,25.900326365391404,15.33225845520943,5.189023988056393,-2.8591920518948832,-9.500099988107914,-15.902996749821286,-21.908433796779153,-27.08933275789984,-32.41965929966209,-39.57777554304169,-49.78850440689945,-58.695720998567914,-54.10208140897676,-29.44215988086167,3.768179917662781,26.402427610764487,31.590822171620964,28.49104762776604,26.39277618772093,22.530303619324222,13.290798090374857,7.16544859819834,11.736069116938854,20.294521222692307,24.551756663102758,25.55740004111484,25.349063781546082,22.54438330719274,16.780875041674364,10.035607433106392,3.2992017148803745,-4.222115308124149,-12.792476483963892,-20.801959646567443,-27.861787304640224,-35.02935404360409,-41.97310512437278,-48.9803156273128,-52.789461236101815,-43.60890460890915,-17.71582986308164,13.624335354425087,34.44241755623664,39.34794770002459,35.13097143711381,27.945514466123882,18.699974936390273,11.227827787966064,8.96792755043654,9.637535238810976,69.0,120.0,78.0
19.8103511894336,27.825910740830533,35.408311973480075,37.309226239648034,35.80348097038491,33.318360006271135,28.071733088416636,19.403499585330785,8.464194124272039,-3.972142072535445,-14.598887166279857,-21.508862566507347,-28.22647362295124,-38.02315043926722,-50.87595684529432,-65.79107089238703,-77.85845548022877,-74.98044837622132,-50.491790529881776,-13.844125367170447,16.886408321515546,31.204538569381356,32.890019772620896,31.600874575766937,30.749628861096973,26.188946456222403,19.68910754183919,21.19198420196018,32.41175897531584,42.05906669238559,42.337561018926735,36.26755468033389,28.96001026355521,22.965571062023656,17.812400693498116,11.02496332378157,0.6026735862775062,-12.230295284400075,-24.75411833153942,-35.377281339466855,-43.88998321816536,-52.44800121779672,-63.52767860319933,-71.91045540368435,-64.58141746974242,-37.98043862446563,-6.102992006073676,17.41929578469379,31.285248447264575,38.60483627495048,37.997371768298166,29.6433725774451,20.859443125107813,17.909583530680887,19.265378473000986,21.10227780109466,23.609482572140696,28.59334727755054,32.56909035815073,29.149492301605488,18.18982456982587,5.505865972564027,-4.311871948856738,-10.554645586296937,-17.30552773905426,-26.784771635252397,-35.33488894073263,-42.19858131705965,-51.81464993561763,-62.20459592415625,-60.84767274984471,-39.199799967211156,-5.904165597759756,20.90156728035386,31.252793054905464,30.325223864736277,27.967502426833995,25.833525330232256,20.489879659938495,15.125511127738802,16.408921770517818,23.842188248652935,31.729257225505133,35.22361056000577,31.26378919854723,22.3372103875827,14.598866231743571,8.657799317050946,0.9751787490771139,-8.186341690653274,-16.965323262881366,-25.652451271084814,-34.93778427153524,-44.00180224047472,-52.39371787107851,-60.101514147520334,-61.024531954355254,-45.05316158762919,-13.360441641379253,16.866290989390844,30.1884835866613,29.794534308322152,27.2106012669709,26.469901479813633,24.271889741071217,19.356517553993616,17.119316989429663,22.36242267024657,30.822246154708676,35.70810030982281,34.20761866682862,27.404913804874365,18.28752567970907,9.400164640757623,1.704120622484582,-5.76204371697718,-15.55034909443023,-27.19877941902047,-35.87567166651662,-40.73311294375397,-46.68831564379605,-55.90923234746629,-62.76841020345555,-55.822259191182596,-29.854315556819422,3.317793019139515,27.15170455337261,37.778984613937425,40.15610770273626,36.41708787537237,27.590162447534635,17.97108028730381,12.178770905295128,12.941010257546626,18.614098296491473,25.81808759260958,31.260964397302413,30.820620734391134,23.07934679542696,12.204906678188092,2.657406136178998,-4.864254052278942,-11.348679275022027,-17.718391710088078,-23.470850394478653,-28.548047608192093,-34.215262839943954,-42.23576130657627,-52.93793498488262,-59.3286277222684,-48.87395647116983,-19.837356508796447,12.06014402825472,29.504486038323286,30.96268532158563,27.67456352057245,25.794693520724593,20.254194454218332,10.644201910866332,7.433439119899635,14.318135056396708,22.070960261460318,25.006409296931487,25.649666141134766,24.87769136727694,21.118301472374384,14.84330910083655,8.104391092556648,1.2527504885361886,-6.6363048112919705,-15.240115629665018,-22.881682730854784,-29.916581955493836,-37.067558367915446,-43.98758789953719,-50.775831854906464,-51.89712970775663,-37.611991280951,-8.445426070294568,21.245726411237854,37.34524741117643,38.65896436906138,33.28564627938888,25.42039931487108,16.091121089186455,10.082261491527074,8.963151871239694,10.243691700161687,14.581927127888765,21.503330704365645,26.39720786058963,26.227409228947156,20.74809871973416,10.79254572180663,0.39616721986916975,-7.31983199001268,-14.278076033575752,-22.058918807574873,-28.545352347010397,-33.422265106764875,-40.43536375294699,-50.47189268485062,-58.09559616174494,-55.26371380063389,-36.9708115241242,-7.964126490463827,19.414555881302963,36.39597039664751,41.98701312025957,37.87565882056427,27.743529228548255,17.783464144532623,11.002114712905133,7.337152263615274,10.02046053717178,18.58305248573017,25.317469319213977,26.526033096959726,24.927364408367346,21.40782210876725,14.619361117472273,5.912287890646222,-2.6822435046541075,-12.22146975951383,-23.566219940753154,-32.47756850610904,-35.6871989269033,-39.39829654931147,-50.16510341085474,-57.739347029068895,-44.644274003974225,-12.418750475298067,19.290453253871963,36.17117596720924,39.533916994082176,37.347302335549884,31.239188269535102,19.52478196977118,6.823582697274454,0.7644154437418776,2.9537362878710036,9.775782371923466,15.954521532131873,18.66753782636678,19.064750951192043,16.03112095164779,6.764325219103468,-5.181196214756689,-13.44826106528565,-17.218626082222105,69.0,120.0,78.0
-6.3777936336677055,-12.2262597681849,-19.86087277639016,-29.52766451468143,-37.32543289288054,-44.54287014651716,-55.16046404740962,-63.64752820511124,-56.64098806484289,-29.99764500395919,3.2346773267684377,25.60441321406099,31.656122037559868,29.503230888571792,27.506614882241813,24.656509711742046,18.598573574841804,14.656662160080199,18.15405919873727,26.3199676522492,33.37288887625399,34.88068081394553,28.90661496977927,19.79551738632087,12.85884753560917,6.709487097095052,-1.6372520243355229,-10.781929375977336,-19.440476851847595,-28.277068877116246,-37.63949839444446,-46.460653009532905,-54.789406329494525,-61.54851868820017,-58.43684967894359,-36.97973310908841,-3.534357615019349,22.682099412988812,30.942981693841222,28.89235892353236,26.88448283987829,26.160119835763933,23.005239294161978,18.093419524358943,17.88764937915982,24.822687499558437,32.811212931925326,35.94603981743594,32.66582446844014,24.874462258111155,15.617620988880926,7.0592838292755165,-0.37884864018282166,-8.256311245288979,-18.90863880430987,-30.198934340694574,-37.50579311101073,-42.11629901217496,-49.11094354506957,-58.58284371892233,-62.68283640774762,-50.067914046682816,-20.162047563734717,11.6320295537259,31.39947706559824,39.11728187687178,39.713238748602734,34.24444439282705,24.67461114151404,15.720313121233353,11.714221055768244,14.233255056677233,20.671009724632636,27.74600744762077,31.903071604525802,29.240209135731593,19.996239583080694,9.221721900687061,0.3011668840038492,-6.780663282412725,-13.20194262315712,-19.477723550300485,-24.966484554529224,-30.053675988294433,-36.20984351906489,-45.170602828943935,-55.78207059594796,-58.475725204353026,-41.95869188979908,-9.981932545727515,19.022846436881533,31.174391813413404,29.982610467203216,27.07549544659169,24.84860443186925,17.539449929719115,8.588794462630126,8.656209895472564,16.93214989257604,23.3748854704411,25.29599839252939,25.64281210196963,24.138864070281997,19.46777501194317,12.883550084394896,6.173442564499775,-0.8893622511701393,-9.126001019244379,-17.586137136436104,-24.907838880620844,-31.996380013826755,-39.069569737598364,-46.03533398879673,-52.14300000960059,-49.63956114185713,-30.265054567089116,0.8633910906921154,27.63496338593517,38.941018779039354,37.45557595912602,31.260830096021238,22.72748997395714,13.789456474431715,9.383503711448114,9.119799109301429,11.115460175514318,16.47277168582205,23.341677161546286,26.898839801879827,25.18834685745295,18.220619404846843,7.603101515539504,-2.0991135688028817,-9.264951039354818,-16.488433862918658,-24.177138916414695,-29.993051041906558,-35.065696566205304,-43.16334891472934,-53.271092424924426,-58.690247186250446,-51.58281537077328,-29.199531719805567,0.6582364116023646,25.549008365843697,39.11510703346686,41.69965401279198,35.30981647650551,24.597835975936317,15.51685868139151,9.546216819314884,7.298385440996331,12.173088303819146,21.046620447106775,26.173214970518075,26.217469264704786,24.184302930427116,19.784802305751903,12.1770884775069,3.4011007772527893,-5.237526783414684,-15.400717745703428,-26.66273316493325,-33.909203819879934,-36.23921471754392,-41.85676208717319,-53.56255626073852,-56.52632929263312,-36.58054231189731,-2.2919625420082848,25.911848104788138,38.16295372250278,39.225381956275726,36.108936496641384,28.378291776481028,15.580260460334593,4.169033548331291,0.6545856783151096,4.670651601171367,11.847718434170803,17.080536555985187,18.97010776054206,18.713410882296472,13.987894954688457,3.27006263271615,-8.128803017524126,-14.854666395079366,-18.040734970403633,-21.801512624310103,-28.238972641213483,-38.212218436885685,-49.292571746555666,-51.868815535182705,-35.897260783784354,-5.7928482051589505,22.865962415480215,39.24016738696343,42.60796920181602,37.0143686345951,26.858389651629015,17.054762063652547,10.041676174715914,4.906157111613964,2.9024335956254923,5.759741199973529,11.230642472364107,15.477602582197164,15.324183240609361,9.121341341716285,-0.49796348161318327,-9.045046125161843,-16.042951952907767,-22.235302137331857,-27.298662202995413,-33.924430808448385,-44.042488769057194,-50.388157430375955,-41.695853217177564,-16.42756150099764,12.660386046346801,31.45279503695047,38.306432977513374,38.82901020753092,35.46230084256493,26.84283677956024,14.907958911423966,6.479314870366309,6.143855157143932,10.931467844455213,15.560706257949628,18.64088052026438,19.840631852916715,16.493763675385694,7.781499346332755,-3.1351932557167514,-12.649598092555063,-20.46751755579367,-28.573398985428454,-39.14197151512632,-51.68833832073333,-62.14959425528314,-63.4699778370266,-47.2555294670449,-15.026702252358257,17.77131868679564,36.24133678795999,39.264109440428086,35.85172016060825,32.08658010867626,27.3215708677067,69.0,120.0,78.0
-10.329410092543565,18.828773316677246,34.61138013315771,39.90452436124929,38.75131644472868,31.70594326951773,21.815964565982867,13.898202004825135,11.82974833303808,15.850349054779102,22.782367301472902,29.43940556388769,31.945441120382927,27.069979929931495,16.803627068149734,6.418248107648546,-1.894836572605504,-8.646994450955976,-15.054180154274572,-21.160829804127022,-26.422379943109206,-31.645251316570892,-38.450886505786016,-48.31003091576019,-57.99103674584518,-55.90212090263184,-33.640210129581966,-0.40999723734290133,24.44432536808344,31.669484657544547,28.936706759611443,26.609033404044528,23.39398891229382,14.620564960635665,7.3866804549315965,10.64042433681859,19.320637230629952,24.25876557710204,25.49065429364846,25.486717127869145,23.11318526903579,17.653934889288802,10.930517437398189,4.217618842175357,-3.1438954385229128,-11.64086519805486,-19.813205178388348,-26.92511496165169,-34.07730980674862,-41.05484857538297,-48.07297005454203,-52.80414374063087,-45.86946435949868,-21.851598274975515,9.767532814070217,32.62783037304658,39.42906344100548,35.9186818718511,29.040238130108047,19.96159562617323,11.922561381592708,9.03729185451146,9.432608888169918,12.294419705158434,18.51814233782701,24.873181113023826,26.950848106270737,23.705136744909908,15.356531020512714,4.517046425651348,-4.34714050406496,-11.236062788987246,-18.764174763146187,-26.10787753042387,-31.35291634063216,-37.002048229466915,-46.0996472642194,-55.685991824785205,-58.21014606555609,-46.54484957049682,-20.769856892618677,8.81548900076869,30.687916687914857,40.91839279514194,40.64159986972289,32.36697477064533,21.62976848255983,13.518239746643328,8.361516780827767,7.912709895820422,14.699871440072943,23.139898605002152,26.5697573368955,25.77203998433583,23.245751540511176,17.86799608948709,9.642184747454182,0.9295599733661716,-7.934056996042106,-18.717807229697186,-29.39285986098282,-34.85066082250809,-37.09818763178666,-44.972170907472666,-56.23357105502717,-53.21445992663129,-27.23378998467453,7.2374806696763105,31.092955393552746,39.20804977799869,38.637314858384094,34.482117670751144,25.035422563346113,11.750470360319948,2.2320613729416388,1.1935071814347367,6.661487571852915,13.726918249552266,17.90316989590687,19.12980190998361,17.9876610962368,11.382528476922243,-0.27897109484476046,-10.633658650567348,-15.944665312762545,-18.933354384470064,-23.332208776506633,-30.758210344432623,-41.57868541698129,-51.48871526671989,-49.31541488173202,-28.03163626102831,3.3165891500247557,29.05189554314189,41.40351500149525,41.715127924533206,34.34203618258315,23.788508722877065,14.763101602278134,8.384490861514054,3.873870785665185,3.2549959111118403,7.243288346012115,12.74035729882589,16.005554397926453,14.137133856016986,6.462250471953302,-3.1883940393158494,-11.160174784891941,-17.93805733869513,-23.777344175929937,-28.856514989484104,-36.61042475501947,-46.80665701647846,-49.77480634131166,-35.76096448525925,-7.640029681110751,19.48425080917318,34.43530817641424,38.8857155231553,38.29811442902501,33.54365675138322,23.489345976526195,11.785679575696431,5.545546641517015,7.271462521308589,12.43304185860103,16.582529520164428,19.273874267960803,19.45473757639106,14.45189060980109,4.652502801696555,-6.10739790661754,-15.02145855823991,-22.66474718979331,-31.322466692269497,-42.6855712766191,-55.17401441555229,-63.87171805726331,-60.829393855647,-39.08992507905314,-4.7806496475326234,24.933738292050812,38.38186471551866,38.51752029970396,34.75019299829847,30.889615214882618,25.625394307839315,19.610579155293212,16.56949545142132,19.171109943724144,24.521211213848996,26.938359032944827,24.64743176990711,20.01102273020631,12.191989757673882,0.7629910909312014,-10.748094333364657,-20.33776687889622,-25.980510626333004,-28.79912430898746,-36.703395106498725,-51.46925431968808,-62.61758578366406,-58.35270126360604,-37.33295979407106,-8.712836837687794,17.324554162361963,32.70687639188578,35.41029598291478,31.769924596454793,27.357465940313134,22.103218884756025,15.960356969577486,13.215825262567984,16.74456340804245,23.20606466130802,26.938000124444688,27.02969306565483,23.80291891837964,17.055140384044783,8.908049518713613,-0.337490271607629,-11.76502735425829,-22.850496289065937,-31.027861960429874,-37.68224203085686,-46.528896222009394,-57.574671780936356,-62.353459974667885,-49.73541721874714,-20.86988640651154,11.01158439474144,32.477860372865145,38.32931243526992,32.92783189417486,24.950273500037127,18.8711958480308,15.139018595664758,14.374047358074904,16.1056945257629,19.94598604980083,24.98796051831354,26.945533326272955,22.24682176180578,14.283329806998447,7.0435387643272565,1.2275581387238024,-4.998759424175352,-13.885546989065304,69.0,120.0,78.0
9.93443430145555,13.791607286091134,20.58416966868412,26.01534573176401,26.5575660301753,21.780053540393492,12.261099235913012,1.637341575170512,-6.408854205260852,-13.293099295081584,-21.03588541692433,-27.823513097271817,-32.739566786576674,-39.27513448313188,-49.10733349081832,-57.510372894943465,-56.498952677645754,-40.24824114294218,-12.015185175157127,16.266757093007413,34.821852364520694,41.845102054755095,38.88909334098421,29.21716420438147,18.92812895180179,11.747828306994121,7.550253280538875,9.207792519774216,17.369813517671695,24.750690716911365,26.6030474442574,25.220183027405916,22.054204830245407,15.693312277301446,7.084463493030828,-1.5341967832810546,-10.820627070633652,-22.059102836433038,-31.63122427681908,-35.4576844865408,-38.512390193294905,-48.502051720454496,-57.644536546798875,-47.799236196585305,-17.153492006115624,15.77180105785985,34.86873023957908,39.55062491393478,37.81301816147991,32.3819349184405,21.3190650925184,8.261493063760515,1.0543918638700525,2.2894672644451766,8.788691289343143,15.325458431958399,18.473297866204643,19.13224073501398,16.776431455444428,8.303924714306579,-3.6960604950959794,-12.66512822039173,-16.838486510087453,-19.96287779964093,-25.116764763300168,-33.590132026592805,-44.92769501214725,-52.65534447515144,-45.03564249957211,-19.281110809369743,11.89109714312925,34.057280462667634,42.545380015569016,40.186563128828666,31.39307231182413,20.877374454372784,12.709863907710664,6.851481609431548,3.1788615633137427,4.02344313183556,8.853956815683363,14.057074816802306,16.095262162802477,12.426762564818285,3.6390271763044235,-5.69969452722677,-13.184638169005279,-19.7612769385296,-25.22007997654951,-30.662053256090292,-39.57875709414362,-48.97004457819288,-47.65148063533477,-28.550959573978524,1.0304934697031225,25.187936553717737,36.52155130109065,39.08422560624473,37.43765543376318,31.14249522557997,19.968325797911938,9.155144942482009,5.333451366821172,8.680530454964309,13.814303972359278,17.49163756635977,19.714584194069904,18.61088701457996,11.982700859692374,1.4521102028055728,-8.899185028863469,-17.27702554895991,-24.948847744098526,-34.321640835826614,-46.344593141091984,-58.36207649494911,-64.62387169887326,-56.525804467548454,-29.79022659401785,5.040192936512512,30.6250432286938,39.36684413534122,37.49470584915068,33.68107080065949,29.553713966382215,23.844592675787954,18.22719360585844,16.761366384985177,20.68467976872615,25.730814988464566,26.662990431913943,23.495536095918588,18.19290070056287,9.132316233449528,-2.693130686744616,-13.773540764366778,-22.47406444105196,-26.802571080257643,-30.22466350503422,-40.55253754226909,-55.68384056593156,-63.28927712054587,-53.717371038125606,-29.349047471828754,-0.5297768479669065,23.136702388216893,34.616773262360276,34.65922382591826,30.487336054868614,26.00909319364134,20.285023138546485,14.602979022945709,13.60803300831546,18.602995992634003,24.706505186073784,27.285708665914495,26.479108386752596,22.151530193365463,14.754040559329127,6.4291022790402,-3.451303075458244,-15.174493495110351,-25.532844348338976,-32.94436421060549,-39.88591560350995,-49.69244533124622,-60.173334274590445,-60.76895688626989,-42.60718440388054,-11.282789120612325,18.710353740740672,35.73824245737238,37.54754946727398,30.557211920313385,22.96152886091595,17.526591362848716,14.605488034561636,14.656083858791291,16.99908645853427,21.39214012182376,26.135075698209928,26.236055602990646,20.042399002319364,12.031811303324243,5.255244320875174,-0.4017577511465424,-7.260423292047109,-16.871671512999637,-26.773809776611756,-33.26135846487354,-36.777323766602414,-43.912432778481055,-55.05881563300737,-55.863282546163404,-35.22460661560921,-1.7333340976726517,25.30659255075604,35.92560152293283,34.746134542737224,30.311282128058288,24.727350811327003,18.143313861509824,13.840648644172864,14.17763750208845,18.456172851573733,23.603297946101623,26.772329179726327,27.148364732082175,23.270097706407896,15.856537839470096,8.427532633506965,0.6764958535084603,-8.292629659866424,-16.971788305215455,-24.764282676507044,-30.726539545620216,-35.38501370208797,-45.150042103634306,-60.154989962987,-67.20060933185053,-54.149940256553556,-24.317900362013038,6.257701644758812,24.596561370276227,29.782950406411423,28.81558121472851,25.94893333386712,20.8109641627474,15.945707296655444,16.065009910367984,20.91111102411979,26.57176228992126,31.153755391258166,32.843000185713315,30.551232148813824,26.09542990574673,19.91952638431467,10.700600181177883,1.8177490720895089,-3.3645998834901625,-8.115998255160209,-16.736404774049493,-28.126488342596275,-37.89869808909369,-47.282989340509914,-58.65841648757001,-65.36759886489637,-56.20595921456199,-29.440468717000602,1.5496057921115218,69.0,120.0,78.0
-17.657974558332,-21.17346705474105,-27.183828936038292,-36.7023846253034,-48.02691715056005,-52.47615430434313,-39.11819432881505,-10.072471865449026,19.635426978092667,37.87208584708218,42.776253977907245,38.120892337403006,28.297452649207948,18.200095903862707,10.848415015595274,5.472928942471311,2.888702155679395,5.145945618249664,10.492456772575158,15.104833270618464,15.689426758989125,10.25288222770826,0.7906367511553541,-8.026942586772515,-15.151627564872456,-21.48262126505417,-26.630990141266025,-32.80786729128714,-42.6551798193069,-50.20980515469414,-43.93779950764222,-20.3949105711343,9.175771656389248,29.733373431877162,37.87983837817837,38.97493398904494,36.1870402522733,28.289682937058018,16.463269160793775,7.159559173549172,5.7636234386757765,10.217000668971856,15.044441333439124,18.302588618078012,19.8805725935243,17.27584833763162,9.167619746866553,-1.7123873497082418,-11.505938981098614,-19.465369741957627,-27.38412094777058,-37.56897917297112,-50.019985010724774,-61.09393312650023,-64.1592192712605,-50.54707695371437,-19.765529661760247,14.015445096216759,34.80527536302655,39.452496755104846,36.37159789729296,32.60304883401187,28.060854919554185,22.051230128309047,17.211392747420106,17.44509881303907,22.301350754838374,26.552256574256344,26.02847424854221,22.207086103900302,16.032863151304134,5.819221549652232,-6.060122666143377,-16.619331688705667,-24.20208810953413,-27.501920880798508,-32.31048113489254,-44.87896138929859,-59.24962162417932,-62.43630403542314,-47.78952891880537,-21.012503153686858,7.217903672258324,27.87303491322532,35.51922598161177,33.58900616981176,29.218843217909466,24.535776121885366,18.44021724927327,13.661735601642217,14.551332376412047,20.551101153141666,25.867148367716364,27.363767371485768,25.631265075075373,20.2226647227106,12.405192073091959,3.8194159963287464,-6.755135618247217,-18.45248488525906,-27.939790948105017,-34.81212720750382,-42.365776114916,-52.97970772596368,-61.94322066286898,-57.49997191096306,-34.3225875834277,-1.8293583390611756,25.259412390745773,37.668783016264406,36.015097228978235,28.186355090489258,21.165583612331705,16.384979250838633,14.335269299266947,15.118812065586875,18.07292885742543,22.899322334615626,26.870631892668378,24.946395731098665,17.707590034774643,9.902334814971812,3.5771500400371785,-2.134221141342435,-9.78580324215586,-19.89014415871621,-29.10621990598285,-34.36844237202107,-38.16421141295219,-47.143349111092014,-57.13023468988567,-52.12132050443226,-26.031208126559378,7.491930624495893,30.0766847248179,36.36733205254344,33.55859889729385,28.868311429200137,22.81940373233883,16.50609181254934,13.438215058139793,15.107961815705684,20.02283410777675,24.776562286454574,27.20896492666535,26.5300497511626,21.325659124231727,13.628092300593632,6.3203064584798945,-1.8394313752340954,-10.889619408249516,-19.316615345344985,-26.758413301696514,-31.993502911711783,-37.40539015192273,-49.33907039597207,-63.7410461772657,-65.69111630933457,-46.67334439500207,-14.787616674522178,13.084234809208654,27.20475605510184,29.808631716352295,28.179719248075777,24.684583404723778,19.145292984013317,15.344585084863905,17.152439510816393,22.59321422524012,28.058776889302926,32.041548193944784,32.54945515408454,29.38917597101809,24.572142654151673,17.534712035638062,7.84571697151181,-0.02839296265231179,-4.535937630050135,-10.125985095351838,-19.954564318556677,-31.214585177466695,-40.439934696152385,-50.46327580170924,-61.59323030920472,-64.73129904102565,-49.91376713029003,-20.147410856134115,9.0834104728573,27.214826997348162,34.05554844809542,33.29190006565975,29.159270707091803,24.50854054474916,19.61002710016386,15.799296420566872,16.352531776013965,21.25572107510257,25.080720989010338,23.7546022278195,20.09550199713211,17.60761792883166,13.870135572681919,7.017448697786456,-1.460244573900067,-9.754446295402447,-18.023748117366267,-25.82692040759334,-32.05010669119617,-37.89639155689314,-45.229216022951064,-53.71847694493619,-58.90853423244266,-51.37238255614403,-27.463101400412505,2.2530467712937505,23.541750773562445,31.568651055247013,32.860084830449985,34.18393516765817,32.69060552046653,27.063711787851094,23.262459033558077,22.75130209958655,24.230051362233848,28.122578964320795,32.137221710962436,32.89558890015498,29.443753916053794,21.673561821292914,10.785423582191845,0.6283033119772048,-5.955937377333451,-11.832123180118748,-21.943803034711603,-34.490073673216706,-42.95294419075922,-46.57415198425837,-53.13628900040014,-65.71725625671883,-70.53630351944774,-52.805132376567705,-19.14810538348623,10.571473527778862,25.3244338387519,30.311854808878657,32.10117952791022,31.47747043185089,29.9099916459223,27.978649581373404,24.967813971865002,69.0,120.0,78.0
26.42138862872318,20.34048965350661,16.655302228644167,18.54942633008861,23.862967751223515,26.922366908811217,25.128299757722637,20.75399086677944,13.490925408903884,2.368387976182798,-9.301247508966537,-19.23205710910019,-25.507297708451276,-28.315380800631466,-35.14646712079389,-49.40547294828692,-61.83536494182331,-59.99985653320937,-40.81966646918734,-12.574147425541458,14.321941570726072,31.450736917149584,35.59539070501637,32.358840338986845,27.952285205680692,22.905646295271517,16.694137983027563,13.228160690660292,15.967356743823396,22.415630580556368,26.6766666346424,27.192839172567833,24.457003868941616,18.08737758643419,10.022703951669882,1.0240867012939725,-10.175837005441934,-21.521058129503874,-30.09962908234578,-36.741925126410564,-45.14852453089908,-56.19177999198219,-62.548619875781725,-52.550196870369994,-25.22969334530259,7.133323800197816,30.51336782045374,38.37408356431315,33.974142214856805,25.931987418528724,19.55373711534137,15.474076595774548,14.310627293132308,15.754087836763276,19.319355722304486,24.364178802377634,27.062714261402483,23.181983960419835,15.352890571991527,7.912793351969801,1.9650069974206112,-4.042745153222227,-12.548404436124303,-22.83120491679731,-31.071966274164364,-35.305521390112844,-40.06781974023965,-50.5635441694395,-57.87083182876693,-46.4667851395731,-16.18531688948953,15.69974608386529,33.39716588636667,36.05230575506319,32.27733647221289,27.29620014715971,20.868940263634503,15.157612305570103,13.450625655891162,16.325052079141305,21.56464799072728,25.74230589444896,27.40159399288604,25.50197281439459,19.16253927390682,11.476770397979802,4.1227683226481675,-4.442415836738741,-13.417974707949035,-21.594838652225977,-28.543993597647344,-33.22705662637468,-40.054841019205426,-53.823369431074354,-66.23655598188803,-62.308947608658855,-38.055595120435854,-5.653776744060661,18.67881364040178,28.812192369288542,29.529382685389972,27.407361791424623,23.2123886352808,17.620636839846206,15.262583963011657,18.55302326393778,24.253192998844625,29.435575804496334,32.62401446475031,31.92746548739499,28.115287622732993,22.86846449923497,14.876706071295876,5.169890514037096,-1.5429497232152358,-5.810603816960184,-12.537447500223854,-23.30274252213618,-34.06847683219371,-43.06973014319902,-53.811848516210866,-63.871874167147666,-62.5012718101516,-42.27011452125964,-10.948988184947533,15.612966129505185,30.21535713182951,34.42672076954236,32.26817822591854,27.823571156732292,23.117672513347497,18.261563527280746,15.389401946754923,17.497030091866463,22.753363847085318,25.233342283307632,22.688072354268286,19.271031711663973,16.822362148877218,12.18171702032714,4.633248895275776,-3.9051748138588764,-12.119850741982724,-20.399249285028926,-27.783698572961796,-33.674678612161294,-39.824828021654305,-47.65095041305731,-55.91950708268141,-58.44794019974653,-45.9227417091618,-18.766933172265883,9.725755871575988,27.10600123513104,32.18919160576435,33.2027477645143,34.28544570635161,31.27217993034141,25.557427507597875,22.875611622853977,22.95379793261876,25.13155138432536,29.451683945660854,32.77449034356869,32.33586666024075,27.640468458446172,18.713646896461928,7.583425825468003,-1.6433311638352848,-7.45716249574299,-14.229006969275915,-25.60070642637705,-37.58335832681405,-44.25445804336064,-47.77696068747013,-56.44151383347126,-68.82003641647144,-67.89633126239048,-43.89261677564502,-9.33806883009775,16.377037079444268,27.345736851613907,31.066518908189842,32.15000189018273,31.030405529300456,29.442960707394857,27.19489004719934,24.125526946652446,23.379489574170513,26.958902377308576,29.70139422374476,28.47489276444249,26.762181019365876,23.961206735401344,16.488234855513678,6.201276913736611,-2.5910433100209103,-9.776790321585041,-16.6577003526218,-23.711302919538372,-31.33185038047521,-39.34688834697022,-47.5512023849759,-55.78130729387047,-61.36114111528095,-54.47526644529032,-29.171695002738225,3.8500164352664545,27.886208904339618,38.51720671658278,39.525461820818464,33.24493380952591,22.49368069105385,12.516727105322166,9.474441143488267,13.211842189192184,17.93778008117233,20.939912389696573,22.902346322512873,23.529044841094418,21.00576844693224,15.050521655105737,7.95062648717818,1.7118312325783092,-4.521917509616015,-11.853555872059317,-19.306572624333842,-25.488889595043155,-31.06676994851551,-39.760281739438405,-52.32648912296738,-59.06194941407656,-47.04421977932414,-16.904342322762368,14.694900210136433,33.65052838044755,39.24549259543798,36.50360066273774,29.52404564529554,21.96275134563777,15.831159658616004,10.301002413211915,6.4929652658830355,7.533966180194669,12.736025666559188,18.10949905336443,20.374687545994945,17.185509028024853,9.80438358239526,1.5291386394555087,69.0,120.0,78.0
-15.484437135441526,-25.589604804377377,-32.65352173814341,-36.26582746897004,-42.568213775837066,-53.775524594928,-56.92938714219562,-39.102556681481985,-6.221904163707148,22.606925972750425,35.39584634869281,35.23251679260067,30.94530614568812,25.571294391000492,18.9716897833079,14.165371922022281,13.862077006339334,17.752357653761305,22.997218884907696,26.496385317768443,27.305481778111517,24.061767360117663,16.90177616606852,9.38581292285173,1.795643065399662,-7.079871382347401,-15.867747741559022,-23.79054066297323,-30.089745731180937,-34.624900780845536,-43.39255614832629,-58.24854520436184,-67.28300315936464,-57.11051666366739,-28.72853974969538,2.725671321265645,23.011691059216457,29.619784565751154,29.069823249602052,26.45721671355013,21.586752355216277,16.383162782952194,15.700965831259671,20.144341637730967,25.856816677469393,30.658215432625166,32.85790611952487,31.03457383535122,26.754526686127893,20.917018046445783,12.035326334931327,2.7930573622347006,-2.8201122403278607,-7.3157160637222995,-15.334727656447747,-26.6336585662956,-36.71956943624245,-45.89687831707303,-57.16959997190918,-65.17726804045357,-58.57966301719683,-33.63597129653258,-2.227124304253054,21.085555716010923,32.3381608443466,34.265394151852355,31.066917514214637,26.485729249433213,21.69362262843868,17.067983578014985,15.434254666660795,18.936616553962274,23.99300651653635,24.90985144487052,21.57116223642708,18.574578305255745,15.823749213607147,10.23531816832481,2.168530387391361,-6.302979493637869,-14.508747160749891,-22.69656893349505,-29.594981134638616,-35.324356323987416,-41.910742878788724,-50.14093143919689,-57.678075436422354,-56.657803057468925,-39.14893428125394,-9.971872908304414,16.18933301883442,29.569602494398556,32.50418931222188,33.63043558568191,33.98739069366517,29.587497733074077,24.369851851361453,22.70944361902507,23.32208264335728,26.243440724063586,30.69139330175757,33.07887175789998,31.42227393106104,25.46993287817679,15.551477941173953,4.5552003168390724,-3.5790730730928706,-9.041934295596835,-17.073591606261147,-29.325496742091353,-40.16992401052608,-45.23834294445335,-49.47704191382836,-60.19454927188758,-70.75453904247271,-63.15310890952156,-34.05350690039675,-0.3709079982298332,20.842795814518112,28.8045494025699,31.634273298942063,31.9895849958293,30.56947365260483,28.91907092363513,26.31526100997362,23.477034177702095,24.074043718179297,28.14687313887001,29.6435261141815,27.909696244486213,26.258692825975515,22.335078149340394,13.576230033354916,3.41131152018642,-4.7489289646900055,-11.777576439573723,-18.649208229176754,-25.85746900322071,-33.61577912018771,-41.7077149860525,-49.938798421757376,-57.974676588267116,-61.16373028923847,-48.90863623413451,-19.59810218736671,12.215395520749722,32.18652046017186,39.66003962740062,38.37166775321412,30.42091953711531,19.228220857562302,10.752299377941208,10.090881269607802,14.700454917375927,18.97406314906421,21.58151797334412,23.29367782030132,23.1912002027553,19.57257145512726,12.986632636595482,6.045017671570417,-0.0068338438632218335,-6.535132185180472,-14.07175896347935,-21.251719837465977,-27.045963688878444,-33.06974855180611,-43.21855372340723,-55.5207076593318,-57.87277148097933,-39.6503370936265,-7.067075562710334,21.73120564726451,36.42929012354519,39.102727067154234,34.76257476019999,27.247154314829054,20.052482718450715,14.203732754614416,8.87315051693847,6.216425925613439,8.77341024470702,14.436133563618522,19.213927753238373,20.052050611672822,15.31794290829931,7.420788506660102,-0.8830335800847717,-9.246568384951809,-16.59053397091399,-23.43935200004853,-33.27155566077653,-46.7028440296928,-57.588907628028345,-55.32912866164163,-34.176918423052356,-2.9886620914329582,21.9272776726785,33.3562028422936,34.539304811976685,30.983144478551587,25.84172909204832,19.115496518342688,12.5446340243318,10.29139696669805,13.088549786764684,17.441025558002107,19.967360834482342,20.202683099145844,17.9509640815824,12.866749903614592,4.486062755733364,-7.7846474983107425,-20.84756271264162,-29.74291304360207,-34.941702356638785,-42.66364867112449,-55.00054421846201,-63.414658170179166,-54.15868481495036,-25.830890778946188,6.884713627572337,30.11576091038398,40.79026986698552,41.0102887330413,36.21111965640919,31.81227166478377,26.89882456909963,20.693861440169375,18.039575695687148,21.96053115290104,27.192880200726574,26.784314625150873,21.418068096094572,15.281247572774864,7.938946481179025,-1.331933296166334,-10.991680213896071,-21.155959095836135,-31.508571383308905,-41.20827055118188,-51.02049391878874,-62.2581975570636,-70.7085391766621,-65.55147326787875,-41.64130711413138,-8.465095944424029,18.509595873400247,32.488108933690725,37.64659614637928,69.0,120.0,78.0
5.72860893147031,25.51251603018948,33.67589005001863,33.67754805342408,29.77109317096037,25.1379989635474,20.26061735955895,16.123720048096327,15.957439066803499,20.521775118010957,24.844134931232226,24.187675627525916,20.528849735147112,17.923234847871502,14.553413230247765,8.073154804322057,-0.31904814618265775,-8.66779199633676,-16.91549837882083,-24.872716287429192,-31.292446108193786,-37.05678477775853,-44.15017871133085,-52.6163858893675,-58.734485047064624,-53.39037995935022,-31.32594551976362,-1.470160482174989,21.499221072870135,31.10744708656502,32.73701243907951,34.04215829112159,33.20964929382384,27.837148208141922,23.53530679367176,22.706007264797982,23.89180200268129,27.509934061480227,31.740528324216672,33.03469798553295,30.151534865322265,22.946197563686738,12.290791135751027,1.7931051035574193,-5.246187127932025,-10.870207961912815,-20.330099875389912,-32.92492769879972,-42.19896930169011,-46.126880500928834,-51.82313899365439,-64.04142729340943,-71.04990661847653,-56.461397438028975,-23.83527321781647,7.4264546776839495,24.135666188567956,29.895877377656124,32.003555252062235,31.66473192052832,30.117513056189583,28.301405163760595,25.389281882445502,23.138881892338166,25.120853051467783,29.065243337581176,29.27978841354167,27.409638861584256,25.566082562430143,20.250842628169014,10.550726419704965,0.8280806646304524,-6.820816891419299,-13.765304888993228,-20.671560559729794,-28.052794326205973,-35.927453684076774,-44.07773181727857,-52.3335959355764,-59.82709208966121,-59.609393650973644,-41.7888148706134,-9.817804842289174,19.473306871871824,35.42560433524977,40.09120124308055,36.649371891576166,27.30798411343146,16.18660216389547,9.70527675884547,11.169024890899243,16.12146481966749,19.85775568572845,22.16414383124272,23.540985834127387,22.541645402220393,17.875143248356153,10.902964078525395,4.237726301659286,-1.7749864539476383,-8.64767383529263,-16.257297868428715,-23.063933588593514,-28.597240629992044,-35.45800905807954,-46.937541381787774,-57.88210845589239,-54.8357971553715,-30.963852723774554,2.3838503409617773,27.497508716418004,38.19454618024588,38.38686003837233,32.752989823645166,25.015467514366094,18.27453163236547,12.589186674153115,7.663270309852897,6.415850646986789,10.28243860636013,16.051533611103892,19.98774331376275,19.228052179628822,13.1851147532647,5.028646628603791,-3.314544678948412,-11.529171593006785,-18.48499838862771,-25.83660030870611,-36.92084072909877,-50.54400360858056,-58.745912049473304,-51.07151014667168,-25.455470438696317,5.4392217300883505,26.593638215594616,34.49472472892835,33.790189621595545,29.622197581571626,24.070847682695987,17.012466203677935,11.313548410403548,10.685841804157443,14.379166188882808,18.430980861714435,20.250484721695667,19.844802024040494,16.76421341220879,10.845679253409125,1.287651511194548,-11.711858652314783,-23.992302124878318,-31.38619053152228,-36.655181939403825,-45.91482323118486,-58.4730755144471,-62.99780218536699,-47.480497914084616,-16.03618350933912,14.894545197149938,34.43466062073248,41.77029579743276,39.81458215162149,34.821050303108514,30.585718914018898,25.10230329802048,19.300626362298736,18.574970583717263,23.724304660903005,27.796657319726908,25.52090491535724,19.64511081524838,13.384974841916838,5.390131957580251,-4.114356135471385,-13.854042356120935,-24.180238758925235,-34.38334241454741,-43.9493805380859,-54.1389231224469,-65.4047131425326,-71.08755357940625,-60.41974291844388,-32.29582644179639,0.5260188029589989,23.827708440804763,34.61139248558965,38.21727774045464,37.70987293050354,33.94111254441084,28.471077099506584,22.804011332427017,20.05398627974374,22.709882928249254,28.93801465676104,34.16779120043729,34.801846548617775,29.037784332837834,18.549455584285983,8.101624612835709,-0.18624581482468344,-8.517999389569464,-17.48114454877058,-26.730181257322972,-36.82169365505129,-49.119982066794385,-64.4825405542154,-76.75169600485145,-72.90965929002388,-47.52373587959342,-11.41921122756554,19.06226921204636,34.16000995937709,35.10397941413459,31.256463017466988,28.30994230637909,24.72042856296528,21.413096985739834,22.620937848601194,29.076829651946518,34.922549012992135,35.21086418126318,32.295110175419,30.58208890892021,28.16985410563607,20.096470098924772,7.221192516704802,-5.226089690451557,-13.250392267306747,-18.71231458567459,-27.640989724147474,-40.59437747253711,-52.56916050349443,-62.44838358200004,-72.05503899151192,-75.3344954785788,-60.98004893722761,-29.98456839582047,2.628969209141872,24.09798738390054,33.50172037431805,36.986130880729604,36.710979847192164,30.975835260010697,23.056628796243032,19.059411344430515,20.372832556767563,24.159260033269277,30.02438375688692,36.798829018360756,69.0,120.0,78.0
24.496999045478784,23.20231308836224,26.369121630687715,29.59732788808063,28.74323055673578,26.965813643825538,24.559475440028496,17.753087484415076,7.547372564125775,-1.5522123137635533,-8.849277037504557,-15.744734210396507,-22.739888079940435,-30.28912697203415,-38.26328824810061,-46.453600715209255,-54.710183907254255,-61.07487040588103,-56.48053112953705,-33.379682463342725,-0.31629465662310957,25.513044951999518,37.73397130614298,39.85200357901063,34.42154869678843,24.0254531405114,13.54974932238691,9.38922573141604,12.533661410170716,17.40313514974845,20.620066485744715,22.68676681364612,23.58918608894005,21.564907306746527,15.974924810047188,8.863281952701096,2.501120001347379,-3.6306879980842313,-10.832460233549813,-18.368173326426945,-24.748385044184868,-30.243009680601393,-38.297931575642785,-50.678685543609,-59.03335317481867,-49.916598841467255,-21.438605302048238,11.048564127629216,31.990015633148342,39.088971992824085,37.1919764904542,30.56594871645511,22.893459462343436,16.58956221481692,11.006050525832503,6.771643585424373,7.082808270081739,11.94685615149943,17.509275532016797,20.35779455556156,17.9281154930841,10.891342892715986,2.6353301224126615,-5.751213506515532,-13.6809852602628,-20.39680256680027,-28.579012840230625,-40.830587395526685,-53.95565430737254,-58.52254866640208,-45.199385773669015,-16.27665393801068,12.958391939616646,30.101396870984743,34.91607089932953,32.77350375595539,28.16866223151864,22.14309077172328,15.015283132333366,10.54204297002078,11.463871460118245,15.689082375790179,19.20980851556147,20.3607064741318,19.254499258510624,15.34990689670215,8.51636134297317,-2.2305717350837524,-15.58563727800498,-26.6702714132062,-32.82534463457149,-38.75189288062193,-49.5203928123569,-61.292415591266824,-60.77852652734837,-39.379771951276076,-6.336273585981013,21.874871041183063,37.72719410510406,41.94037402442588,38.383557057160345,33.54871357943707,29.22493454074893,23.239809029059305,18.36569063297934,19.6657510806511,25.383775887330856,27.802508206901454,23.95704119535286,17.885910014197233,11.321266737618647,2.7066708497695573,-6.895639629649942,-16.781238296910956,-27.19134395700161,-37.19101140646865,-46.740754043070126,-57.40258934128911,-68.12504591230899,-70.0295917142156,-53.72360789096552,-22.550023661970116,8.63545012063387,28.037390012566025,36.16500502132708,38.46079200902225,36.89399501181558,32.47294553628959,26.758507555229123,21.54003825796226,20.256401643867125,24.33196187417124,30.74471133042098,34.93995085407797,33.80863771752232,26.30259414808644,15.326925136102108,5.545665204423533,-2.4965897090213476,-11.08094387349194,-20.106265100315444,-29.524848918208637,-40.05797470479469,-53.32277726055734,-68.87493771692502,-77.8321405634258,-67.58567286553783,-37.43160785097623,-1.424529635268122,25.176885116736898,35.544238328963644,34.055440903613466,30.315383702498202,27.41378433796892,23.55598293543245,21.140152938023636,24.105674809416094,31.16275422383407,35.60582171603179,34.454924841350156,31.60282665671369,30.217955879917085,26.523242886151905,16.666910615208714,3.3399023965078323,-8.060888953786634,-14.827463161691206,-20.736200352847074,-31.16912904179863,-44.337659609526625,-55.52407122866826,-65.29670717413188,-74.19225818687048,-73.3195701377937,-53.21230483652856,-19.983868395666722,10.255114166294275,27.814280074800376,34.8751189846746,37.381414339149,35.60311307252992,28.622073454100665,21.302382813087547,19.0053731628423,21.300474859666714,25.606300884246675,32.06468700408227,38.242757389788856,38.83551767946874,31.551860483352485,20.497389050057887,10.659972373230529,1.8057014735280499,-8.242576941286785,-17.850376006698095,-24.991703909603558,-31.92807416374815,-41.27040994818402,-54.11427878395455,-67.71111286673428,-70.49398426074693,-50.84452897530409,-16.207906670603155,13.828015687349366,30.33201009724092,36.56892715871639,38.411740614805964,35.73454643780606,25.92164000629913,15.03649651373959,13.023217091727453,20.804401489610285,28.605795951745513,29.710917579910397,28.07955523706602,26.51736225498366,21.661217810138446,13.43729058422934,5.422382618126241,-2.9444163301117814,-13.798389498401031,-26.183492938563706,-37.09577169880242,-46.03371449388026,-56.44136943219742,-68.84451950761402,-73.72415293675176,-58.79115999189178,-25.76109592813169,9.544184956283576,32.54199332886235,40.38227794043325,39.667063810082844,34.8702418207707,26.598374581803,16.96761471948864,11.169826774803187,14.339050208027093,25.15402590379505,33.828181270200346,33.04572504954751,27.248023151383528,22.97426477905378,19.102249129079468,11.397582562469811,-0.5217853279012462,-13.738410798593721,-25.831814026760444,-36.44433810626626,-47.85384324615863,69.0,120.0,78.0
0.2315800937236999,-8.158952839625167,-15.697817228799794,-22.430905375616558,-31.703381019102252,-44.85796136052246,-56.659980512233055,-56.72272227103961,-37.920206180869585,-7.099140423117895,19.37123057521782,32.54920776489445,34.76434398301978,31.577463017702364,26.606530168666833,20.087732124867514,13.248896394496754,10.25942465944181,12.529880962759604,16.921170688901306,19.774757188549213,20.29625677552282,18.418687810570876,13.706616040020435,5.841266406245516,-5.994588836079672,-19.259741444483897,-28.872421002514063,-34.243374782394454,-41.31678135399604,-53.285564850481435,-63.059451988948,-56.67184034538031,-30.256361909744506,2.8824266526447717,27.766508305308108,40.04007391829965,41.42962165807706,36.887060017952436,32.356551028203974,27.676850272058843,21.450113603207047,17.99992063159711,21.175446105454906,26.727602356634033,27.22549894599882,22.23401218089722,16.116440210722054,9.053625800053446,-0.050515536354577006,-9.69087170899848,-19.76635884677578,-30.160067723148114,-39.94697045264475,-49.63704303129432,-60.736173933233765,-70.11995765727147,-67.35402044161529,-45.69892629907898,-12.828007525431344,15.662831778619639,31.275706155974735,37.267495233118574,38.38387893873196,35.833359638222,30.901722196530496,25.066682875544593,20.620729485459634,20.939785213655558,26.159079132765537,32.353116039749494,35.258296037908224,32.25242343263785,23.262345309238952,12.23710937750748,3.1606297151069507,-4.881983478268892,-13.672722094392036,-22.762207008733544,-32.40289580585337,-43.529399017966,-57.782232262824564,-72.75494245627722,-77.21896121272277,-60.48628149233249,-26.852895542178977,7.727978236956431,29.856413429580666,35.896865738837384,32.87608417249183,29.48596462271365,26.39319285176021,22.501565379853954,21.353746236102467,25.979855362415964,32.99831019778225,35.767657931802404,33.56058728243167,31.09521698172663,29.659776577670662,24.306927389670722,12.932484863107597,-0.36481294104436296,-10.45752514252793,-16.316476065863387,-23.200407031219214,-34.948492549910995,-47.86603736710642,-58.354209624257855,-68.15399714616186,-75.52866888749216,-69.57121839948589,-44.27650604134164,-10.285540707729302,16.733328121817532,30.62769139577196,35.921325968388,37.43071558627196,34.00678553262628,26.23721679127539,20.015312782184377,19.352405435400215,22.361007046071947,27.26075229765448,34.10375910502026,39.20056378063172,37.469451232697466,28.458582216425867,17.434610756098248,8.123800614396076,-0.9541024626417687,-11.225957838376571,-20.13146100435191,-26.86847689966569,-34.309444854016675,-44.61422727322355,-58.30042947786454,-70.31720554620665,-67.25707030347941,-41.49976174905828,-6.356368351340956,19.998330027833166,32.88622024100499,37.40503804147457,38.28532251228944,33.573123959293085,22.393399912428052,13.251872546180307,14.56656656548726,23.564681093646342,29.585318751736363,29.246271288558848,27.715762573643925,25.596434070226977,19.459489625192123,11.01916178699461,3.1711709235015917,-5.799062824847258,-17.346782700892142,-29.597071862153754,-39.77658302266103,-48.72072479784539,-60.03683689670104,-71.67156589684377,-71.73736724365861,-50.55814832307781,-14.994109552717275,17.839742860621868,36.1571531719006,40.73412464105492,38.65676277717768,32.80070251498273,23.77933810113404,14.618565110674862,11.046754306199096,16.98858524220272,28.397606468249027,34.580081459630854,31.498948070860276,25.75232406268984,22.025795178428833,17.3852488926625,8.282910414592394,-4.343940565883851,-17.41361746111035,-28.991501180244153,-39.52264099938027,-51.66608582975425,-66.15136247847202,-76.7461355416204,-71.15920206175053,-44.35039648501773,-9.052674203742706,17.345976066117505,30.793227059664275,37.583047663358194,41.15008018565564,39.242103499896146,31.570529832754648,26.035762540120146,26.817678609500852,28.320503226194653,29.055404338509764,31.6163983318594,33.29708845295261,29.567214400476825,21.716729177322076,13.599128255007011,4.835294052825038,-4.743982175260321,-14.021723891090401,-24.167141611259645,-34.50974124710686,-43.89603940782239,-54.289571393713466,-66.69230001199458,-75.29849868193533,-67.75589606640155,-40.48208436512853,-7.245667893080487,17.4915060315466,31.10909547715559,35.98927931204631,34.10887738641815,28.55735097929067,22.425130655182713,17.798642275148843,17.304731829382792,22.56106647347501,29.88165310125587,34.682075573502516,35.89062884671362,34.14408532083015,28.577290382955685,19.05060343297645,8.791794897593519,-0.6252263187765439,-11.33358207859317,-23.23275317282093,-33.21772418128609,-40.827823809704185,-48.48209782964236,-58.23850220989303,-68.4268437226105,-68.13483654621768,-46.95729354376923,-13.560121937819222,14.85261546408744,31.91606161204427,39.14793820361427,69.0,120.0,78.0
37.99570814824927,37.99223821297021,34.57503440752557,29.25147475218282,23.476234450213102,20.124946594547982,22.063387296213918,28.06612433139686,33.67557165397012,35.07051703792556,30.16306477436984,20.05037929781787,9.353321843693646,0.8655074679956309,-7.353573449699595,-16.276967609962103,-25.464760744098076,-35.393472122803665,-47.284736769791124,-62.37460011312659,-75.76180437772018,-74.71943658449865,-51.8900281720825,-16.223828646720943,15.778021115925279,33.11286109002225,35.47912289974888,31.738886148495315,28.690161215883123,25.262491602193784,21.680125119997616,22.098940208827628,28.08313667465549,34.42874025949601,35.47193144544832,32.67065558784049,30.730214196517792,28.747223662835864,21.5394363321095,9.033966423727543,-3.7772719756413897,-12.446851040733396,-17.900849066743014,-26.137403159740074,-38.82079304425554,-51.14101289680966,-61.15062977056175,-70.89183440487626,-75.7200916955869,-64.0721751873892,-34.58478883218008,-1.2417731827100498,22.03535173836097,32.724533317196816,36.7080236152942,37.05014605183318,32.00237229338925,23.99632075873423,19.24297416692974,19.99980535525306,23.555490794703324,29.114982381583932,36.00709844527434,39.55564615284591,35.448127453128706,25.212069411013964,14.557834761277453,5.606605819464942,-3.8535723580728125,-14.076587807635848,-22.200589569131793,-28.815972435068097,-36.935141293957116,-48.274098997431814,-62.419305102347636,-71.63617039734257,-61.94907726404325,-31.342338426497538,2.648667515819646,24.98136427061863,34.74444361430018,37.9961923008987,37.68910175643604,30.787156086275083,19.037744385108628,12.42416540292617,16.817919290516066,26.012949308755005,29.960827066474735,28.73076242855588,27.339090765704626,24.288211454016384,17.056528495403025,8.695889326333537,0.8179044119368362,-8.893082544982605,-20.962834207268358,-32.81040498600213,-42.32727576876807,-51.64528360891172,-63.738921504724594,-73.52442639775104,-67.84609717701625,-41.05124585671706,-4.498593360421364,24.83163595355252,38.57733272473822,40.57618810543412,37.34379226855179,30.44887734342012,20.925956358560807,12.74599194180968,11.773776500607731,20.15379247244198,31.151180309934624,34.470641661091385,29.75197068364622,24.488342658222514,21.000779545332264,15.259304465998776,4.859665700647193,-8.192410006124161,-20.949495305669583,-32.04489255221252,-42.74717162013606,-55.721481492149884,-70.10724841670701,-77.31255775946516,-65.35139093117502,-34.13663421205491,-0.008768279640344101,22.347720671448908,33.15841244203155,38.96829864759052,41.315107713993285,37.39198203125894,29.339303826816444,25.76526287900213,27.431320930077206,28.45850898234043,29.606746636586838,32.43749188080232,32.86379384952016,27.503446657286297,19.340877024858454,11.202022707790247,2.0788162857010257,-7.439682899238556,-16.81246513938573,-27.24745859662033,-37.26957746910315,-46.688422105919464,-57.74169082251199,-70.07046756134153,-75.27609849821279,-61.554165229571986,-30.66778801604162,1.1047323697080498,22.462005609944587,33.33416161724436,36.02779048723277,32.72712808494168,26.73954277780438,20.845772869202396,17.08699615348323,18.295088572070473,24.719103034983334,31.640526717913875,35.37163765046959,35.68812673389337,32.99672639215008,26.135249555387542,15.999890280056395,6.046716862153464,-3.496942518211168,-14.77663973779382,-26.421739363939245,-35.573825795741904,-42.9200456341122,-51.03676157113392,-61.42289911061653,-70.09866171605206,-64.19150520741555,-37.73344187897558,-4.288108832350413,20.91758116143388,34.95327388665864,39.53581432840674,36.04014219421317,29.64116931568084,24.597879163328635,20.475861144844732,18.59608391845842,20.93390285315478,26.114680864208342,33.09390443224457,38.23814360079581,33.394428414026734,19.352672018579597,5.099108545877084,-4.324754120357217,-9.591631093157929,-15.112350136904903,-23.861082226949495,-34.995203508677875,-44.42196569698127,-51.475924821588855,-61.749441860435454,-71.84022185741532,-66.31324969481165,-39.43299992105247,-3.427599166170861,25.785331071327505,41.53334740083334,45.352598815110795,42.50713966041924,35.02357333889455,22.87980450568087,12.191328741779325,9.944458845470086,16.420305990171855,27.42041900733932,37.90932030185064,41.69228045436396,36.13263056388338,25.576517875834895,14.972414972328261,5.7699433873237975,-3.1350078885787496,-11.276091318025372,-19.826782080151553,-32.04589358318871,-45.86359693633246,-57.38674551133872,-66.52949629148544,-69.1694447977868,-56.3609587598632,-27.60021888398594,5.2872294804774995,29.315403458054444,39.011191577687796,37.84863860449729,32.481429264230535,26.39231506784447,18.735393636101293,11.31106138765978,10.22585968253986,16.017598729537,22.190437377526322,24.46546307966995,69.0,120.0,78.0
37.62942997142527,39.22753636915831,32.87992602865495,21.963107163668973,11.857636599631304,3.030674009605685,-6.850164574193119,-16.71616636805061,-24.127366266726398,-30.903522823211986,-39.83421910607416,-52.220184896628965,-66.18764903114386,-71.29419378763346,-54.72766786179888,-20.93943821508233,10.573572644153515,28.869929006459863,36.08351144626442,38.34632693009017,36.503320968179324,27.524769901285556,16.143661945301066,12.607727123444167,19.50496379764325,27.933352060145488,29.865223991181654,28.26634454580847,26.83125927291846,22.575766734285676,14.576554412616288,6.448557850374105,-1.7078686610510083,-12.207568176276176,-24.557530833584522,-35.79531959264666,-44.848881419626096,-54.86120770619487,-67.31854461503816,-74.03231369777653,-62.05902827319098,-30.6946955046514,5.330025671980875,30.429991975811298,40.001327365589724,40.02996319036761,35.722377792450416,27.857124969105335,18.16702131848714,11.498828456589774,13.347036507202194,23.574355141212596,33.17959478847676,33.62794757456336,28.007916804246392,23.422355340409812,19.77005303102367,12.710015339229527,1.2116207861831125,-12.00611751888643,-24.32760270516289,-35.052572990787176,-46.184696580460006,-59.95013853335833,-73.5000378691373,-76.19397432739947,-57.8029393928937,-23.69760637180311,7.93260945011983,26.34552077323163,35.150420134026675,40.10047439027032,40.92046954233924,35.13085397114369,27.553104857615995,25.993262547696297,27.91806104526743,28.606063212549163,30.348574064875102,33.053981836034126,31.889962796521463,25.211530895439857,17.004445932941174,8.70083631143283,-0.711114398857866,-10.098954044368373,-19.72640240420742,-30.27645607317231,-39.960137650772076,-49.63088975537601,-61.36121405345226,-72.89310840869007,-73.56958236788077,-53.80033513360625,-20.83059581935306,8.497216299476849,26.55392825574558,34.879777074854104,35.55429847204627,31.12605007377896,24.937530888059552,19.43329312672332,16.806018769829986,19.765343887898567,26.90438920921371,33.10809947557539,35.770022180065375,35.25379851160134,31.484274278671755,23.394042560571187,12.994495581928549,3.357806859395714,-6.546896863061682,-18.263468004206555,-29.370112847140987,-37.76820178554988,-45.08292909515699,-53.81076169224915,-64.54616171466671,-70.50956440937036,-58.366250074411944,-27.925559534531313,4.191587467316973,26.026471300476008,37.217961386777105,39.21020487908478,34.195786633391556,28.021168522622652,23.32933422205749,19.56608592104549,18.84690025824997,22.22507192418851,27.972822176759834,35.12960045719038,38.11020051169526,29.903664871474096,14.913602558506422,1.8084243153719923,-6.112176853272381,-10.959959063882467,-17.272134471497694,-26.97442057211074,-38.07948274952292,-46.49894758327272,-53.93131122793263,-65.2866811490463,-72.47464154054805,-60.469230688572594,-29.16588075597074,6.209105907740874,31.770108192270982,43.64734583701409,45.01057056011952,40.87245083107332,31.860969325262637,19.244782745781897,10.523640737380557,11.071463835774766,19.339690771021548,30.763377997612324,39.946955159808304,40.95266213207557,33.32500667073005,22.379880735587232,12.205491759998818,3.190956560359197,-5.605802037472239,-13.532490015290984,-22.933651222819456,-36.11188056089297,-49.47166418527807,-60.29616467612532,-68.35182432623462,-67.3588106061833,-49.327130014132536,-17.865889153666753,13.56608800632551,33.57561074474984,39.49077051774378,36.47644435730657,30.783470087493114,24.39234518177139,16.3060301485111,10.138351998018408,11.414170718537058,18.069508962004573,23.272242000739205,24.460273729740866,22.690230589607346,17.981015396881233,10.18773338785242,-0.5504573901843489,-13.603214077148497,-25.709816264443766,-33.64486631174611,-40.68417910848695,-51.301409246226136,-62.99278577544624,-64.72295852111758,-45.56079041812424,-9.882997606998028,23.254486217495643,40.230109393421166,42.76090914897749,39.93259357380499,36.20843721995353,29.441756588674153,19.581004957137267,12.541092496102786,13.352791238723915,20.315630384747383,26.49252673470716,27.056281469989067,23.681242780420188,19.224796458337508,11.482528762617845,-1.2656647541212565,-14.877524675216725,-25.276178137216363,-33.908461802309866,-45.97579226317414,-62.235604161281664,-74.51055650026794,-72.58053175743837,-51.1229087366971,-15.53779741555194,17.875981179551886,35.51143758281685,40.57848594963706,42.261524967598305,41.238648525646745,35.226039671185035,26.71038499506339,21.1541359492334,20.940312211317107,23.135389898965173,25.549850889988956,26.980366737450744,24.241590837412787,17.331669591646573,9.316007713183287,-0.838996070520388,-14.273090310721885,-27.570251887453658,-38.27180120305343,-49.03463201282043,-63.98273499546588,-79.53059080058456,-82.5186312737259,-63.36645783092906,69.0,120.0,78.0
-49.8761133013576,-64.2207188206126,-75.99474183067454,-73.19644011409582,-48.839876602257426,-13.529116647629367,14.656360789955809,29.53727305996665,36.868614221064156,40.91086083773752,39.91221285525063,32.68575387238815,26.365621099633106,26.527194868521015,28.228852595649748,28.871482955460188,31.2097402677986,33.32337683310708,30.40286284232849,22.822781975388743,14.680203620492568,6.0801643294023435,-3.4825272823350457,-12.769854257418155,-22.750011272129367,-33.20154247982154,-42.64299009304738,-52.769402368111145,-65.0326801271296,-74.81478301717739,-70.02028090411702,-44.870032495748696,-11.380961320851029,14.882214674078122,29.84431140989401,35.780233151555315,34.64836823148172,29.38615642109592,23.196273803235204,18.247909457989028,17.025022461663415,21.61624372381469,28.98593206838791,34.259327480637005,35.90754183793431,34.56157217575222,29.583433748317283,20.447849933653558,10.091038794510329,0.6510328763336789,-9.784942090200282,-21.69552719213888,-32.060279667946325,-39.87022008196684,-47.37129391070734,-56.80042577630771,-67.34241470442603,-69.30532623012107,-50.873975015071565,-18.029124520007024,11.720047309994722,30.249150453113874,38.71553749403199,38.26019165771392,32.28547203401709,26.55410657120251,22.10625772742997,18.920249316857817,19.46859369036108,23.69159752053476,29.989000109112446,36.84349470626812,36.94422059474077,25.822785510231636,10.676279512051549,-1.0148733422952274,-7.622620792426134,-12.474551422912523,-19.737922665748165,-30.229452291486215,-40.89263315822167,-48.450549669737434,-56.82632346710118,-68.53976970039871,-71.38311953157726,-52.90093668308608,-18.57682062106957,14.94891730359538,36.570640618582104,44.865639865830104,44.251847825060274,38.82983305726675,28.33646744784368,15.95749721195991,9.681865950096846,12.859826053488622,22.523563359491334,33.93241746776458,41.25996601053226,39.44597711138543,30.257030654486734,19.27158470314019,9.550150844802054,0.6041676155643326,-7.971411197047105,-15.907628062701246,-26.412292600859175,-40.17984876712077,-52.837014360020426,-63.029929528406655,-69.4421178385517,-64.03128261937381,-41.09998519454229,-8.15547474462303,20.830775108599376,36.60237942400148,39.22054794371991,34.91279432852108,29.056501724438135,22.20737401681825,14.016390118897652,9.650675860969686,13.089179771184345,19.960337707748373,23.99104031741047,24.224554935193094,21.64936846949822,16.040830448591112,7.379730558604363,-4.156919212995637,-17.419901858581234,-28.41625608557103,-35.50394686494032,-43.319523075870876,-54.921979383873065,-65.13191560336045,-61.538403538027474,-36.23526971735433,0.8260935515011953,30.017190581014383,42.06351724308337,42.13513870179927,38.97245545094256,34.693487758876095,26.727975618489396,16.942100927025027,11.899755726026777,14.989568469256874,22.505516142488773,27.273602020067415,26.295894343187292,22.506505768776787,17.500497041473036,8.224684919156072,-5.36731695311426,-18.264633326651836,-27.742820454687234,-36.83819411421576,-50.46425291049195,-66.6814191630052,-75.7878892250556,-68.39550087567045,-41.72150416297018,-4.826647729636426,24.78518409743199,37.77577415548698,41.20448319704295,42.39227225731932,40.010711773084104,32.79040792888402,24.58269125868871,20.607541282612257,21.488781372710797,23.832241660940607,26.185876129765422,26.734327117642827,22.524521827010858,15.071857943961277,6.7384404412352765,-4.474052912514613,-18.315453409218485,-30.913594101006066,-41.14522799707013,-52.86433744170387,-68.87245946869157,-82.33954541184985,-79.29909491229544,-54.224995594821515,-17.21971438055514,16.194998098999914,36.9714493498983,45.70865414295479,45.26318449012266,39.056931297495154,32.929779652634494,29.518789909555068,28.334205999216245,30.3370766038321,35.045310468934225,39.09143935135573,39.48397762841148,34.565053725238,24.524197702666726,11.522140297283206,-2.462608780041918,-15.499310626406123,-27.45466584047089,-39.226565608643945,-49.904393266881506,-60.03304621132462,-72.70054052157431,-84.78089007315074,-82.11646760540641,-55.47829513932952,-13.631783092759166,23.091239264777624,40.43626279988847,42.87585288403125,42.807472121723,42.78089414863829,38.111509543012474,31.17982173494159,29.253112969282377,32.98887776028606,38.18334962548193,41.40853418269673,40.6913977019218,34.46532236704408,23.944416615598808,13.184399603878456,3.448520430117023,-7.48530517718598,-20.332576511902133,-31.326640317824832,-39.66506838855182,-51.27513620216031,-69.44470630410704,-89.24552698651995,-98.26608725536356,-82.32390274672944,-44.37938705112823,-5.421753756883872,19.75735612052508,31.27497186999034,35.47496124548949,37.50288512631276,37.65056416097404,34.97245951470691,32.26142646804902,33.521808761498704,69.0,120.0,78.0
39.44920122998438,36.82171165373532,30.443577237832628,25.19846101752292,20.960777488899435,18.61144824556588,20.410321659055196,25.31369209045041,32.11094500979917,37.97854263647103,34.7353109413711,21.420497121134,6.76669556155583,-3.3783664286704207,-8.980504470212939,-14.217041125540806,-22.498521332668542,-33.510214454127805,-43.38105754024835,-50.467953010411314,-60.13184669748192,-71.05615750204204,-68.36740249076792,-43.93003866731774,-8.106680068034935,22.628805195245434,40.21954491413476,45.3409530315248,43.137176389041485,36.33284513486206,24.609140971534657,13.221863808131001,9.675773258171555,15.193573227428557,25.861916537553324,36.76425106690995,41.75247004829436,37.29732247517795,27.06194920616276,16.29512406019226,6.957606303153019,-1.9668064239659622,-10.244468527123548,-18.517363321897474,-30.213240956731862,-44.11787587943573,-55.991862226544846,-65.51016885145746,-69.53478824910798,-59.133316453757494,-31.994793093576053,1.1881911188813328,26.925117202746403,38.48844869001533,38.3802903013525,33.25775513508582,27.25993222603067,19.855441435596205,12.054613103470022,9.884326344045654,15.062901241502137,21.566704076073172,24.382375763604717,23.768625430485468,20.34996917683075,13.84590628382256,4.329174199396336,-7.935546035616391,-21.032645694567908,-30.73932885130876,-37.439374074308304,-46.32870005358285,-58.48314804343901,-66.09548145318462,-56.40260205422891,-25.85322424885554,10.792577606345407,35.24182514390088,42.87624632620622,41.294039471682616,37.95747530508532,32.831557167084775,23.823580379007087,14.725046768274712,11.988932428113449,17.023367763506293,24.43272007300414,27.526971526605234,25.31276491753276,21.274968032963166,15.392874607542002,4.562070523163937,-9.389052400280317,-21.324484712551147,-30.15845537131828,-40.19830047800891,-55.23052347633705,-70.52417913769207,-75.64914255745622,-62.51732131638397,-31.397735533533673,5.219209121863994,30.16907717488304,39.25313760409651,41.71894998568612,42.217255912941525,38.337595175361066,30.26189048591927,22.842473222732792,20.502457172689027,22.133293317043805,24.534223180311983,26.68984677864999,26.049081414119236,20.527290675797477,12.78563991559529,3.8962512439010437,-8.360017338460612,-22.23132263414672,-34.01930565128771,-44.14582616948808,-57.1240564175999,-73.61161427901934,-83.70746336478412,-74.12021784394291,-44.05541021659034,-6.595638604565697,23.60918294323736,40.58202092214618,46.42445549277086,43.82166032003508,37.04722860829988,31.690847157096297,28.929991077952547,28.540616850827426,31.534922574862442,36.447886261298265,39.67109039984803,38.652588237589406,32.10954095657999,20.974340275450988,7.498488286098929,-6.393803490163279,-18.99981615844887,-30.889181738849835,-42.469893710884406,-52.76184676540813,-63.341824230267555,-76.73164053299129,-86.22133849961187,-76.84374666977969,-44.14441863028664,-1.577204078629612,30.25937892791325,42.07643933705248,42.73829094694985,43.00035406027074,42.01662927908287,35.987941631428804,29.91093989907196,29.91132234879131,34.531186022517524,39.41787753142846,41.68505349786522,39.493427250598714,31.6937274636628,20.7161789808603,10.324645718511524,0.5313269328835635,-11.107661557414609,-23.885548049184845,-33.82365225271515,-42.39012540440916,-55.92402143986273,-75.40060048237362,-93.68542212530689,-96.57816183848568,-72.85143967586855,-32.264351341822014,3.4892581428255025,24.242769495552118,32.94462796312732,36.17452010111174,37.82291651629313,37.12200149861163,33.988545356814406,32.10359196115357,34.834891462247676,41.65526700025918,48.559656211017014,51.20567467288657,48.55867767224724,42.474142526540206,32.76187066737678,19.352270853554504,6.045470023490726,-5.783517264007536,-16.930220829866347,-26.307343602746215,-35.11778053874298,-46.50264859645955,-60.656109432429695,-75.69679700260797,-88.72416582520518,-90.4097600191203,-70.22054714546901,-32.504120469186276,4.423389803286468,27.236491822189034,37.71516362710539,42.59238189571831,42.59452661322631,36.81172427628367,28.912188526084595,25.299087629831718,27.911179535645413,33.280509634711784,38.5529299654527,41.63096943417113,40.721611804872076,35.83138255232924,27.38546316567381,16.08960529861057,4.462907079678821,-5.346144905349073,-14.545411556639792,-26.313205598062314,-38.801076838436366,-46.5716254511137,-52.16418247735595,-62.548965106458155,-75.02178520147454,-78.63517839564676,-64.74263738943849,-34.426099684412556,1.264819353183092,28.552362345150122,41.86757767376437,45.221431566419646,42.176570035853096,34.413245640768295,25.601558989834682,19.15927309504367,17.846684420022395,23.734355698531004,32.566913168719346,37.411271944306826,37.904830247312816,35.64592143811313,30.219825394546984,69.0,120.0,78.0
24.4927161193374,23.085622677807304,18.788672940359945,11.399479568938458,1.0418747057524789,-11.812049623679126,-24.323516594410243,-32.76994984082758,-39.59015758320873,-49.673507533135975,-61.708072213683515,-65.55509000021934,-49.377866681820116,-14.940518282589634,19.634194684282882,38.97458289208354,42.92541442309454,40.36851968413449,36.809359320615364,30.593828868341447,20.89129938624949,13.077854961131848,12.776634996762308,19.26647125283012,25.9546985049965,27.299393029221054,24.210005654650885,19.919244135215006,12.82778077694138,0.6119281957379055,-13.209014177017774,-24.085364454350447,-32.67300530271785,-44.0431040843152,-60.05935424300202,-73.49926446666272,-73.93364015935025,-55.0493554914853,-20.57023071992132,14.189511645364668,34.117796913192215,40.23089324447853,42.12545525812361,41.64945882275121,36.278901426378894,27.789828872652077,21.5714852355833,20.743534457644273,22.816057339217654,25.234510638809056,26.96191651581834,24.910298158125073,18.36068237177504,10.438653150942942,0.7324497054822422,-12.395015885383426,-25.94211948845055,-36.951118420682164,-47.40960717233099,-61.757691802895586,-77.85123535205626,-83.33423522069225,-67.1302255863901,-33.26242273294141,3.358236981958939,29.85648861399034,43.27429056921591,46.422133227607574,42.01371177743205,35.19824646403761,30.67522374031781,28.523038177455685,29.051001392901806,32.910842331432626,37.69647062202735,39.89194643583894,37.34276919506329,29.2613661152395,17.235236301908838,3.434753459453398,-10.19387011190647,-22.4445408854746,-34.31371963592639,-45.5834707319592,-55.62573630631769,-66.9542261442386,-80.51525807706028,-86.00080419863441,-69.49528802082672,-31.93302252007279,9.50064928307858,35.61192133809524,42.778640721284866,42.66551295004263,43.11317049763726,40.74879907957954,33.853378233376525,29.216944544989538,30.968749079355476,36.08120466959629,40.42726752822157,41.59126214406173,37.79737492686927,28.64436357222521,17.568451150966464,7.535504816062455,-2.5646853069054956,-14.8593811343944,-27.154037303266463,-36.1636061875909,-45.576480138447025,-61.120240796344774,-81.30882335737873,-96.83879225197911,-92.50016326623941,-61.87786855944388,-20.656947231667974,11.057690728973215,27.704760338634106,34.17457397788748,36.782929301996624,37.9388446438993,36.35782944664962,33.11235517436388,32.36006213341873,36.51392505348827,43.86328594893289,49.89251105714101,50.91920611519232,47.08903980851027,40.123165243544335,29.13568018007699,15.338666848902466,2.5302285543221656,-9.096963623547051,-19.85740014854281,-28.75437663440686,-38.05903098238461,-50.38787556021551,-64.98367192357915,-79.92099701182188,-90.96208203855464,-87.01546150044297,-60.440619448482224,-20.90086909679324,12.649345146049477,31.18060808325479,39.53770660032041,43.18762268571241,41.456280304711704,34.46279882562086,27.19775002837587,25.52103486799809,29.34749810156793,34.898321722495865,39.770101712211584,41.813015182012485,39.68577862110817,33.752714892796845,24.333175019832666,12.631109567064238,1.4150637867606246,-7.91247595684106,-17.611575791532644,-30.12046185431692,-41.63725504636142,-48.045438294669424,-54.54107373261492,-66.35790765143769,-77.48653362878107,-76.58954962635224,-57.33610561908409,-24.01310655784583,10.492783135472802,33.76445066033678,43.61776925934844,44.94329710463622,40.29258129914648,31.790088176015743,23.38641531747222,18.111218848111847,18.832714943261156,26.356290878892075,34.528500729217136,37.887419117793755,37.536606883622085,34.420160803963824,28.06538580967643,18.99430454079897,8.354282217800671,-1.4486837051443846,-10.903483148517035,-23.842807008547698,-37.90286821514665,-47.3922044170296,-54.521355843312236,-65.69546702313302,-77.74061087793098,-75.76158971565107,-50.81118418600855,-13.283518455110958,18.867003382330957,35.93903027264372,39.845650766727594,37.617719605204776,32.173408970641205,24.721057777299603,18.64405863900086,16.826974322845206,21.31054890342199,30.203078698913796,38.48126457645242,41.62672108627451,37.32082071897857,28.020063999274115,17.486284611532977,5.674596900701066,-6.101504211954274,-14.333967891859519,-21.288630714970697,-31.260280201407394,-42.42465034810173,-51.63967463998581,-60.16252508171452,-67.92405659434219,-70.22738895000369,-58.69568276960106,-29.3709974693339,7.527108289824882,35.7110871480226,48.060541492896746,47.15634220673337,39.80110715816001,30.568529474834826,21.31074067255311,15.609489165984112,17.135838890902885,25.440279117978076,33.99161899741814,36.22472740505149,31.95031559474465,25.126734603684778,16.262954757242035,4.603016589793255,-6.182299734301515,-13.010177533456137,-19.92880283534382,-30.664270672534737,-40.99025261276057,-46.12431287512538,69.0,120.0,78.0
-58.59088789727026,-22.25628178643058,12.390297326663081,34.9726355915796,45.12374646458923,45.76365825098368,40.0044926096116,33.5856332189144,29.84553497981225,28.335146071443024,29.865873979387946,34.37149626680513,38.715769718623825,39.7123774106594,35.54975516159074,26.08315702855028,13.350810526750402,-0.6155639801270144,-13.853972657391258,-25.87296304906273,-37.69430230916704,-48.566021816995615,-58.59747183607393,-70.8447787072499,-83.66332887887621,-83.82630446251696,-60.27362623101086,-19.379973382556077,19.182817610762374,39.26175532245659,42.91303383631676,42.73368606581491,42.97388674630614,39.024738895890856,31.935305999843084,29.113623488413843,32.308733379120824,37.55178456904657,41.168362445725926,41.0802793359999,35.618437612996104,25.440687779179022,14.539123282057009,4.751734309625436,-5.8807682708361675,-18.627006089685665,-30.08569533746548,-38.51982781878215,-49.33529963950426,-66.74783453437938,-86.88280093136807,-98.28217024755047,-86.04598821661102,-49.99355381213928,-9.964169971151811,17.30170996103992,30.312493538568578,35.109836890781644,37.30223091057066,37.80412899764546,35.42913251776887,32.45930242361488,33.054841451178845,38.48055780814967,45.95517911565771,50.77810781963643,50.21255628355705,45.388242403700765,37.416179551179624,25.248508837329975,11.445300257461646,-0.8854656157336747,-12.35814284981953,-22.594031468447866,-31.23494699267285,-41.28111111441684,-54.466794108996794,-69.34558708618029,-83.88297477547181,-91.93353010432449,-81.59558694559163,-49.50787222882078,-9.877394437981142,19.513143641231103,34.2798388127895,41.02365734975923,43.321440318171135,39.84207501843563,32.07986473982656,25.999639351115775,26.229212096241213,30.908853398384025,36.46280839469625,40.74610586171257,41.63081369937601,38.337509854467555,31.376932970519523,21.07577859023513,9.222741114837989,-1.4465232790587992,-10.502550539083641,-20.966640686832164,-33.85483398530144,-43.96268152205657,-49.523554172046104,-57.45711818849507,-70.14298224358807,-78.91205360928966,-72.93616976858641,-48.69450462582627,-13.501455901017746,18.703336833130482,37.80200801576011,44.68914695034897,44.16584878145183,38.068189590354834,29.18830617469834,21.429675972876147,17.56947665307922,20.450266590326326,29.02462000592952,36.02856536173941,38.0659471983999,36.94898753372083,32.91312429007826,25.68463799070707,15.998253128818119,5.3370784731530065,-4.032289570050406,-14.210064392446332,-28.099573175733287,-41.210481698819216,-49.37521721897653,-57.1877094254248,-69.6173911089797,-79.31708361604386,-70.81032975880734,-40.424059750906366,-2.7883655998157053,25.465991590859264,38.10560838272576,39.59083235401777,36.36097971750482,30.09903063684508,22.676330350812847,17.565736443669888,17.453029255590796,23.635258220135995,32.878038593398934,40.086387098692285,41.13792090593401,34.93347505882265,25.038947266181818,14.242625228683313,2.0851845779898137,-8.896835943864621,-16.213054501272538,-23.816018820142737,-34.56853440808302,-45.29718822996839,-54.087299668600856,-62.60828427191174,-69.47160060192554,-68.69731886307534,-51.88709067033643,-18.716610707501385,17.11915547717593,40.923358287953114,48.89292495981363,45.39625572877731,37.24475074318051,27.78224784316901,19.10113715371434,15.211653683075415,19.034598842873997,28.24893097316272,35.44397123359168,35.48465361030613,30.11921372448224,22.856902858516076,13.111648565021074,1.1524043181316288,-8.5071242381062,-14.716568422619286,-22.680417052321715,-34.00886527090033,-43.01646367519591,-47.021830208921656,-52.506581861116324,-64.05727347220498,-69.8208042295922,-53.510356336393755,-18.55415054431638,17.750300107638495,42.060257713379784,50.028068992477515,45.33438719579334,37.032847898585054,29.64636300868973,22.21269258323705,16.457649067776156,15.546045159726436,18.692772096821287,22.915348282946436,26.524937599952715,27.5632415556775,24.29948096792422,17.258628954492444,7.895943073986728,-3.286028265619571,-15.304546159111474,-26.04848061135432,-35.456818715281386,-44.661374940321295,-55.66296113309908,-68.42475324382187,-71.77220330826529,-52.118899550443764,-14.772169564662736,19.71414017460012,37.914140689115534,42.947707113774776,43.389575672082955,39.98716262774556,28.611432001928076,13.725647604773986,6.579768190201696,11.558055744091714,22.171613541919843,28.37654318131728,27.358818279671247,23.128114549177152,16.682243670333442,6.508240121426829,-7.05586796770083,-21.243619582974443,-32.42275573261953,-40.615127753428766,-50.83967701824464,-64.35903473342843,-71.47921381616605,-59.48186182383031,-27.225675484219444,11.277277403788064,38.14199835596789,47.40779944121447,46.80763868138686,42.58746655014068,34.01806443171097,23.21328864674809,69.0,120.0,78.0
34.180293396419216,40.63283786195312,47.81213543262604,51.18226151334216,49.14999449298127,43.45408407116223,34.319222610448996,21.221214119372178,7.712251255274747,-4.24544128405496,-15.520512253315033,-25.16300889596266,-33.84640728121314,-44.791974390879,-58.681450795919744,-73.70443490643923,-87.36129276197414,-91.31032560784013,-74.2211483659594,-37.9209243453483,0.18499842736742264,25.07293991799472,36.74409327148029,42.18018707319332,42.945424268730555,37.83604398483159,29.844239580371074,25.38393023118852,27.315137772996135,32.52834762527406,37.92675835201132,41.427796640376414,41.088428049818496,36.69015913997885,28.708966355678488,17.68041328111497,5.9290112084458695,-4.1437181479422245,-13.221573525608525,-24.582490117705103,-37.33079638895384,-45.82899840653548,-51.2387980730943,-60.85754818332865,-73.61247717667896,-79.05510359555126,-67.68197546761924,-39.08987515587201,-3.2647792299633895,25.731713048217554,40.795593388368005,45.17706692387858,42.90849012328843,35.60171896579082,26.694983432849536,19.789777039577324,17.61283634536849,22.604515381864626,31.522306125056,37.07115777005821,38.00469539487021,36.11781875203348,31.130396834191046,23.099166441238342,12.903514360511883,2.468646665985933,-6.670686835852273,-17.895695100469414,-32.2890774754717,-44.029719064848514,-51.321813964355755,-60.335659444999905,-73.38147711595735,-79.28478404151952,-63.8875516984571,-29.43000792217186,6.848658152833049,30.68405144174078,39.32795879037516,38.99012806979917,34.84226065029931,27.9122701395236,20.83635945393369,16.904644786371314,18.64508046527465,26.224048753697943,35.37633079050024,41.16058305968384,40.00360923007888,32.2451025371199,22.018197991212194,10.851256058842592,-1.4113180508005825,-11.323428851481108,-18.12991810381406,-26.658516533472746,-37.86154818303734,-47.971350476554086,-56.54338250813074,-64.94209776617924,-70.41053525075938,-65.77261059755756,-43.6001308075599,-7.836461895186697,25.618543851178963,44.765207515892435,48.74636452665279,43.28271085426371,34.58619415145818,25.04097210866507,17.299696657137996,15.49176985480143,21.427039588086394,30.870606185439417,36.243952987021444,34.280351716794485,28.170915895564278,20.37195352567297,9.734344821752694,-2.0797938998090673,-10.486782891701184,-16.599328674898683,-25.77685338075257,-37.13541330172966,-44.54818792117316,-48.0480129015331,-55.390578594676704,-67.21962674071398,-67.6857842744536,-44.63858344517737,-7.438640402054826,26.352431732318774,46.03414985469801,49.6062388419236,42.939210222618904,34.81838691863506,27.524946100287107,20.195916207205812,15.644192972335546,16.17309586048277,19.904738993316904,24.08077245782732,27.20067024826438,27.08036792654083,22.58367651242502,14.749190440937367,4.842537465868376,-6.767067125160677,-18.600775356834603,-28.848001575040378,-38.086880748094025,-47.530012412564844,-59.41376557005452,-71.12153337513871,-68.69154050330064,-42.33838198394653,-3.6108981550237145,26.782475217293534,40.296675485320556,43.30691061940792,43.015630100670975,37.56477213379161,24.179483134694326,10.450850450586,6.884645933124178,14.520985274741795,24.748805919439533,28.684870442573054,26.31230734776746,21.57124202748104,14.156653507073317,2.859680856233629,-11.264619767645806,-24.895239835719437,-34.93483017950367,-43.12009268356149,-54.638854535169614,-67.70958248659274,-70.3484359122166,-51.85519295524302,-15.884751748186599,20.837264687825193,42.435622062990745,47.814478060848785,45.91431671898446,40.61754011907178,30.827849569673027,20.719605849447408,16.614917141222,17.783913028737647,19.38547269887506,21.124780568736494,22.39189491654783,18.373616786635715,9.501642158613333,0.0824458078028989,-9.276970057741801,-20.05599469861561,-30.556118766245344,-39.67819922677138,-50.91812377576852,-66.22663073526921,-78.7140152803029,-72.83694772031875,-41.06040299329951,0.3268193789284899,31.17501252222452,46.68392547403164,50.82421844041814,48.515729652905264,42.04068859933627,31.965891687443715,21.741582542198866,18.730371214665368,25.468807489138577,34.302803594454424,37.33914647157713,33.44962832525556,25.755930089865146,17.083180622024255,6.561200363102242,-7.376823467509238,-21.763293465836462,-33.41774285411708,-42.406319761920315,-51.958165922432066,-67.5721760857343,-85.21846800458768,-87.71843094310977,-63.92080024128751,-23.917103524466974,12.656925200621968,33.45097738053116,40.38650086459195,42.11648390225909,41.2611764735802,35.8891878655659,28.572145874925894,24.943272621056835,26.394855760484642,31.988358672096822,38.05679681783897,38.629204541717314,32.664331308435656,23.87483885060296,15.578871949180579,7.599067804251092,-2.5064468738763286,-15.775213753236606,-29.954577731218084,69.0,120.0,78.0
