26.575407560940956,1180.8059784619013,1555.0970695253527,1356.431672931123,1153.9026377344396,1090.4509292624275,1032.8862565741265,927.724189141529,818.1727670121602,727.7459145195841,642.050563815612,550.8200102502335,457.97437659596875,369.0530724841691,287.0003384387496,211.76168984492838,138.62326830109538,65.7553833944189,-2.203814210975416,-62.88363470049061,-118.62731622842895,-169.14548678970363,-213.2977007622131,-257.3630706405093,-301.0942228681313,-314.46652102924594,-275.19728731256146,-218.9226585465521,-189.4663392542279,-181.66132096086085,-172.45609480712523,-154.41460103361382,-132.30884259416263,-116.24918131003693,-110.49954357789952,-108.79081163829862,-103.49880921774995,-94.02060029617965,-82.91486412498766,-70.88646279213896,-59.92330533867237,-52.92645208285637,-49.41756664509357,-46.09376149432326,-41.63515088532085,-37.54350205783409,-35.98083604211831,-36.18577537301544,-36.68648831231191,-37.78089150237338,-40.42775047331502,-44.88125504644735,-48.541295039528684,-49.38187181366558,-52.56467100262583,-61.79920474709084,-70.25817341090725,-74.54309682205356,-83.37448347244622,-95.80041936316358,-84.17527734454535,-28.172304267395425,44.05342855400459,91.08886072057923,109.54352748270959,121.0814101001146,137.04183183525527,151.68424569279634,157.96869732486684,155.13082130850415,147.94799905468366,143.16253294203594,139.84128745521065,131.59907885255936,119.20897060267322,109.2834231250165,102.3201903365667,94.10209862122665,81.89007611332065,64.22757817773122,42.73084079480222,24.122360903592092,9.177618875527417,-8.021701110307374,-28.056779821218363,-46.55024020783043,-61.523980262128596,-75.3518559449466,-91.36299182768363,-108.61026669741939,-122.67256473683113,-131.86348229760313,-140.4086456257642,-156.50315786906052,-176.49655968199795,-169.19519833360062,-111.63237748338574,-36.00254453717723,8.535022134403178,19.28901343003826,25.904084770243017,42.778683430985105,63.22961399945206,75.91620690715578,75.37220725173563,67.76340960142224,62.678859946001566,62.72430604169143,64.08926203512253,64.38205602583912,64.70189576215876,62.6177630452637,54.03887625254407,41.19387551795465,29.232345415454002,19.22694332082961,8.214819737801514,-6.191031259400791,-22.940669521644466,-38.52978697910368,-52.290035328222075,-67.5935133848611,-84.8383391322887,-98.02853719079076,-106.86534631855673,-123.48407557357241,-147.61590420787877,-147.38909533802405,-97.2077792789128,-23.901255896095336,26.39196759124547,46.256066447787894,56.086049598593824,68.70289974288514,83.3866017505733,95.01785955580941,98.83041107298915,93.31347313368242,84.19522803077072,78.81509211618727,78.52090103359954,80.06922944415098,79.39968582032388,73.861974131246,64.89351839572888,55.527377157304166,42.75847457397257,24.144618933892794,6.381122585435865,-6.200271699544739,-18.930345433137948,-35.24099544141407,-51.62990843161202,-67.1525095264944,-83.17109859769906,-98.04122787479776,-111.50090835084232,-125.91553022875785,-143.70761638136207,-163.5051951070648,-169.98510028361088,-138.62158553542218,-72.26761166262904,-10.144552379550982,21.832752573682875,34.58005017136905,47.174892621635244,65.57602467813028,84.71120479906668,97.15085949462812,98.06395225293322,90.37353877308014,83.6244544570918,82.15090658321121,83.24266910614276,83.72845458190795,81.72854104270519,77.57510430590885,71.20801118473506,62.11066153763393,49.63489826004496,34.76632170732914,20.5012884109884,6.123067821574133,-10.681174541190176,-27.94711564503459,-42.09724716633052,-54.019850198919464,-67.05666364881944,-82.40502741029314,-98.50372427847861,-112.37875442398907,-124.44127597952452,-140.49918572392835,-157.8457765574917,-150.99035503223004,-98.91755972693602,-28.2771369400571,17.420840067215654,33.74736549210036,43.21335654617582,59.015317418636926,76.51929077286765,86.40575302803934,87.12933522274018,84.02209187604655,80.90489241283036,77.91104966548632,75.15159256606819,72.5846130796996,69.41303318736823,64.60276196678652,56.38504589068862,45.190948836132286,33.922863132521336,21.96359502593211,7.226167395364267,-8.643204299585355,-22.372888967033628,-32.92417001666766,-44.66149318909167,-62.1489708222601,-82.15412516255479,-97.61665119515209,-109.43598738968883,-126.90292769717621,-150.27290557424143,-153.73254921846097,-112.1059001128406,-45.042242188290146,5.3770478227781675,28.755453717703723,42.30125291617536,57.151638020899526,72.51591016006033,84.75019152641075,87.91048511244291,81.09620861905417,74.95210727243133,77.1113297149271,82.72398653989583,83.21716178357168,76.20620036529259,67.04388168108372,59.28402684015701,50.02674306298667,37.43383345647514,25.510122546300966,15.685312854614441,2.689056666479692,53.0,95.0,63.0
61.2362315891658,98.51464903772714,112.68728674805124,125.2785596134318,141.83183260275803,154.49880848390328,157.98448816041414,153.15685356450203,146.1565798395877,142.3419201335006,138.1479576454749,128.1445820539801,115.89598061791945,107.13790915243209,100.24563097545676,91.05274753772078,77.39318103465833,58.15221530733252,36.80387058478063,19.674972079164835,4.633907471741984,-13.696169775907888,-33.72850871176486,-51.210289118780715,-65.45081007107238,-79.69190611249617,-96.39201180239274,-113.18112454620149,-125.75379159554602,-134.0626057011487,-143.98271768687655,-162.78583666379677,-178.94450079491827,-157.42786996654377,-89.04165891921686,-18.725001367779054,13.937932146706986,20.43988541417732,29.78670838812937,48.832996456428916,68.13357887703052,77.05238619649447,73.41514199534805,65.75188389331396,62.263042269123986,63.18983076717684,64.24887374024419,64.46281215569758,64.58538212136794,60.85225242638316,50.511666167356196,37.49443163512993,26.22858907331041,16.30505649348867,4.427982311465917,-10.930974247481108,-27.698401662748054,-42.58038895716382,-56.40175883640077,-72.5657103876211,-89.3423321875479,-100.6386333268592,-110.31681793761332,-130.57704733447883,-151.87826134069505,-137.91839990209866,-76.055791761357,-5.745189030822556,34.49491946078376,49.248500201933496,59.289954144426474,72.95292867738532,87.28326306954426,97.1022202624759,98.0770615855357,90.66129186252174,82.06291889986784,78.30525895972676,78.96468634773456,80.26681715389903,78.33537414833302,71.43914795114219,62.22520184920673,52.442614309079495,37.830120405413744,18.53599616512667,2.3219070265235358,-9.54954086384861,-23.362256425060266,-40.1318777682138,-56.104522993963954,-71.76154926014152,-87.66654212680088,-101.99715246187505,-115.44439419689319,-130.63452947500932,-149.53761183591067,-167.88758630252858,-165.5568785928567,-121.70454543231654,-51.998231550559105,2.253759335450142,26.503366953476444,37.677060197594884,51.99486565718617,71.36845469956592,89.29006253642511,98.66537849185943,96.34079972499431,87.94435929544774,82.71437979883062,82.35864361590109,83.56878704226133,83.42102336528225,80.7219994840459,75.99476513046213,68.87716507612328,58.880373798726154,45.44203786099403,30.512602920637818,16.499722783638457,1.529873306792349,-15.818773490419607,-32.41998495702473,-45.61743876129667,-57.55895291617104,-71.27672151675476,-87.10780935238309,-102.84512351839163,-115.84856217539806,-128.43160371868112,-146.0837701013312,-159.8561248510806,-140.43411269573593,-78.14958479466286,-11.399268174749043,24.290478038583466,36.22665393866104,47.069093401642874,64.36338564425056,80.43025911605135,87.37236445424094,86.37285698073245,83.07138439157596,80.05057517210626,77.05968030379324,74.43334464035311,71.75244979898588,68.27378980778309,62.630846114338674,53.334302105820655,41.86270972989618,30.677727731070966,17.98972902384869,2.6120347851461565,-12.958793649292675,-25.655253886216588,-35.906543752497036,-49.08807464125465,-68.01838787091269,-87.27418078323676,-101.07066152750433,-113.49521174859022,-133.69400214775965,-154.92964947385897,-146.47736196335856,-93.331692473424,-27.4610497512797,14.343388060895162,32.87472246047053,46.37149160279711,61.67203577575136,76.59355681171806,86.85634314192764,86.6613108693449,78.68166526580126,74.73719486262216,78.79343387660367,83.67201577291101,81.82376482094485,73.48561629006892,64.70333506569817,56.94777127955573,46.6421928497653,33.69542130685419,22.62624066523242,12.498951159402592,-2.1622142927471066,-20.79058233489594,-36.21291920018296,-46.095184139269286,-57.54470470546247,-74.32713965917966,-92.41646662036736,-108.64180964587571,-124.52247703666403,-144.37991698029785,-166.86703931428957,-170.3483220686669,-129.6340643025645,-59.08326925163885,-2.7001579315733792,22.78249247002009,34.8289897129445,50.38182315107786,70.60186174012614,89.42643112012072,100.38965352225314,100.95176717756195,95.03082626229886,90.48491283933993,90.97516030552269,92.14515862075731,89.17016566877388,81.5244694949882,72.75761897075857,65.50855450587146,57.2740962537737,44.89834130195585,29.983846948876444,15.957545384953159,1.4699773390358428,-15.81832138878072,-31.552357647022333,-44.28275259011099,-59.31882239526499,-78.04956696351539,-95.27759819523556,-106.52375406468396,-114.4793766086943,-127.79015810171434,-151.9820520082498,-168.99657623006777,-144.63308886910082,-78.22400775431377,-13.242914474076334,20.80010863851685,33.96447250666012,44.905385788324644,60.719153791614985,78.76555840954907,90.53012844810574,89.51011407677306,80.69441656669771,75.17659637816709,75.60734134024605,77.32874065265037,76.8421581290717,72.84391037333963,65.44053825873276,53.0,95.0,63.0
-114.81416914426694,-137.99461246046877,-153.0287752422617,-124.01330099048536,-54.22424105193484,9.542121629951135,40.378990777441224,51.95837032754386,62.87336961370079,77.26220900147345,90.80253614595078,98.4179111641287,96.56614889786523,87.92217919594161,80.38626611161189,78.18304661017233,79.46122897150934,80.18336163887564,76.82056494121271,68.82435813738044,59.57008222070332,48.9187105007917,32.437170930202775,13.244873352041878,-1.3099959134886177,-13.111908636501052,-28.083489292703995,-44.90830585938925,-60.55692374895191,-76.41704330120898,-92.00519831551453,-105.8665359414715,-119.53717772458613,-135.69192847621485,-155.44709305441114,-170.5828637423711,-157.37597204382422,-102.4096481575938,-33.25520350026414,11.910712589010947,30.115445872604063,41.14423659055479,57.29003690878051,77.03868885050201,93.13494463769737,99.13545268487931,94.07800531957363,85.84717469086104,82.24314407729773,82.68928328050733,83.7715494212999,82.8838313139585,79.55980051071359,74.20976332674391,66.31395795704118,55.339832846183825,41.116700611659006,26.37697514562666,12.41306974386457,-3.301430382277489,-20.890655971996388,-36.56720050571647,-49.02922816922368,-61.26848825260451,-75.68863774433052,-91.81078718603978,-106.92162155315356,-119.2437261218307,-132.94222970413898,-151.52932387560915,-158.97130898825858,-125.88516175414993,-57.04922247617867,2.5311891946713097,29.089753433339546,38.74114513232112,51.574137897730665,69.60449625819662,83.50479380629677,87.64708061690442,85.45183984518737,82.16680169332413,79.1855743852065,76.25013662467629,73.70843926081389,70.86046282089463,66.95701521174367,60.33167539595836,50.08609287538103,38.60353582201075,27.297472862617212,13.76118660481017,-2.0203893799676,-17.013141930212303,-28.69006847808839,-39.15103752039606,-54.06296082925349,-73.92010828774406,-91.85958138633262,-104.36190832671811,-118.30838516018417,-140.78387332302077,-157.00677905022988,-135.0984974162967,-73.46884230718175,-12.20484501839275,21.254157350499295,36.68633277345662,50.647641819009344,66.16273352156117,80.3097235646848,88.02544479987114,84.67745623052582,76.67640131176545,75.2733934704033,80.5419383525644,84.00174322143639,79.83821936930174,70.77131825293324,62.488902638484284,54.370483924086834,42.990566469428664,30.165246934754798,19.85904961551347,8.884779057068217,-7.399738960639643,-25.887565995553874,-39.433090867683035,-48.886086429499414,-61.94038803852085,-79.6476964345891,-97.305481473394,-113.10823637720834,-129.65466176173902,-151.12255047631987,-171.2600830660564,-163.50134253701748,-110.43310750046673,-39.71013374350097,7.428148226201792,26.614861151726934,38.64728746128733,55.96678472035056,76.49487580056147,93.6255517319648,101.57199775484932,99.58044152913725,93.25452347517492,90.18374947496503,91.53020443895066,91.81634453685784,87.34794303889444,78.90308649026444,70.53056537811437,63.42317231254084,54.15851393121625,40.66381875721439,25.778999187578417,12.010057949988203,-3.3168220240022284,-20.773167467042384,-35.34731149148174,-48.17833667794872,-64.49291018637477,-83.48178407660433,-99.16540504177,-108.86650398943202,-117.31239177639833,-133.85958449832265,-159.18899455273987,-167.31273543632818,-128.31456192700063,-57.18655864495935,-0.10085950225431384,25.77859368087665,36.80292159870242,48.945692578057056,66.00544281007349,83.23895753172691,91.58135812444313,87.25001033955076,78.4033063588938,74.86060310556526,76.17633916366246,77.50703450560499,76.066236001554,71.009063831644,62.91766665024939,54.3229434653195,45.57814045487293,33.46212973182006,18.019034588114337,3.1056829465212656,-9.24029033927024,-23.109751150383268,-40.87367476966871,-57.93731902762441,-72.70772453818448,-87.38948691684449,-101.08609673650284,-114.56441274529193,-134.2964885998984,-153.6997018115642,-141.97164139944047,-84.93733661179728,-18.59736296984769,18.038912241576156,30.47674572786511,42.40155884264179,59.623943803137124,74.90381502285521,82.00698338580588,80.46720650313907,76.1059316261631,73.47794127278891,72.7800866724196,73.7293622953929,73.80034437506552,69.13780257010814,60.40040141364308,52.10317853918409,46.62639059596126,42.16276052943662,32.95633907728511,16.503408588871974,-1.206808649047411,-15.182879372615925,-27.768889299412283,-42.69640979953426,-59.223120328033644,-73.99514771481641,-85.692834298341,-96.36886660091044,-108.25604238969458,-122.30465642434878,-142.35527826065518,-159.9192769209334,-143.52179224960636,-81.53644076963728,-15.456355080543537,16.9646335507519,28.41557561642942,43.09131264575036,61.861841980225286,76.86152739988952,85.2795124605853,87.17526272578405,84.87808980737486,81.51770764366546,79.59764115822348,53.0,95.0,63.0
-52.4303878198512,-65.18114316643457,-80.2585255475869,-96.42794327502112,-110.7159833372628,-122.74066718430677,-138.00641566858866,-156.18612034319494,-154.44455523002185,-108.00269150335399,-36.921134549335996,13.39332424431026,32.47793113102893,41.66379402612875,56.59017975268798,74.46959857478498,85.69088271786627,87.38545669972561,84.47265282691734,81.29879400914665,78.31202627321424,75.48909287562557,72.9501334030053,69.89278592816994,65.40861742369793,57.70206167231016,46.739755255460295,35.39826238717312,23.705286924583138,9.323758658766604,-6.585003726470204,-20.756641675644296,-31.591015964812144,-42.806607470459355,-59.51358124056555,-79.63579705491026,-95.90858168481287,-107.75632117482547,-123.99530622679211,-147.51776744805383,-155.67030727971667,-120.05256280762556,-53.76256902150063,0.4320275865258803,26.636070885107753,40.495340232571124,55.07775898883215,70.55039142733143,83.50365943935445,88.17889326731091,82.25965322462041,75.31976863038199,76.42598255209067,82.11690106380121,83.63028482321533,77.41742376715379,68.18044702840433,60.30887409047057,51.47669317844083,39.19249834471555,26.914493229245288,17.04591853330429,4.7641473952787585,-12.856922505511104,-30.50729367100902,-42.24954753031838,-52.042368592611574,-66.76648600544445,-84.93632161927256,-102.01059789450655,-117.61758104471879,-135.25766612633606,-157.92837261426703,-173.2849140901897,-152.50224233469498,-89.6463503937749,-22.622957918702866,15.049558728816757,29.93512639596184,43.01601624803624,61.83673277613771,82.1022491854127,97.02204570135483,101.87982762379758,97.82854095150704,91.79951178880326,90.3062303576848,91.97217146651799,91.06520334303906,85.16281853755618,76.31247096366528,68.44688983290058,61.14688299895364,50.64769870290322,36.315454428742946,21.71528050243609,7.918312593515303,-8.34326171237911,-25.424864331084684,-38.96376151732097,-52.416757154631156,-69.9302365168868,-88.61160013933964,-102.50093277622345,-111.0676970776695,-120.86117311830544,-140.87669378942653,-165.02457149349848,-161.33698294904408,-109.05399513976035,-37.5837665498256,10.18614644025953,29.553510212068137,39.82388827260577,53.446319711675265,71.3420756445223,86.93678448751474,91.47776569456954,84.5987207539375,76.64643020049478,74.97219742869054,76.72798668333368,77.44061670619276,74.98311825891291,68.90156911452509,60.367601891389775,51.94238799436862,42.52610848072303,29.209394265260066,13.467402568434368,-0.651290310369258,-12.832115130696813,-27.974011319416164,-46.08903808681668,-62.33374420969384,-76.92611181362678,-91.54094729652353,-104.76011616429358,-119.41629246712586,-140.98003115331002,-154.99623192657802,-129.40432621517542,-64.38130977515543,-4.336151699500683,22.95715315122644,33.283848936803075,47.07395945277312,64.59098240961778,77.95562644058553,82.27326586133306,79.19101126641816,75.11723142750803,73.09132513616306,72.92332510327495,74.03876553515231,73.03217646846122,66.84990425043236,57.776429625328404,50.227744473458515,45.432976563629374,40.263595345890344,28.805066450942086,11.16374992500819,-5.642706525034066,-18.749769673278003,-31.771266542754155,-47.457579639001366,-63.79134247437845,-77.65966199579655,-88.7342623415116,-99.6636558945045,-111.95811594783692,-127.38240036009627,-148.78481738365093,-160.13977904783556,-129.3040322372989,-60.3654597820266,-2.325757442865737,21.04344988498764,31.85136576787058,48.48707217136192,66.81087244942323,79.99186739455105,86.44804321855092,86.78475360459605,83.91126421591468,80.67842762671843,79.79126937220997,83.45968868346546,86.39783167945588,80.86261236473175,69.3124367831501,59.75271518111771,52.57193687456872,44.186971198411825,33.31018632574158,20.028170687698765,4.337124718709294,-12.083746313427227,-24.761190841380255,-34.13203941569239,-44.867458183554014,-58.34280108063152,-71.48359219507537,-82.19203036854289,-91.12948497387467,-100.09929145182574,-111.53139137824651,-126.79712702002158,-140.03166373996757,-130.80348809219376,-84.93106464873294,-25.34715444726884,14.752549986691745,32.57453517997899,42.263400646684566,53.48935869831329,68.90413892334197,82.03884939385826,84.648654566017,78.01281453383487,71.19410196059924,70.09254592304369,73.4627856969512,75.4749568383033,70.22450145650026,60.38106209125297,52.60696873647787,45.58194881167456,35.76678769056432,22.862186556912942,9.125662592493555,-4.3247349535247785,-18.39649671228876,-30.811731638037394,-39.72862934269269,-48.87631701844538,-61.320735830854616,-75.28260535017182,-88.09751559750066,-99.93881928139847,-114.52024953629945,-133.12457185209098,-137.41979710304497,-100.61732240745371,-34.5492679880415,15.647751479092836,33.240667063624194,38.890845476538914,49.95471746988945,53.0,95.0,63.0
0.13034099329965648,-18.32611601416198,-34.549050227834556,-44.87847153126212,-55.68722540325225,-71.89804578164659,-90.09689780689442,-106.57133253706618,-122.28286959784565,-141.38772522638504,-164.27962062814404,-172.13354008126112,-137.6233131827077,-68.55980350877192,-8.315002528082086,20.685355143585163,33.2232860655878,47.94237794024519,67.83681473312623,87.25163818371153,99.53752760186177,101.40133347212297,95.91064234295303,90.78664492770021,90.72622914621714,92.1666097468564,89.8700784800081,82.71136458564301,73.84182332265763,66.43708341376286,58.57831217452934,46.78031396431503,31.964666312991397,17.763162378079834,3.574951189490843,-13.4699193523358,-29.703137409002668,-42.57318618423409,-57.050289194293526,-75.49074331811751,-93.29560381197793,-105.34717173800787,-113.33983251320146,-125.35695100475348,-148.46100874674678,-168.47662013910153,-150.89115341477012,-88.08899346128078,-20.288460871098465,17.942354132607342,32.645897631503495,43.200935959942484,58.35022420548755,76.5085207867117,89.65164502259377,90.3328019920946,81.88331514728452,75.5016676258743,75.36787903588144,77.17635013158232,77.09832112022383,73.5898879154296,66.57095050219716,57.85962283736372,49.496439055095905,39.109961879785324,24.734438089230164,9.077314717297012,-4.195121923476087,-16.717205748724304,-33.13080095561716,-51.09511753658277,-66.58347015244209,-81.18169794879633,-95.54223403742064,-108.50732830184164,-124.99360710843703,-147.20999217263702,-152.7416726741467,-113.1678341294095,-44.396301331052875,6.837371135372744,26.456166101296187,36.54991914851099,52.09922654321144,69.18661392455382,80.20827279481186,81.88069833493415,77.86613937288,74.32235212835955,72.85243419843097,73.20151617088221,74.17016334246176,71.78810107839546,64.30535257545748,55.306561686346996,48.607528507000126,44.23883955647246,37.791648584726715,24.077768454961248,5.932467953587418,-9.71815001230095,-22.319493563296952,-36.03593408379659,-52.277313033123875,-68.13426745940194,-81.06574587530491,-91.77595407615735,-103.07823196555098,-115.88160204117588,-133.0987958020073,-154.54602948609622,-156.5643214158227,-111.51108408491353,-40.3361624080723,7.536354088709,24.146438769449794,35.958727312656926,54.01854269895878,71.28586829741639,82.55696030442921,87.08299456845103,86.13153814012901,82.91735565897534,80.02443963671801,80.42988046495509,84.81872229163635,85.8036872735337,77.75161162408337,66.13815636380097,57.616326677502215,50.37165496751051,41.31115056589349,29.70757408622341,15.744483208094303,-0.5250374281528162,-16.267062637467916,-27.60459959724084,-36.927796164266006,-48.56472915877445,-62.333045564797075,-74.8318876654144,-84.89322809407689,-93.61374932071199,-103.04803569425943,-115.57244932740493,-131.47043565451656,-140.78530042945448,-121.06451856418035,-67.32546547345805,-10.986970463954899,21.603009010485117,35.64528534106062,45.08283829416713,57.631310730373684,73.38613614596815,84.0513248850702,83.33361305791955,75.66279551037071,70.22410977002484,70.8017399041793,74.5100699800023,74.80840193490725,67.4797004828848,57.820002015553364,50.70345554321689,43.11085172013722,32.28487157619396,18.86569669192501,5.2530268544205505,-8.33889369340419,-22.333821116990606,-33.664060037175055,-42.12814806154938,-52.129571395750986,-65.35383647790971,-79.1560258716481,-91.52526065664846,-103.63548623469919,-119.79598750797668,-137.23917193218398,-131.55504015360881,-82.65996640309115,-16.699555563889348,23.537792483388284,34.97690588226896,41.270568298010396,54.38551703434411,69.5866570386376,76.67232876189385,73.67555543766528,68.60198279341895,66.77879987340202,67.59309181619429,69.94590868571389,71.51348518180835,68.80428508854547,61.76816014022327,54.53251435147667,47.70996419399536,37.32476204131208,23.287221613199527,9.67220436117677,-1.9516819475053766,-14.21747130403486,-28.285710806102863,-41.87315476014825,-53.612746354485765,-65.78477198211381,-79.94442960279646,-93.21677382209762,-101.76751242859338,-108.30945617717813,-121.8820278282322,-139.37584276393903,-134.3804095039927,-89.43006583109182,-29.755446678825415,8.961674280007564,25.434905091566506,38.28786810462631,56.044711230546625,73.67439813551944,83.7832250816045,85.50797483954263,82.99134151974758,79.39182637277594,76.71928633954619,76.87103687677605,77.33945409665792,74.62897209389166,69.08689571449968,62.89395035843212,55.53402135493391,46.60518167993159,36.87211236758364,26.578274713697347,14.894739466336691,0.7916545990129792,-15.84291358238667,-30.71588950636879,-39.36464491472285,-47.01252167597741,-60.608058615184675,-77.18376356982155,-89.73127271715724,-98.98705075615653,-109.34221140523682,-122.58329908250255,-139.9647176339144,53.0,95.0,63.0
64.08924759577185,55.42472855137428,46.8749115309934,35.32382616355646,20.14291715876209,4.927180123551471,-7.641363932117197,-20.99593901407429,-38.42916875770714,-55.83798700052916,-70.77480734105218,-85.4410159153983,-99.37054149157291,-112.54291907360948,-131.2498282123139,-152.13392793574428,-146.36388039370286,-94.2319767952876,-26.163718969472402,15.091510946245213,29.251653702097624,40.417193573289275,57.26033671219936,73.24871550490354,81.62819121211916,80.99227946756834,76.62550705567604,73.7069130720066,72.76642315100125,73.56026383387268,74.00497841291867,70.0731209732597,61.63651966470592,53.056163417976606,47.21097357085194,42.887553049614986,34.644485038847805,18.947028532440545,0.9659034101925125,-13.504842930648518,-26.005173254474464,-40.54764538379042,-57.0575534014455,-72.21097668543493,-84.26610785026672,-94.892975828565,-106.59746363268772,-120.16501676125992,-139.36121584937922,-158.76361922755058,-148.66272039851228,-91.28774430871538,-22.620486712869017,14.525611328740782,27.013657052949597,40.718812499348495,59.44834023390658,75.22948354087885,84.55193662504392,87.24129363550153,85.30075170614677,81.94449302845254,79.64984637180926,81.47657925333449,85.88026478738344,84.36232253799608,74.33444519150834,63.30125407061793,55.5830291376625,48.003089426769634,38.21546231682132,25.915529435804395,11.246429650988192,-5.361429498222224,-20.02343301501912,-30.26979401884333,-39.9512388887526,-52.46768706160449,-66.19356995831232,-77.96291065813342,-87.47782802949962,-96.15384240930084,-106.26231402597206,-119.95836721663491,-135.7149400785468,-139.00173704190544,-108.1696329380656,-49.56200007582222,1.1300071603857458,26.870318771637894,38.38605572320355,48.20230138379809,62.111263164615806,77.42791792354991,85.02877487118997,81.4040227840913,73.54438720416248,69.80151147778986,71.79597547846333,75.2664750221604,73.41923755221707,64.5467702968951,55.54405506836025,48.74599831255892,40.34743104527251,28.570897640846205,14.873051405350791,1.392927393695678,-12.426504099207353,-26.02234136089611,-36.23655585061345,-44.6813351430197,-55.687711476596895,-69.42514719197378,-82.89024107182584,-94.90277487660086,-107.69967254562545,-125.36304091904273,-139.42697809075375,-121.69914443127145,-63.138211906368234,-1.3409177941673889,28.833561305040146,36.40332390696662,44.33241623673722,59.03080801885295,72.80967231748009,76.58610955952336,72.03368624923348,67.71340046399837,66.79939242226617,68.17336035877253,70.63979715310215,71.28167131537128,67.06787365427935,59.52956788798615,52.67790609012519,45.21058805670056,33.48538275637563,19.141481391932064,6.1821519041867985,-5.299178427403248,-18.157240257595667,-32.38549625538046,-45.41252705450679,-56.943170275093216,-69.71874760375283,-84.08157780348463,-96.23816790655778,-103.49295627332755,-111.19658418777857,-127.3517692715209,-141.6473738513742,-125.19822152639229,-71.7620012384525,-15.60109018631131,15.215380897746702,28.82307090270903,42.95456944424167,61.548047443477955,77.55285576332074,85.00259400036805,85.01721852906245,81.99350410722039,78.39730056612225,76.49116679947416,77.17010902926148,76.9579586941693,73.19673788423125,67.33792643097051,60.94223961994016,53.0862961874139,43.84578356816176,33.9735565774856,23.397156760201682,11.107118247735404,-3.8281741041057424,-20.634310139480473,-33.82049069187654,-41.25738558108909,-50.24232354643749,-65.46266660366565,-81.37163447020775,-92.51477459233848,-101.76205933821313,-112.77472294441061,-127.29877256813066,-144.51497633118439,-144.52403619696696,-102.60419718446103,-36.739588409999314,7.820281605518098,22.90366002882613,34.8170208267853,54.28472905477464,71.88802172896453,81.31662380387382,83.13071566312851,81.35450231492436,81.0005096882826,81.63394191499694,80.56931263599043,77.34710505862773,71.58315213818955,65.24407324566101,60.22151621253748,52.60207437180124,40.29268453254869,28.234277632913003,19.93359074411582,11.45577653091423,-1.4512893616921079,-17.50528793585832,-32.64154893691152,-45.35126614976072,-57.20004630302437,-69.87356521499886,-84.7523592230112,-100.08600904548476,-113.30108494342133,-126.85895237599814,-140.6895460915717,-136.36600012625627,-93.63748830525525,-31.65712660193899,11.465106087629422,29.465894465800467,41.288474474182735,57.0370656586083,72.39808162066066,81.36024682760329,84.22529880254912,83.24269310142108,79.29806830522797,74.94721864692157,72.61117827111518,72.15640706860796,70.69205086097219,65.73607052825805,59.08408998845412,51.45555694347743,40.54394807308594,26.4883973157364,11.643855502051347,-2.991985789735045,-16.141441385316373,-28.56082207170136,-44.02856507070637,-60.6651438080644,-73.1713032151901,53.0,95.0,63.0
79.64755517677342,82.80592594098115,86.39777764189742,82.12447725318209,70.86627559641279,60.80576946311477,53.541086165284895,45.43945002391716,34.90537443904549,21.932088092946262,6.552629999665444,-10.028198833127824,-23.353083569536825,-32.89715613730014,-43.25053058231518,-56.48309813873634,-69.86429923264424,-80.8974268507001,-89.98606109564642,-98.81442925012168,-109.78941176049351,-124.60938730918927,-139.00671865583487,-134.15774517088067,-92.69764935656261,-32.638607104956534,10.952252180363272,30.969291080487125,41.02702902416803,51.720438507053856,66.76305978680324,80.78166305328247,84.98545270280381,79.11592056242908,71.8228289335526,69.89449116519168,72.93420508867888,75.54855134266995,71.36050055598474,61.65275399682752,53.49985050421452,46.63152407382111,37.28049704728103,24.68858064328405,10.926095683380138,-2.5038110667312097,-16.52763383675687,-29.38249458741834,-38.64028792775965,-47.48357003681505,-59.49955247923061,-73.45524136540399,-86.48380677463751,-98.31858218595286,-112.24707945611144,-130.81468622893345,-138.83542599848641,-108.03671520689201,-43.37778527090618,11.00872297731297,32.16776468821608,38.001750247240516,48.050681426609685,63.61262518527228,75.11062829135733,75.74961507656093,70.46481190805488,67.13837333063485,67.00234283759187,68.86037046692273,71.18734060385694,70.60784964545458,65.02843504409748,57.39787851918205,50.7917382442083,42.307282153783845,29.411744110092936,15.142705676938148,2.840498022469058,-8.787870500015613,-22.232153334542637,-36.3667188443078,-48.79835538957295,-60.39912594277761,-73.81748948058161,-88.03087552544298,-98.78801592395325,-105.21784418145928,-114.92384135165109,-132.8369910383164,-141.1873284158083,-112.58802818210346,-53.92982562336717,-3.862307871814543,19.986911165940512,32.36927720327685,48.07062231706827,66.82155445641298,80.66243626946398,85.57772261560594,84.29600273025923,80.94426977865983,77.54741538618224,76.52032949283031,77.38481908414742,76.24644469755782,71.58954016157242,65.56968949053955,58.8544878869343,50.51921952748082,41.03951004936107,31.02494008356916,20.06994268185825,7.095350946101341,-8.6510176831574,-25.101667578599724,-36.35976763807521,-43.303404283443825,-54.07917076874373,-70.37108273264973,-85.08842881594714,-95.1420324410934,-104.70691986651885,-116.48528117913834,-132.39316526043407,-147.71307452054623,-137.01018062696554,-83.94731376829463,-20.236914671400683,14.229178004427256,25.6037017073953,39.93614588738369,60.02151513634812,75.50577692516491,82.50940467088695,82.72691550349722,80.99086247260482,81.24163736224882,81.54168433708227,79.87920825888014,75.92865685946842,69.64549637184413,63.73211396539119,58.520363611857185,49.406151074589886,36.499998400133606,25.499705928043642,17.781242912352816,8.223083481652361,-5.935639198234675,-22.130207615360767,-36.513499392842846,-48.787777605392534,-60.69701208037017,-73.93894591603427,-89.30477604372702,-104.11756098696137,-116.98597273828594,-131.21519638427856,-142.5796133134821,-128.04409528967605,-75.82619665266137,-16.168284897014235,18.545248154321165,32.71475439337589,45.45201808956641,61.859863034811845,75.75952460638943,82.67497157600751,84.30460884514405,82.33009416838325,77.94226950154676,74.01488050988682,72.36745367749144,72.01109029913361,69.60706830880196,63.870983372251985,57.06720806897284,48.71835726488479,36.698677691439094,22.20783390566993,7.361048970173797,-7.005812775926076,-19.634550506441286,-32.62708769551737,-48.999339626770606,-64.80066414330679,-76.02230640061062,-85.70839978835676,-98.01496189820374,-112.92959161513207,-130.29589077047368,-150.71359787559282,-160.31405773450442,-131.91021184437045,-68.3620371367632,-10.868978879316016,17.595723263841133,32.54795138435118,51.50384740770043,71.65585080842914,85.65105124660903,92.60520300745345,93.97886958707782,91.5937621029152,88.4240682575766,86.17830453685386,83.80092873421874,81.46497523678241,77.47798523170468,69.66047584854729,61.285150619148055,53.511006412548205,43.239951552956754,30.381278103837847,17.307542532420893,4.490486983551476,-7.870179494325022,-19.035592340013924,-31.105234564366434,-44.724800014564266,-57.9376740712183,-71.45961036400911,-86.365401093379,-101.17867500322382,-115.22148810315335,-131.78677488215965,-150.5595843002672,-154.8721994779716,-121.34092622250417,-57.82498467461675,-4.870395955435661,18.343875467514184,29.461206723754657,46.01958621287347,64.65040365057992,74.96866491224604,76.79502396201248,76.98451949299599,78.88512766440488,80.79441225531362,79.61507081688187,76.13349068569856,71.61012418561705,65.7601901089346,60.60236270614115,55.545757437314194,46.15184319226149,31.06240759601378,15.970892569768973,53.0,95.0,63.0
52.30068632820039,67.83698157958257,76.40807334923704,74.39948684312722,69.12095348972954,66.83787550402697,67.37123427873587,69.6032231162339,71.48651659518009,69.47476867126252,62.812097368279765,55.40824277974015,48.74383093839154,38.98632143880536,25.22352179302381,11.348058354773661,-0.4366915146156837,-12.459889459368439,-26.37474249465537,-40.17918094515333,-52.097225422709805,-64.03804232327087,-78.00844665721199,-91.67123778498953,-100.90616166004601,-107.21713176859082,-119.5151296374514,-137.62860739095848,-137.37139981469983,-97.20203288502515,-37.005944512316326,5.434538517723429,23.830180001345493,36.3069846685635,53.494471434122524,71.6491000251008,82.97734876236301,85.62693573511113,83.42663046811485,79.87667107718448,76.91906793843981,76.73637083643045,77.41269800657737,75.2077336697993,69.88693520107644,63.756284466135156,56.61621711746274,47.85757677060722,38.19532362342642,28.003714274530857,16.57144562464804,2.839297384465319,-13.57752427201596,-29.078686597937192,-38.47477661093517,-45.72370204206154,-58.45235889520357,-75.10881527599618,-88.35439415194115,-97.7552010067185,-107.83482712237601,-120.56023605869211,-137.62466081246072,-148.70605191822705,-125.55128181402078,-64.33216534903134,-6.571769829203237,18.571337931618118,28.7695803822035,45.61820136131468,65.30653354356379,78.38599168630878,83.11375487432515,82.1596482683407,80.8489103023962,81.47759271956568,81.27180189445549,79.0044794158957,74.28636955939223,67.7548080326323,62.32966884702516,56.449953393947496,45.84539814060592,32.90305638656673,23.095594793037957,15.44873425903895,4.56878036533607,-10.60159469595631,-26.57148646076264,-40.19821758826485,-52.196202990841975,-64.3048025146163,-78.21571275623636,-93.80233430504018,-107.93910858167015,-120.82552760366352,-135.5014955873429,-142.24996519287055,-116.21248985790612,-57.38909272050617,-3.0689714522410063,23.81700165519756,35.97108826733115,49.99799648035031,66.45580005622726,78.48323573441944,83.55955313520367,84.08779551682366,81.19875670767458,76.63398481771146,73.29224493044583,72.25056876854036,71.68160798824934,68.20771543733491,61.94569981601969,54.93665243553809,45.64257529280368,32.64201039750314,17.91423543872831,3.1034051495405746,-10.844297444372202,-23.14194071173837,-37.042015919014794,-53.921277961239,-68.49271157537947,-78.7393628649775,-88.91797564592129,-102.12349428162436,-117.60647931795882,-136.05461236662427,-155.80810066663773,-156.8770933573059,-115.67932355326178,-49.27544963525236,0.1723713207628564,22.189260592774787,37.40072938013876,57.63558649791282,76.47421788265093,88.32241579826922,93.51108106878188,93.56388743759044,90.62035153314606,87.70242466459065,85.5401616796952,83.10167767548016,80.66309173589966,75.54942683858172,67.11641189583628,59.10024286581324,50.899523026814016,39.68344765883479,26.554243034597114,13.604354321629993,0.8104099663089923,-11.176416117832233,-22.31465575334161,-34.9698855956453,-48.622662081710054,-61.71715014214801,-75.65489941897619,-90.74471705729334,-105.23805876000507,-119.56405987218069,-137.3478845529604,-154.47045439735763,-149.64070599829557,-104.50622479832572,-39.74063817272813,4.569176379351732,21.67354158757839,33.468096187578254,51.719934624232025,68.74823336717621,76.08083815855998,76.75766785954886,77.35431290381122,79.60136744142005,80.82612375687526,78.72930016929371,74.96773057756833,69.99917193299639,64.11983968171008,59.29520017642838,53.46724846725887,42.24216407468677,26.35187523422215,12.508741358138671,2.432128461093019,-10.712826535469706,-27.9144462158687,-42.77305921449146,-54.1809563867667,-65.29486536041664,-76.5657034686259,-86.46001547130389,-95.94478596864471,-110.93483572343578,-129.74107332701226,-130.0707966593539,-91.14280725158929,-32.21300948050751,8.614256071022094,25.055366208288618,35.86352556464921,51.997827827397025,68.79205632957763,77.03378217517047,75.49184427891572,69.57772684343206,63.41274196019948,61.01902497326261,63.77594969077583,66.20179782955485,65.12881374392705,61.48707849206613,54.67105347776439,43.73844488209451,31.350938430052295,22.65084732504395,16.43323800544053,6.626523205207952,-8.265201634610793,-25.625775631092427,-41.49099648740057,-54.15148450641919,-66.24213437107088,-78.45325601793547,-88.5747211971967,-97.39479699873709,-108.40901865189804,-124.15742426832828,-140.28729622387004,-135.41610325447525,-89.71554726769992,-25.463335768661064,15.72609822897463,28.38693256121688,35.869412390923195,52.3787523544547,72.97985421180577,86.82432733879821,90.34316948627179,86.86370736013217,79.72738490627464,72.89966688415993,72.03675020038497,74.82670393238647,73.5876521694095,68.89759915086121,53.0,95.0,63.0
-142.536165878981,-146.6697278671777,-110.5218997737581,-45.11551645281972,3.9752773055056654,21.667372361357714,32.71316185929555,51.553269411721345,69.97257047155861,80.54988854660098,83.2188176357109,81.58447039786058,80.91626146164243,81.61841946660546,80.82970335510821,77.92215601680806,72.46360267574161,65.99680432788291,60.91764770933495,53.92582928292354,42.06331569536618,29.621906614330552,20.909983274981204,12.804534821955368,0.5261709009865813,-15.333690874330246,-30.781483572696608,-43.74703386821045,-55.61223863463643,-68.07159415213884,-82.66405992397381,-98.15052545810285,-111.62073683260637,-124.90002569145383,-139.2823959832743,-138.9977842248348,-101.31905109268594,-39.46695407996435,7.45382845152619,27.857237673400835,39.515784270388956,54.7924413259839,70.64437739208954,80.58457296552484,84.08811056695798,83.57542427392896,79.9173984187815,75.44218249179549,72.78060520666999,72.18989727902373,71.07870312118204,66.5578556937128,59.99373071847204,52.61336116279762,42.22576301460532,28.44886099349197,13.621535077089145,-1.0923491877955256,-14.503886015558646,-26.794080847095607,-41.77098220416796,-58.6168000239199,-71.77396947327577,-81.4627271301435,-92.4157807496646,-106.40519069706312,-122.52444133678084,-142.06894894275152,-159.4152486318121,-149.57869317426673,-97.13134853723632,-31.882328217875372,8.68611916840976,26.310494508313198,42.82168934966919,63.62032200644935,80.66504966395298,90.4363035611688,93.98519471241934,92.8876663867099,89.66716829825265,87.06316060395874,84.85260699926772,82.44038449993874,79.62016123014652,73.2986867019297,64.65261597864186,56.91753331053464,47.99895168274144,35.96135084540157,22.76475719138068,9.903441033989772,-2.8016639323338013,-14.383544079868894,-25.75021351570359,-38.92780394414324,-52.442379034694916,-65.5806636395435,-79.96286142324148,-95.06040986879017,-109.24795118051155,-124.24359780482276,-142.9923016832067,-156.5600783609245,-140.7298631608783,-85.86402540428418,-23.652407482245795,11.52239712580885,24.663274466342003,38.16432613828089,57.31519537800655,71.93857682708062,76.61904231605416,76.75421586445562,77.89115278194215,80.23287152183728,80.5402078077998,77.72352338135727,73.70407794596298,68.2875490798746,62.60508513058003,57.92600846183577,50.897921681358554,37.890769428126504,21.850547229242885,9.440586503571279,-0.767300363071099,-15.53226130685787,-32.658767273619816,-46.28654954545518,-57.32516054338749,-68.59914567751876,-79.62043512107542,-89.04124342992768,-99.45656551724376,-116.58061671649783,-133.08148586484535,-122.9246496742509,-74.28679740559149,-17.473201865328676,15.187800599477145,27.93459072964205,39.950194319978976,57.237405491526495,72.31509895204447,77.39273379681879,73.99921853263287,67.67594449054799,62.14078355560819,61.43894016103939,64.78784290398742,66.21861391593283,64.32501898122779,59.91265102571695,51.914898362189035,40.06459028995646,28.324648011642726,20.87731417675472,14.159167774644995,2.769090032905974,-13.187483397336948,-30.536163504033777,-45.40583631675172,-57.58124238395479,-69.8479025635611,-81.6522146434712,-91.11319641269961,-100.20024452607042,-112.43612510357943,-129.363495231191,-142.34714566950976,-126.39787420655809,-70.98122918845877,-10.033481105742538,21.456906261208605,30.049226867546825,39.64332801913484,58.42582130518023,78.0283788018089,88.81694058911586,89.87133748484518,85.06619362086056,77.44504231425853,71.90882437261493,72.84903237167732,75.06388361545834,72.34210492969326,67.6393201242266,63.783244683683776,56.36809509077757,41.57281203421057,24.175735809294103,10.97332509393801,0.6627521718673512,-11.053993002792392,-23.889611680129953,-36.71790115042537,-51.480405364083026,-66.82251874125485,-77.17684519408432,-84.08846323664983,-93.53299452740411,-106.43868041731524,-122.54536289567329,-138.01734179469832,-132.93716425324274,-89.20346014057228,-28.056842571200963,13.30539618985082,30.633236673554343,42.18660148575311,55.435632267552705,66.01555996335625,72.86137204489842,77.14576965463037,76.63169146033769,72.21665152722478,68.95260230967804,68.34095980572353,67.15759597161306,63.313318767682105,57.72215449710437,50.61585262034479,40.74897172882794,28.781662230172067,17.40581534734003,8.122990489916413,-2.8895229195549446,-18.872923322197916,-35.15665363691009,-48.84046271826618,-64.7113732579886,-82.65456714843523,-94.81685029520958,-100.66211930486767,-113.03607294057116,-135.53255343471298,-140.06368088767786,-97.29863153896422,-29.429682874500763,14.975694291741993,27.865885264528846,37.16317096215626,56.89260502957058,74.75905296346288,80.46549728590459,78.50776491042654,76.43656276495835,76.97551973638541,76.91342256446697,53.0,95.0,63.0
-74.73301195292184,-84.31899001542833,-96.19103038330736,-110.83561902646274,-127.76005108116163,-148.07127245989287,-160.7143730022291,-138.3374036812298,-77.46029384097335,-16.8788368487221,15.141794261855315,30.493306679369425,48.69927162138759,69.23634905831354,84.22046221992447,92.03299376839217,94.06384596163903,92.02814332001957,88.79225128627245,86.45922951214763,84.13304973685084,81.78568844990328,78.24120321027785,70.83310501934804,62.318899283833844,54.62957747785916,44.80400908923283,32.1495926016919,19.021160731357103,6.197517698928654,-6.301726077868652,-17.559059856226064,-29.37337450592433,-42.90391070280731,-56.207091862466015,-69.57151254734615,-84.33929304409514,-99.27424219433978,-113.30320151760579,-129.31849177330906,-148.3382841180332,-156.11289146797492,-128.21152819996647,-66.58976447148952,-10.150979479331182,16.519017550628554,27.83478862766904,43.4469809143101,62.485853965314284,74.20950678373626,76.78782055631537,76.87392713854788,78.55477393437262,80.67696357816165,79.96290823351978,76.64800235134008,72.30562684046504,66.54857628322632,61.213743778657836,56.36663548143963,47.77827718298241,33.24798702995718,17.722060228282718,6.607395013164302,-4.432561000354883,-20.5762772120192,-37.04745956559114,-49.57317937239546,-60.52083082875514,-71.88668565737395,-82.51586392646767,-91.66466577320959,-103.61929086768498,-122.33682797806831,-134.11352362131322,-112.20626790249952,-56.743498942209044,-5.055748893842649,20.00552946693745,30.87016690360783,44.56955058565063,62.29398026882349,74.92576379208754,77.01836652084636,72.28825535507178,65.82246070188542,61.308583017374026,62.248309344098615,65.58879533930408,65.94681017673757,63.32900974229311,58.03547046314248,48.80347804949761,36.389123179030115,25.727063845174886,19.17566886159582,11.446113163518223,-1.4832706654473875,-18.23609110863248,-35.21086969602407,-49.06796392527965,-61.051113760341465,-73.4289482327874,-84.61802313418315,-93.61353377308227,-103.27751278797173,-116.91177973713765,-134.3882433199007,-141.91449010530224,-113.7011259762597,-51.78637497635985,2.590734707151273,25.167381811375655,31.93156850080489,44.30078073852319,64.54553878080257,82.26827622661162,89.96630603861115,88.92709425350485,83.01650205599319,75.3261262485656,71.54467361286179,73.77702033753006,74.80376242958798,70.93784193517777,66.51411349693493,62.29905159862034,52.80792625749285,36.42962791845486,19.809457780769108,7.939905691063642,-2.5015747126622414,-14.745494463503205,-27.5536124449308,-40.69819550096997,-56.11303938909988,-70.46167502148269,-79.22673295818703,-86.4086886585402,-96.9551447535092,-110.7446667439113,-127.60683802192155,-139.89284970994495,-124.21419785678401,-71.42510442833293,-13.088824882202974,20.044548093994962,33.86756407369941,45.96393430123147,58.94995613327194,68.27404089770481,74.42075239551258,77.57935270164198,75.5510128223002,70.96357361743296,68.60217923257126,68.21794960516146,66.31613130477022,61.81613860483153,55.88600161026575,48.067265370919955,37.41659625996336,25.29593845965398,14.571430504672065,5.383226555221929,-7.069822786339117,-23.847242962139454,-39.242200164821156,-52.99096096065298,-69.97974443601068,-87.07172033398959,-96.75928897882449,-102.92339425790324,-119.13581798287908,-140.5198627449259,-132.77501985134563,-77.93461856138478,-12.733208199033774,20.93982980212094,29.694914794217947,42.01208467242038,63.00928010956176,77.66024026987549,80.30837242871883,77.6764623530797,76.37914817734915,77.22989238635216,76.26466750567177,72.46102740743352,68.27937103004022,63.33039738043486,57.02248089379185,50.47635379266002,42.308004812907164,31.86172176984139,20.144019917824846,6.494086280310744,-8.362118798283445,-21.732665343142706,-34.02441001280663,-47.67857545761743,-63.212354469855526,-79.45933393481086,-95.1950734723299,-107.57674982828364,-116.06653528926597,-129.5365079967209,-150.61054731393455,-152.3563491775837,-106.53845445117963,-34.245750924659724,16.93458374649211,33.94564413873655,40.122251735275036,54.83833301713501,75.53850905126585,90.63965215579572,95.07808522421966,90.29073784331928,80.69965863093174,74.81682507528927,76.84181689286483,80.82513418190504,79.16243760549138,70.36098583894956,58.75416954607399,47.56871812898167,36.91902306006994,26.36568725267887,14.696150029825512,1.5696301424334078,-8.70321535275395,-14.747606004968285,-24.501290419596927,-43.07681738302721,-63.44274103127248,-79.12244216877559,-91.07736655946455,-100.30642425499919,-110.095455614018,-128.34890572618457,-148.43777106672263,-138.66078104131728,-82.94397000086717,-16.833319190984376,20.451142089825424,32.86444712163453,41.531701429488585,55.408724353298744,71.98125893520469,53.0,95.0,63.0
14.04955241498816,3.7902658174373753,-8.618893973335506,-25.63348034648786,-41.0501650865679,-52.73702714245291,-63.777617820086945,-75.11214926953076,-85.2469362557337,-94.5063301302332,-108.48038106935844,-127.64071619109218,-132.1385278237256,-98.36235648114912,-39.656973221906185,4.858683932540951,23.628718325852994,34.16963137044632,49.596820563690606,66.89336105487031,76.58237130191165,76.07386454100184,70.44921268880559,64.11658605019215,60.988966032464475,63.279367214197954,66.0852713222953,65.43487510840761,62.12267668528705,55.81673312844119,45.38958465146079,32.87477032442635,23.542884382299455,17.35786178516406,8.2562378744198,-6.063496978076955,-23.309147133678984,-39.58358110852373,-52.56650504941957,-64.5896439232655,-76.90631266924461,-87.36654877772419,-96.17075672682115,-106.69862297557958,-121.79870551858482,-138.71177196141613,-138.2975138594003,-97.84659850357522,-33.37968788627441,12.238530251852376,27.5451675637564,34.43603735698981,49.70101850461635,70.427356559335,85.60104864732158,90.3736804838896,87.59275850861663,80.78703620986884,73.5536334555942,71.76966795129673,74.56847825318964,74.06455296876345,69.52244902036904,65.46069683000171,60.34222143536127,48.604110918631676,31.279803474033226,15.913671442908685,5.016599186701149,-5.855050848827249,-18.474240848602115,-31.21760810037454,-44.91701621701849,-60.67419741082351,-73.55510988084302,-81.14205341236205,-89.06019628278054,-100.62982844683624,-115.3462570905953,-132.4341387512926,-139.35146316960197,-112.041433640565,-53.20194125108397,-0.5326750703214981,25.1041653105854,37.093914189605414,49.861825834474146,62.10340717650497,70.27515995984284,75.76025088407629,77.5336414379015,74.23856829494267,69.9402950763381,68.44070469303117,67.94585209681713,65.23904102287331,60.216135551644584,53.89716337487205,45.26500692585097,33.94755885540048,21.94354530237711,11.912389980382727,2.341985980659971,-11.67686896743468,-28.654364989646076,-43.13993176338916,-57.485615072970894,-75.29746593417629,-90.78160870098262,-98.31391444620704,-106.15423049332303,-125.92003967914611,-142.97670479015147,-121.09243448948556,-57.672883968355826,0.9243601611924628,24.672796690974156,32.0253811925261,47.74405389635764,68.49688770942319,79.47024528360811,79.7212266606354,76.99647206367734,76.54137700233701,77.3050092914513,75.34699103427515,71.23400515071062,67.01126835740548,61.58836515251831,55.16052720167061,48.37931416980337,39.46423075052593,28.61072048140577,16.430906464954784,2.2046786680937815,-12.450758988704177,-25.2752173022057,-37.758797129516275,-52.01185388371865,-67.885282286001,-84.13848987655656,-99.27622473693508,-110.21019307469051,-118.93202074044342,-135.43478587702072,-154.88084061503872,-144.19268593222304,-86.15928550259434,-15.72555844090593,24.68099845512572,35.60432901517091,43.22315949418357,60.73313816393765,80.88138398362483,93.01863901815805,94.51731404817787,87.69488806315991,78.23640729529107,74.69801091573024,78.19408320212408,81.13588595960059,77.22582340491488,67.07171369939815,55.444622230636526,44.453435996344574,33.88958240411055,23.188078442425383,10.94207618753838,-1.923036869410694,-10.67581476990513,-16.73739474608723,-29.08924090529613,-49.22453625661415,-68.49916507857182,-82.86744966262378,-94.0085630456456,-102.7318270468607,-114.28244810689817,-135.02167937543646,-150.25079595419226,-126.59803275251971,-62.55186465289709,-2.462110019385055,25.580160329067784,35.065005496807885,44.96455021867376,60.20629900752706,76.22952509549522,85.2211539074437,83.5056610244975,76.2049560355056,70.67221396996784,68.95110260364011,67.84028152358768,64.42824241753752,58.758604595833425,52.62259221657001,45.848144321428094,37.076710369783115,25.00068880776364,10.2239044514747,-5.433360032440798,-20.327969208131826,-34.061962854017764,-49.3379634530773,-66.81741680842704,-82.59453754677966,-94.03380626138714,-105.22024148457118,-124.2299333620224,-146.6045435691103,-146.13410723710834,-101.53915810936947,-34.78631931832667,12.564502027158767,30.808004932774814,39.867645414748175,55.571742139862494,74.88822173197175,88.53850847707076,91.58255919486153,86.73238242945105,80.17990997526593,76.49748476483661,77.28598077996197,80.13818667049263,79.37116059246593,70.95629815586268,57.50556970227992,44.68426811274747,33.774220109146796,22.638867170415413,9.15097066887055,-7.594036131439472,-23.919488010324198,-36.088683666511145,-48.118073045283296,-63.36404866381644,-79.8999366723133,-95.21218360476868,-107.36921939777712,-116.9921884886128,-130.81147966409964,-152.82533158547017,-164.07190343347182,-132.02750425836925,-61.618182951084165,1.3127886071420507,29.595611775424675,38.174477821003556,53.0,95.0,63.0
68.20181791228704,64.35534968874978,57.77772916179634,43.87804187217508,26.337009569146606,12.451298561024396,2.063844278374134,-9.38180078461974,-22.189247603406976,-34.950501630946974,-49.36850504734354,-64.97508311682907,-76.13279564649922,-83.11462079157405,-92.04929263817326,-104.54705068343422,-120.22625361961295,-136.5398255982883,-135.75267919520095,-96.93078623925824,-35.652719848833186,9.492404939244372,29.043834229974657,40.51999627612133,53.71778526599938,64.86653423964627,72.0834758084358,76.79618372983106,77.01461255446404,72.84495964948009,69.19867366823823,68.37126548427678,67.46193390831557,63.95946182857248,58.530063573848025,51.70564968323758,42.22385836466687,30.41188937049681,18.786273001894862,9.328032111246785,-1.126512348864125,-16.57090843861504,-33.17792436141782,-47.013097891623964,-62.35526917400355,-80.42402165051767,-93.71494439827357,-99.84633845158837,-110.58164377021905,-132.6791160240851,-141.9309609334957,-105.52537483334818,-37.965309087757255,11.278514092924304,27.014471117875214,35.28896454010041,53.978646990821744,73.03668252126494,80.33289806182039,78.9082200128344,76.55147126286214,76.83172759314583,77.10863667059375,74.2387290823586,70.0320839363921,65.62536363052655,59.755498290747,53.298614658760386,46.080268541150176,36.45689988475283,25.265272369297584,12.52554978164896,-2.130352059023286,-16.35031840232251,-28.789012998303875,-41.657889118782336,-56.48928427270264,-72.5844362676137,-88.74647787538946,-102.97512411008069,-112.57516498195197,-122.54264879634877,-141.83149333751996,-156.5323395052605,-131.64248781946117,-64.69602480323408,-0.06739005826250741,29.788490980754688,37.10548175205753,47.304565850910876,66.85977721145983,85.48864537561201,94.4820722158728,93.24622119034387,84.84220517780996,76.32826410940511,75.23445009617214,79.48417416622941,80.82507365792827,74.73339571162397,63.68839579207774,52.20200356739069,41.37295799606345,30.857903907936578,19.869765642372684,7.0932761557473025,-5.023146564180116,-12.353545937132592,-19.315357388795015,-34.415228805876964,-55.24974117357272,-73.10045713277924,-86.36873286414179,-96.70018690187347,-105.36003912621642,-119.39097503258907,-141.41761975526742,-148.58050010917472,-110.76756833148964,-42.64982552277993,8.897374923348043,29.160597155125306,37.41003144587476,48.900474318802424,65.09208587009888,79.86483931865133,85.75092056951944,81.59593584777869,74.2035423743676,69.86447562040694,68.7478811716546,67.14679761885368,62.94265637351189,56.98946853636754,50.78634924209438,43.588372259336545,33.95033524684282,20.92612181933754,5.719668388952591,-9.888377244168831,-24.336868892772394,-38.18754485854549,-54.279004866600935,-71.75300458951062,-86.32176751591705,-96.91035879466597,-109.69668551393683,-131.15197131470774,-150.2767671762707,-137.7553913188347,-82.50825201224139,-17.848787322274006,20.22368244381166,33.32104556184206,43.558669981712626,61.20554685298248,79.76560525639155,90.52785615010838,90.71916335982793,84.76466732390507,78.6859986697658,76.28789614556976,78.11614028179869,80.55143211935219,77.75725816402617,67.30384098564005,53.578454375280316,41.39824959998072,30.69382947720291,19.057912140319004,4.603497069663088,-12.635475256453079,-27.814296128033128,-39.308155522434205,-52.22091415233177,-68.13317667525098,-84.54595279342787,-99.1115563511387,-110.22782434875363,-120.15716575836063,-136.58861102271567,-158.73930699883093,-160.1641069893245,-113.93403435772575,-40.615287867446035,13.020907851179741,32.83178773436261,40.814351097989764,56.76621283072817,79.00389555010389,94.2955201342403,95.2691947634258,89.110311326924,87.5429769231273,90.61328941945926,89.91531133336319,84.17523313513026,78.4061724712775,73.72275246049719,67.4482353847414,57.9555012238279,46.8723882190312,35.20088532386666,20.946026880273667,3.554318882523991,-13.194301124525847,-27.588471514316687,-41.36508878907901,-55.31667241855833,-71.14163938132512,-88.21643999361198,-102.57808464259563,-114.21787592854623,-130.51966217228969,-152.63499133349652,-159.0474352413903,-121.63656668161435,-53.196815555691295,0.7180262348084767,24.483226941532532,38.06316426217536,55.14402588180083,72.41299631296165,85.04386136083586,89.16968714182116,84.83074546312045,78.48070107470353,74.07533702315908,70.6197611084935,67.91708863608909,65.714523051107,60.911891866380586,53.28857177881477,45.334934911768094,35.3228413069323,19.9069795877443,3.9349426143535067,-8.73494915010417,-23.452872397114493,-41.25127510768557,-58.2941319008996,-75.1503833804026,-92.99182066380598,-111.13003524246882,-131.8875468202192,-153.70675812123503,-156.19908173921775,-116.15529752332458,-48.37823328000781,4.726041869677472,53.0,95.0,63.0
76.6007968388372,73.02998801748903,68.83883504448183,64.08968620392255,57.88529063473839,51.39019369177002,43.55091859231918,33.33260968832354,21.79554053050067,8.43415544976084,-6.421668001953458,-20.068207514347215,-32.349462301709714,-45.737201526133646,-61.07365860369289,-77.29158230500629,-93.21090635533389,-106.22895204478907,-114.91302394616434,-127.10214923738866,-148.0502648309224,-154.62747180129645,-115.19235354115877,-43.5395097817484,12.329386508376292,32.94068667977112,39.002793383816545,52.29041451292438,72.88248166535502,89.22743520430961,95.07857438864175,91.34740551168609,81.96474845806368,75.11998287261099,76.26132609998899,80.49968778544347,79.8421797304296,71.81221311021363,60.30140441175348,49.019116935327396,38.319705124756084,27.797145506332473,16.37220389474579,3.276209102569452,-7.6522874828253284,-13.958070986030322,-22.668502044003006,-40.27125622329947,-60.95492937614161,-77.30060915089004,-89.64461775521718,-99.19498882594776,-108.44709706623685,-125.36841530059172,-146.67145029682302,-142.79409322786444,-92.13301711930046,-24.42327454154942,17.389728886516288,31.807823143787918,40.12213255545876,53.27452359040234,69.87124207281498,82.71394149630098,85.37764803095182,79.42538946928889,72.50258730873053,69.35585841075726,68.48615135910826,66.21721224400103,61.30247142345185,55.223304526811354,48.866694788666,41.12576985267866,30.521354454118654,16.668719034628246,1.1814033929247685,-14.233347385285334,-28.271112002701308,-42.532160991011516,-59.36482372648546,-76.42156218952258,-89.66216995706883,-99.95319644552184,-115.02290168713307,-138.03788557473894,-151.19145371518448,-125.43804946149949,-62.6831198982263,-3.438635598588197,25.660046870161906,35.69995913839746,47.995610698356856,66.91723476546447,83.95120430140697,91.57922320091043,89.33773282311572,82.80219890367509,77.51973894454304,76.45967299101568,79.01553575202067,80.50621844787274,75.44739538988838,63.378680033088926,49.819237273987326,38.251286118694104,27.526448936360673,15.239428597006311,-0.22637781210859945,-17.478575355136094,-31.338093710610096,-42.686069385793935,-56.602244862191334,-72.93840420862325,-89.0356321996764,-102.70088410014277,-112.93548959094267,-123.90759167919202,-143.05163822275716,-162.9669359053554,-151.88778455306138,-93.37050732576935,-21.531858122666513,21.632161987878256,35.121946341372656,44.285215246320774,63.067611691780115,84.70820545593209,95.99423437496007,93.62393620901409,87.88192609651944,88.31393684495107,91.07856818640597,88.56248142870156,82.34351710801681,77.03288248758425,72.20389783846217,65.01259491281895,54.81185432836435,43.610505189563,31.452885641294397,16.13967862318934,-1.5465356674795363,-17.516122841088293,-31.591052224505724,-45.32229103289062,-59.630955769603,-76.09988127648654,-92.8014772954589,-105.98512857514791,-118.0955871626054,-136.77084889607443,-157.61463792640097,-153.27635417953726,-103.10952201373998,-34.46292860742185,10.122780227968196,28.425528329902104,42.60889241966568,60.3781871253695,76.70886707592425,87.2526995921969,88.56848854617449,82.90053163279006,77.00596398880728,73.03954758701902,69.71872922649963,67.33668236858745,64.71522990157929,58.87313233024018,50.98394229562358,42.869512170255916,31.39294770678848,14.98252132403844,0.07624426182976687,-12.534529543308782,-28.471266792017744,-46.32433165465488,-63.07796499082825,-80.23495201455059,-98.18359642093358,-116.69269192054821,-138.57578574719574,-157.75141984703686,-149.31285429323876,-97.5849330619357,-29.975776243430808,13.980603796934023,30.573840447808834,41.572336329927644,60.542605568199576,81.93008597325954,93.03961942522633,90.81843142932412,82.76926785877092,76.40844926863765,74.82671515348052,76.94040708495274,78.41561468314127,75.13851762991926,67.62069508352529,58.6574339809018,47.61946078178478,32.901022346748135,15.620771827134146,-0.493359167976409,-13.361697151801579,-23.78916813884294,-35.144435604826334,-50.34805986323839,-69.14890990374782,-88.4161413799511,-104.14757061949669,-116.18652518038031,-131.09120506467022,-154.08118753752413,-168.8754953269792,-142.18933767637674,-74.40965976984447,-10.952760468373196,18.723817496160535,28.80244661381471,42.81896413263247,63.989917772346445,82.53940339422249,92.81969757528589,95.80293740283369,92.97940108462106,86.24670046638954,81.07063077864338,80.47357588405137,80.91624675593637,78.34054576522414,72.25027496445168,62.9607409679755,50.86759118060761,37.03125953899702,23.154529157480525,10.085206830223068,-1.74552136261897,-14.017234584305527,-30.773421504958062,-49.06923480394716,-62.660227702993474,-73.58427746100871,-86.96246369364603,-101.68810678622737,-116.69126427166408,-135.66079943679313,-151.652279999699,53.0,95.0,63.0
74.33530998325874,84.65247158405586,84.2379879222546,77.19966055592283,71.16337174414153,69.05245651787182,68.08678946354343,65.04579736807625,59.571172856775945,53.45004225554731,46.832938140340794,38.41806881142094,26.803325552288612,12.279400781861918,-3.3544365004296717,-18.438194734158184,-32.214442433430115,-47.13217483675302,-64.48251166022868,-80.73799994307218,-92.69796705485088,-103.41600283306886,-121.16944444283568,-144.2151646719876,-148.6279760488712,-109.70558402732736,-43.28357712033343,8.160800637000488,29.444288063663734,38.413822036013784,53.0704008382183,72.45721401386473,87.30166840239457,91.76037522119175,87.60536919371214,80.9605156473188,76.72861163203788,76.96353354593998,79.83292895771685,79.88049494653362,72.49934746589976,59.35381355371229,46.25889591056211,35.182194979006034,24.220972892747746,11.142589097880379,-5.250387364893287,-21.98173858184389,-34.615246704498524,-46.33189173837728,-61.19571396267758,-77.71942385740601,-93.31960858051825,-105.96676243687202,-115.66602236396525,-128.4335370152366,-149.79452651909926,-164.51553206233484,-139.22795116449552,-71.64607549109505,-5.176113217320907,27.57907468659442,37.15829970012482,48.71132614554536,69.64877920439746,89.47472692663891,96.44657248180181,91.70107873848475,87.28237120991915,89.30699694009189,91.01851896249809,86.88307229828371,80.63302839169963,75.71337709514358,70.4721233433098,62.30157615617544,51.60247060323651,40.289809937714395,27.418253615226508,11.100563784117792,-6.461055842144699,-21.67320173438973,-35.57481898521187,-49.312270720878495,-64.15757227516823,-81.09540254659355,-97.04601702360613,-109.24997873518896,-122.60090173343765,-143.39062268894548,-160.47855666439094,-143.28026456112426,-82.91422243144008,-18.087790163798683,17.159965454147354,32.17009019315327,47.54098072267649,65.46635149534438,80.52927318539606,88.64717879809855,87.34344818966697,80.99536416074885,75.71837355081178,72.03537755128085,68.90887852977131,66.75997181556706,63.404933998580226,56.65794018263151,48.70418145519839,40.121488504427774,26.965792941476916,10.240155257915319,-3.529201167596418,-16.686635504981393,-33.65725823503332,-51.26009598409134,-67.9121413562753,-85.39716491597768,-103.38162042487544,-122.59093177809706,-145.20075633039585,-159.450837123717,-138.45590064796392,-77.59308947540308,-13.849792037724551,20.772288529974656,33.36300013974507,46.158642582003544,67.06707294277898,86.6096752912903,93.544269991934,88.68485273784695,80.53941936532821,75.42770402368781,75.21182754331835,77.65528800310281,78.05064277124103,73.24642601083764,65.13859187459477,55.77285465416874,43.77105637297564,28.020476016220982,10.694887350946104,-4.559908980811188,-16.520453520963986,-26.78905693458416,-39.099518882390015,-55.4940605290577,-74.86585562220985,-93.44690204064622,-107.83740813142325,-119.78913339965496,-137.04958979841797,-160.6676512925901,-166.52627228006742,-125.27815515130295,-53.46281862271894,1.1317794502198943,22.385537477031733,31.860833425702005,48.57160538660718,70.03016839808062,86.39880784897605,94.3213344424355,95.56761871826669,91.2348748151279,84.34185652521134,80.47660827912836,80.742341030468,80.5524506095897,76.92481865111856,69.88255818203861,59.727309982015214,46.97519830721602,32.96213571485132,19.28309531067499,6.526124713103194,-5.043294049836511,-18.332421061736657,-36.251162054754076,-53.57682262556886,-65.80256127624908,-77.11694013202836,-91.23924496676291,-105.85607696582811,-121.68632880128398,-141.45970093262451,-152.24741470446324,-127.62807856834672,-66.51869665363847,-8.586178723396026,18.989254893215637,30.017828992252053,44.212482620595,62.289030331907085,74.862522869116,78.947325862562,76.85143857407674,72.41074538333166,70.31240089052191,69.67719880457874,67.28896624418608,63.425499766614976,59.299790510398786,52.607167603477095,41.88381491971361,30.591210895578104,21.101895267879566,11.739393748049613,-0.1322104845556489,-14.670255428277171,-30.386908530734182,-46.830412903042664,-61.87860158140601,-73.82396500100147,-86.5005444198975,-103.70064302829947,-124.17256668611613,-137.73698043203103,-120.55875246236432,-66.82429829964312,-10.342351774485381,20.131883365370864,30.80034724805243,39.911174402187584,54.23769934667405,69.02045652708043,77.67783720911069,77.75320083294127,71.80818880158243,63.82963466396019,58.697238543656994,59.934232681872075,63.49026651691202,60.64967577474844,49.62548766106651,38.64092595920547,32.95836174899271,26.99434412365128,14.066058447467555,-2.71341597286786,-15.531263488976075,-25.517006525560564,-38.670160407407344,-53.98680814675018,-67.41514247425289,-79.6374026389139,-90.09155787952618,-99.01440098819539,-115.69104766185772,53.0,95.0,63.0
39.50843146699107,54.04692081360179,76.14289281550829,93.07058777477108,95.83504239124304,89.85208120856363,87.32920269441547,90.25835706449192,90.38756844196944,85.0391140281569,79.07562289327304,74.3712981060047,68.47074779326218,59.36625439359659,48.367955977815164,36.84833708210618,23.062837354784783,5.9386754928065555,-11.127877039099895,-25.7339287565545,-39.541140193580866,-53.38989003981526,-68.89615538012346,-86.01091846056335,-100.91426345508296,-112.58749193982975,-127.84905346644497,-149.8773918243731,-160.33724110066854,-129.272867636775,-62.399763253281165,-4.542926997004493,22.446516517248256,36.114742672854476,52.7204327106253,70.29737212122386,83.77276909445598,89.19487315466054,85.68477616487947,79.22986245888615,74.57174310671328,71.05723856473425,68.20687449074937,66.08703739601071,61.76825545810138,54.35693894648571,46.41497917870231,36.95366573146971,22.178430231175223,5.8347431114747055,-7.068370405518928,-21.23375640792274,-38.87052128451039,-56.088081438635584,-72.84093916642152,-90.59457408316621,-108.64972415423642,-128.87355937484122,-151.2714313571057,-158.05529645690316,-123.91858042260962,-57.41441454281057,-0.4724486006484837,25.63306308086569,36.28725579619352,51.54980184020003,73.48888483498237,90.1369405137173,93.01211757134335,86.30045305759378,78.59243932605771,74.8827367650087,75.83555311784,78.19259909993525,77.20652647174951,71.08037632965907,62.5821481143328,52.66446965974478,39.58447259113341,22.99595095152548,5.96268264289764,-8.334786553816043,-19.518285562361456,-29.976496854001965,-43.41324688051273,-60.91056355764841,-80.51514217508607,-98.09348636468296,-111.27281153565171,-123.86398700990813,-143.73598025806882,-165.85720993065144,-159.87058925640991,-105.55648634448464,-34.23182695784981,10.148528689941086,25.109104651308808,35.695022471315106,54.763250792885856,75.5869080932485,89.51558872115633,95.28325939911417,94.85004054944736,89.2518246796062,82.72298436091785,80.27664236619987,80.9529145403896,79.8788449522354,75.22641027138626,67.2537729517392,56.270736314972844,42.97393397598073,28.932488524304866,15.482991431917375,3.092875183061712,-8.473256176311573,-23.111263208446562,-41.67216930439977,-57.58174611155896,-68.87584253494776,-80.94339018219871,-95.52619339355984,-110.08904257828686,-127.13027870537408,-146.63813626400446,-149.7103635091052,-112.47555794521647,-47.435238511959625,2.4830914057682003,22.748281064970648,33.375152889996016,49.44377683428513,66.8067972551633,76.83600215263031,78.8569557453825,75.56534607117837,71.46627535353538,70.15753332302728,69.23037807662071,66.23193842442794,62.29172748361141,57.78731909414747,49.8365081728448,38.49052324828588,27.680039023244408,18.514942698117785,8.642855913631642,-4.135116997720206,-19.12051956782853,-35.09762855124385,-51.477195622801716,-65.57648372622039,-77.16378660642175,-90.96622331225187,-109.46609372351284,-129.68158385103567,-136.9714461793219,-107.85802879013218,-48.898933414503695,1.4436358046827384,24.380957657473697,32.98926880195368,43.5964805440697,58.787510499165315,72.36821337626331,78.54033683105666,76.47487992495039,69.52954414593506,61.810091368028615,58.40786147467551,61.10680418210186,63.63836926313334,58.0581962407167,46.021615214894915,36.52404235889783,31.670090930394828,24.06015136355509,9.217712989690332,-7.004541153045911,-18.398072523155857,-28.863944319031468,-43.10483875931931,-58.11382860656267,-70.99569273254323,-82.97166516291334,-92.55095116247476,-102.59089288856296,-122.63793731376278,-144.4084607436373,-134.01444921319757,-76.75474095031647,-12.10921254655115,20.64202248179326,30.572395570794935,41.001997369772965,56.72379408263788,71.79458585520487,81.56073020581013,83.21289582432648,78.14072243512555,72.46480169720249,70.46442033054254,68.68258700848745,63.12091681521853,56.596995725128174,52.43087252243689,49.86622704979653,45.06295213595498,34.95197693496962,22.534687913582307,10.683525292227237,-1.891174257383284,-14.432400269046447,-26.328932710383462,-38.93454753766474,-51.87956859554203,-65.35362370937219,-78.49021892085763,-88.78472292502029,-97.4042414385545,-110.34624803864858,-128.82085710342994,-133.74811579513548,-100.24861206225253,-36.69308763977822,16.832229066090424,38.54303766841776,43.685632843024734,52.622003739462436,66.4575718618849,76.15790620466504,77.9110937565179,73.40248887888032,66.41935826852345,61.255315481671396,59.1852971373891,57.42450705695326,53.49733894406341,48.15085322674838,42.51301172121173,35.43806874246032,25.42710393021164,14.052352810540661,3.115895805281633,-8.340462771052172,-20.76927179278893,-33.56986653259566,-47.61583819423923,-64.14214300211881,-79.86815763029456,53.0,95.0,63.0
10.045859713730188,29.19292205745517,39.73569882026578,57.59975776929845,79.4399835579854,92.41189168881444,91.65584848674254,83.86376073579473,77.00483584209337,74.75660968279405,76.58550563750268,78.43340867479405,75.89011565117187,68.73851162063457,59.92703772534426,49.28235498848509,35.07573453337445,17.935897241099912,1.4797538800906687,-11.833401020873383,-22.43968188522141,-33.438942628965094,-48.081265226440934,-66.52229607900104,-85.98398775216525,-102.32919612142368,-114.61767159067894,-128.62473159614444,-150.82556865617457,-168.6578156482658,-148.74777563325094,-84.32119647244961,-17.59801238234683,16.5129434740102,27.584961083577962,40.3861704956273,61.100424011442556,80.50929681175263,91.92759296118446,95.74963278304972,93.66719129522406,87.18392593034675,81.49182290925847,80.36954921105736,80.98542924921657,78.89535111614069,73.25202159844294,64.371996639184,52.613225746552565,38.91158423431721,24.962438436383284,11.765631623916002,-0.23265687164880397,-12.179686012014699,-28.289838415532937,-46.82780261951682,-61.138462489568475,-72.04961750364167,-85.02159641524632,-99.75858904501457,-114.53129768722228,-132.93158073052703,-150.51457341812508,-143.52812038495375,-94.73303762781,-29.86977910412249,10.810396491825927,25.770035863130133,37.33703293300679,54.80852984105808,70.63725431294573,78.13114828717036,78.30880038183668,74.20965112219035,70.81232797200511,70.02757849644617,68.58021739314866,65.10177899148454,61.14412610803803,55.96155984288227,46.746974296176695,35.1696588274801,24.930712336736608,15.868451053559873,5.278339012562905,-8.323708988080616,-23.643071100214247,-39.86617047308066,-55.91598175826246,-69.01909611773793,-80.71179750857495,-95.85612316762234,-115.44299234887478,-134.22782693862266,-132.9319705084262,-92.39032088853554,-31.87806129335502,10.699892371231815,27.43103016390457,35.45589164660929,47.72003757357944,63.19628710621605,75.06138975403901,78.68349198240358,74.79351182172803,67.17125358788353,60.1709195354242,58.69212805871181,62.28256913714404,63.03311815757643,54.866923716164294,42.68648467020035,34.873341034948204,30.12664039975375,20.43700909476727,4.249507028628984,-10.801621958223835,-21.18540106361754,-32.59551123315114,-47.59836999025603,-62.01823298903121,-74.5412572599601,-86.07526829038649,-94.96888231709865,-107.1328082189152,-129.9498776782329,-146.29939161380224,-121.43687130967609,-56.33544531578695,1.0800162664295627,24.62235181840968,32.933063366465746,45.2179382609894,61.40664570727012,75.31296387789514,82.92912951332696,82.2207575034412,76.2597717266583,71.51753080269559,70.21005568126846,67.4550660608753,61.11444308950645,55.11797228742724,51.64060489251102,48.93112574661191,42.663425775844814,31.37779679191387,19.076885209561752,7.165458710112249,-5.615669246571783,-17.862598924379142,-29.889046440213924,-42.66022171069785,-55.69385351631041,-69.30828591403518,-81.81055278038643,-91.24947186483634,-100.39713132083185,-115.51337086240116,-132.96829089599126,-128.5423275125831,-83.44118880868868,-18.458119241111067,26.229609651119127,40.58292445531272,45.43259539710787,56.508921361276755,70.00485513411778,77.46809422211189,77.11117534838007,71.43906781337674,64.59091028467473,60.41033859315424,58.80883496433529,56.53122677019576,52.019759370134324,46.55380457796129,40.71885956284287,32.83962626099084,22.154250290183555,10.849839017928415,-0.0764684460931745,-11.867158853275974,-24.42676656841903,-37.42093471611957,-52.14968525984619,-69.07813878209612,-83.263632088404,-90.30819277975372,-96.94869901004208,-113.0750845898069,-130.24602270021077,-118.00499037035382,-64.7098435564575,-4.874181346056476,27.013456609102324,37.22398681856186,47.13249749509648,61.12676108722844,71.28037906779639,74.13072937750908,72.50327974141995,68.83501742737477,65.21718588586909,64.13516748089708,62.986764829046365,59.1080134369581,53.9525414918209,49.18385368837787,43.41104858745209,33.91625604114512,23.376835322037273,15.921764446089924,9.2107461050522,-2.057068794584573,-19.475521922558677,-36.886546955127656,-47.59117583981616,-54.96221011101834,-66.26681736749414,-81.88477206723137,-94.64542862746494,-102.41313280022831,-115.3504664907393,-133.23604345961192,-127.82109471116787,-79.05499407716283,-14.49292176267704,25.330143079010867,37.805208015200286,45.943484964368466,62.32371204175594,80.68889317187741,90.42883453451283,90.82454795436347,88.27005699477502,84.93982708715478,78.51571937410343,69.55850115774885,62.40111291467374,56.58852157585646,46.47331675283864,31.692715530400015,16.835977584305777,3.8875243394106196,-6.200723300661116,-15.684513561765165,-28.89459946813098,-43.25296232577174,-53.70357594597603,53.0,95.0,63.0
-152.32240415620564,-133.50347097749065,-75.52105214128846,-14.663245806111993,16.82775021568164,28.628504639055624,41.920740162211345,60.01636184166733,73.70598862292773,78.81788553868003,77.37987140378966,72.93481578227632,70.42328598141853,69.82068837927117,67.73488164112447,63.95236783380821,59.91724971348447,53.75741070009899,43.444192860813075,31.994830308987982,22.295679453110335,13.086680999202365,1.635867351371389,-12.64491588176287,-28.240660432550357,-44.64467161372333,-60.07010428545783,-72.31512181059614,-84.58398075837316,-101.14307311205522,-121.45986440658196,-137.1438949842607,-125.29450380067287,-75.10102490223433,-16.619166570815118,17.623024934619277,29.80348207708903,38.38428665214327,52.14377665200533,67.28663877460352,77.02660307540557,78.17854628369214,72.80435843222754,64.85014813145138,59.03128695116315,59.459416488772014,63.212178464689146,61.59282407875554,51.312514415359274,39.79632138431532,33.53161375670041,28.120000254119407,16.19181130707074,-0.5877715560242913,-14.127244267347885,-24.091191902118705,-36.686738037860756,-52.01027915781644,-65.7410538680716,-78.04817380166273,-88.88950249782934,-97.62221459422989,-112.75429368593362,-136.89213229925414,-144.48441126275236,-105.0910997688629,-36.76389290891688,11.078737180375883,27.37006877147933,35.78122439945778,49.787303844963404,65.87367040189793,78.30481008730011,83.56083899596894,80.76411978556513,74.50888090568219,70.92142523807175,69.80774432337577,65.87462967445285,59.15940343052147,53.87351736309883,50.936763189206054,47.6794700673041,39.794627257366805,27.747000363928265,15.677272689343324,3.5402057185742972,-9.272690473243362,-21.27098751012976,-33.527691347682186,-46.39225603400064,-59.57753862177613,-73.17444107667093,-84.8401269991796,-93.6557072417558,-103.9449930190027,-121.05185634679279,-135.26854843526965,-119.62710969160702,-64.81335069272464,-2.171066143841352,32.86099674663623,41.88984725305684,47.855690992328846,60.61854339591305,72.99071265579495,78.1014319691626,75.85818291878816,69.3749473113232,63.01662984341348,59.804595795884204,58.36127351477911,55.428162057857904,50.46965905363625,44.94531768617603,38.74765402463919,29.979643456666132,18.841387401469312,7.700198549026887,-3.3574581596237083,-15.458943594582601,-28.106694594710778,-41.4172363237167,-56.913939679599586,-73.79022699106822,-85.96928012606939,-91.71952953549886,-100.4778783580836,-119.04430713624507,-131.0947173460067,-106.02910568482017,-45.957503081214654,7.6927736136814655,31.125520018955342,39.50878636685117,51.04980133816315,64.7770576143411,72.79213418794895,73.95911893751966,71.60293184212712,67.62695563139155,64.6513388413099,64.01488658457181,62.132038567448625,57.64865589654339,52.51496189517435,47.77916324118765,41.06351181462778,30.72309086688764,20.872428866492008,14.154301140158152,6.610374744593121,-6.577636395421301,-24.928093652484105,-40.72465233893303,-49.69983449446472,-57.61963873512256,-70.57108209945547,-86.20820774721227,-97.11001207102748,-105.12694924794631,-120.81285625840728,-135.642205329856,-117.88820681763175,-59.86563579665249,0.5445575259090336,30.841985311430705,39.64451976124245,49.826346174867616,67.98004127581612,84.66132229569443,91.2458899090794,90.1499485804433,87.46831755416304,83.48593317685726,76.01326528145728,67.15878586150957,60.81982546625754,54.29725832717111,42.483536531426815,27.25747455955934,12.857440429196988,0.6696554563081951,-8.767827155951874,-19.056130158264928,-33.23017501080059,-46.717431730027066,-56.252702818557864,-67.23477826324802,-84.28138820628365,-102.77739576348024,-118.95047382164513,-135.70523755842427,-142.4957645743402,-112.89780201669036,-49.92499983183029,5.322034140675223,30.290247139429578,39.09171227248415,50.82921133479237,67.49631368242348,79.38473045377782,81.51908813284498,76.76913164381811,69.90984176826427,65.40330543024541,64.7471734126952,65.52873145178887,64.83810789058572,61.06692508354801,55.56852915420641,49.81942404671644,40.65046313835196,25.948112394810728,10.108718428146847,-1.1743911675802947,-9.767610792599541,-21.70903410682644,-36.660635221873406,-50.39285969955643,-62.669792616979635,-73.99133350023962,-83.59884168056246,-93.48682293278164,-107.63451910189583,-126.70451682773907,-137.25367171539025,-112.38075876117063,-51.84995869157271,4.907735936479771,32.46938270749706,41.84147875296764,50.33776981047414,61.924845270635664,73.08276554562529,80.47618111119,81.43009822558575,75.96836182414165,69.62515493012054,65.88283917540794,62.39456145911232,57.4489788199035,50.289744726650426,41.823282501946885,33.849046288500325,23.544785142594634,7.680069306718119,-8.667762766447789,-19.077426374919725,-27.262059697741574,53.0,95.0,63.0
-119.35442033786067,-142.53167242809994,-138.35649841940082,-86.05667375765188,-19.25032940667489,18.184791139707905,29.57750005323248,39.22186509708396,54.52907223958399,70.01735344151668,80.68805487127345,83.47574039269217,79.00483247968909,73.02913781151042,70.57830706914642,69.12017714691143,64.02798928913519,57.357579927076685,52.843478835371776,50.227176176917645,46.00058655133166,36.54447450821272,24.159294565477534,12.272881486311826,-0.16829062841923237,-12.827423207009698,-24.716307628481545,-37.22118038845009,-50.140025409401474,-63.523465207857605,-76.86678056992979,-87.59393119263396,-96.16305319880685,-108.16643498128079,-126.50565439171413,-134.95543425248312,-107.1110665626993,-45.50112162368671,11.505795373503014,37.17175816507698,43.059519254361064,50.97763988419763,64.67553121601365,75.31867994089309,78.10474024027141,74.24235678592947,67.3268475111059,61.74068206074969,59.36081744615255,57.76462240073952,54.14123458060904,48.885535564450464,43.298112637709664,36.54342176909291,26.90165603317689,15.550828117992555,4.567525223468922,-6.744155230660576,-19.088533566056732,-31.829780747151453,-45.60748725616804,-61.844887234397596,-78.0802983175534,-88.04371570412036,-93.39104050905482,-104.99675482341908,-124.61398123493356,-128.59389745436403,-90.79723992799609,-27.903910940211624,17.42405254410258,33.986629202769315,42.21590281212893,55.19132017044801,67.88872578559312,73.70053017225668,73.5157835765121,70.55525621036641,66.5055740650201,64.33100398000057,63.76352641342482,61.03631035473491,56.14118002342508,51.140498576554066,46.20793644533594,38.358924790075086,27.584321300790545,18.685598339081768,12.31847379923417,3.5073666788434608,-11.593794399609335,-30.141112594038063,-43.90858671870677,-51.72253215218917,-60.76128250955025,-75.14592793890706,-90.06431556319808,-99.24238804288466,-108.62467977457585,-126.41635687220148,-135.1504872521112,-104.21146909118212,-40.535537997488085,12.731773716870753,34.47558325578473,41.7351347687732,54.491219927949714,73.50205164043126,87.70076869084042,91.39597072621291,89.39649064874921,86.57559022410737,81.70427747902303,73.37411973434249,65.02824288311358,59.245477193260456,51.500462841191556,38.193958083196996,22.92296637930758,9.054157492335811,-2.2788825562647976,-11.404544235073992,-22.823074549247657,-37.496337003016535,-49.777267889891704,-58.928317255388784,-71.57960969280292,-89.81104717719984,-107.59097108641288,-123.71809508879439,-139.82182642217268,-138.5549807888614,-96.63143473366856,-31.352464559424618,15.510275084212958,33.442036773926596,41.719270885804534,55.4988327820766,71.83632731950303,80.96635375617309,80.64803329774425,74.78837914488076,68.2124726185621,64.87429953862953,64.97075555647034,65.5871479759615,64.07158088492345,59.527143437782215,53.990769764071565,47.71932267320165,36.897898271350904,21.168287552152183,6.2798081669310095,-3.6367329571262315,-12.72137318471227,-25.92739623993727,-40.85566431312501,-54.02012344869696,-66.08470916825222,-76.92838103179463,-86.25335591643797,-96.98293257672078,-112.84273804183869,-131.76816053077033,-134.65812093720686,-97.23809022971611,-33.166974315645405,15.89398961233159,36.09966105902895,43.95111997176704,53.47876139557959,65.36916501438726,75.7258098766055,81.51260772200258,80.34950090184367,73.93494713282635,68.32290016723071,64.97200086355069,61.14795919178939,55.6267782201226,47.86274124659523,39.48266252018703,31.348278557671527,19.485978158866033,2.6029623631783276,-12.331836028874095,-21.2968868601634,-30.30107393635402,-43.952880923686486,-58.70884745602194,-69.74600069277213,-78.92320256115043,-92.07957921504156,-110.36064414529898,-130.24201647576578,-138.6220895362444,-113.69056102394875,-56.027216405126495,0.2663034170995521,29.874453146036082,41.28795850569213,53.55631140053358,71.013321592232,85.92091857435724,92.36425999616594,89.63305559938067,81.62275654566001,75.41254788933406,74.44192052423077,74.98222513658898,72.65669584384514,67.25377871782366,60.41753284984971,51.599782791781976,40.37802601289067,27.379128512823325,13.684960149725923,-2.5164266721778956,-20.896194413311292,-34.39548883078224,-43.48324592552599,-58.3485435206469,-78.41505281766118,-93.26868455032695,-103.00497988770685,-114.56699853932103,-131.3398017493862,-152.92694355930388,-164.06679409484377,-138.58184626356967,-78.81187775238843,-21.194689224505645,12.306372447206659,31.571759144922748,50.394314301416145,69.68496600829003,86.4448710065135,98.41072605173744,102.11677960741696,97.9605880091172,92.51974016711176,90.60073932395817,88.10793393206697,81.49210976828496,74.07638097575473,68.51242366192952,63.268633077704294,54.49472157734208,40.22633347802949,24.607131817418928,53.0,95.0,63.0
-81.78329225978398,-89.65381636519963,-95.64138658235328,-110.38502159792903,-128.93192064322164,-122.25863105028415,-73.2527178247987,-11.592923259583298,24.513602301079885,36.2374806402713,45.46181324755933,59.306855671872526,70.36375416528494,74.09395662881596,72.86383021471808,69.39318008135051,65.56774761252963,64.17972944669076,63.29176745022311,59.74933650102284,54.63502063435833,49.80374500270716,44.370161511658495,35.363373412238126,24.640061161768166,16.75514324496657,10.266822295352355,-0.16484089233458293,-16.949969245413495,-34.89465168576172,-46.5290241997816,-53.8741716955205,-64.41769366806822,-79.78675973778248,-93.337093658831,-101.35025673633734,-113.03231648907663,-131.3994213474693,-131.04762420207913,-87.49971157420224,-22.27188289021601,21.988560001254264,36.90497540513939,44.43511224949963,59.761764171594464,78.57567036065188,89.77894601714635,91.07645948115824,88.62731567950938,85.5110343170337,79.59101262917139,70.73594856909402,63.17647327862008,57.49944765629962,48.173757202063896,33.7532489507639,18.722989928308493,5.461590696460008,-4.999315922020589,-14.259828309093113,-26.9253823118449,-41.517850930648024,-52.512082732468805,-61.93413324790758,-76.46526389711677,-95.25447395645581,-112.21969260645697,-128.64122026857132,-142.58023576756915,-130.88076446196996,-78.21107329741493,-14.594520219080131,23.067514955536996,35.838777889462456,44.94584590909165,60.42871188571014,75.50628266028455,81.719561649455,79.31313611766994,72.74995927121401,66.81402154292547,64.65587447633011,65.23065575630011,65.45970724844264,63.02511142711575,57.9171779209656,52.39257336735726,45.20897161247779,32.68645680374933,16.468869751272365,2.935623332224262,-6.022984397172841,-16.084263556336058,-30.29550998929133,-44.861114023170586,-57.5715044398976,-69.40121316693639,-79.7105110648803,-89.01919504108332,-100.93479388674474,-118.43186366397049,-135.57935908309193,-128.3910095792752,-79.62969193605039,-15.992181697486165,24.247698808019507,38.744065856336434,46.304526073554925,56.83984368439739,68.67200168418137,77.99071130976766,81.94102243301286,78.78709503069264,72.01236803377442,67.24283555297572,63.999152937806215,59.764381312782184,53.59632901295197,45.385420441585666,37.20886671305515,28.518567954216753,14.933447243318462,-2.2879747918322093,-15.408630289741811,-23.53879438558344,-33.79309219118097,-48.38563543297924,-62.35397048705137,-72.31911305319477,-82.13957963114895,-96.9195617510976,-116.23887390642652,-134.81071211239856,-135.57541457741576,-99.28632766541212,-37.898011061547734,11.757639488982731,34.08621966425821,44.190557919340904,58.31659763680374,75.95890897547928,88.76308414066192,92.44125679173617,87.56690065964406,79.3507416943628,74.65220288819046,74.69581334595411,74.69950057860035,71.32196103897945,65.40870652109118,58.12013096384779,48.594811610145584,36.74513968866588,23.498220390871822,9.398715860753345,-7.858553299726705,-25.56848056683868,-37.05962423653321,-46.84546874323029,-64.09214766162451,-83.52605934028126,-96.28239892336748,-105.93782183803079,-118.78842192982772,-137.34077953872054,-158.43310371110744,-161.2562236400361,-123.52775961794711,-60.28545995909495,-9.037185180239696,18.521596959676163,36.79282815859034,56.09055945673762,74.86104551696593,90.550633521741,100.43740741799749,101.52566016187917,96.16185461247845,91.63705495695658,90.23444957992514,86.56207844025548,79.23042346103452,72.2801594325663,67.10822794670693,61.28148338031557,50.85437730590592,35.59547605806814,20.504076557020785,7.816454996794599,-4.3529145425271745,-18.670453744222307,-34.8377888915783,-49.30481685584793,-63.23459934200913,-80.18183104963214,-97.5113340785797,-110.82276835322929,-122.47415601975189,-140.026903646021,-158.5453557000177,-150.18507591849536,-97.26765899774621,-28.7814466234683,14.104692373262614,29.493643021641784,40.62030749332085,57.9867677031432,74.7996373695982,83.90110414283252,86.4110566965444,85.53987636939819,82.19872237358945,78.30472327212016,76.34292921679652,75.27208028413446,70.0840956897738,59.73036563820712,49.50185219220229,41.865825168776155,32.733613763084946,19.120661862220103,4.724742886255542,-6.733962593483268,-16.3346457067708,-27.605011719912746,-43.435015731701164,-61.55992061825919,-78.76186500062886,-94.49219897385291,-108.44571600252932,-124.82825059421188,-145.88812654924658,-150.45234766949145,-111.62860232497019,-44.767873463652926,8.263242532130022,32.942488800756465,44.150285300495156,57.371567214555256,75.00575275679391,88.68667907277904,89.804571587812,80.2687983033386,70.71904542281405,68.57789307463597,71.85966814349011,73.23401528197128,69.01817967244415,61.80715321752761,53.75664127815202,53.0,95.0,63.0
-55.074760359174604,-65.4303495764361,-81.75729433447256,-100.46875562280248,-116.80760822941023,-133.54825653295416,-143.17363439441849,-119.39244699198079,-58.83416420204623,-0.32261807044591495,28.415504096308382,38.0274352911468,48.83288371058589,65.32904641454385,78.36179351604491,81.7326339061658,77.63006354367113,70.77112699058338,65.76477650316201,64.67852679207994,65.45510226383973,65.09595235929426,61.730871257396316,56.303497005928314,50.68054290958591,42.20877982409359,28.126162918199114,12.028290873246533,0.039050327396322,-8.526625151257928,-19.852660145028995,-34.672953010378755,-48.682678681918254,-61.072462520811825,-72.58019601799633,-82.38347794751832,-92.00589507648593,-105.39889238235241,-124.1428016582026,-137.3476114469462,-118.2814488454275,-60.6886587142508,-1.0810435410697172,30.3111568369372,40.89954283418963,48.98796554861304,60.31507218346904,71.75441315268426,79.80863200333704,81.73511042194858,76.89831999043317,70.31575863507987,66.29876619710026,62.927330127377914,58.221473453029255,51.37080675865707,42.93144880373044,34.93130354812564,25.234669430363244,10.016357024613587,-6.777292172427335,-17.998908061863528,-26.005811782105752,-37.703100977205345,-52.75231484027826,-65.60683916254163,-74.86868195188588,-85.8221388860119,-102.15038970681493,-122.146269648065,-137.94381896078815,-129.19077322022213,-82.57699593069142,-20.93297968455651,20.731292236767242,37.2884803563022,47.56380540983139,63.42122640247666,80.45884978421194,90.8172246346406,91.77051437669024,85.20552486564847,77.41542087261672,74.33674211004355,74.92904389011963,74.10231548998026,69.77363227276683,63.471599376118974,55.62288824752888,45.392453709949635,32.990632572075185,19.58246175334739,4.8062092807814345,-13.285310248227827,-29.622723893737273,-39.53269579322861,-50.963762398793406,-70.04589047574963,-87.96446270077047,-99.03032681225339,-109.17133092575494,-123.49800288699463,-143.6982427200499,-162.46088781931775,-154.7564552017445,-106.15877045336731,-42.98824257723169,0.9464504875988107,24.017628538366882,42.196244580995206,61.72974569616797,79.78367799870819,94.18113891885753,101.6897424316885,100.35173009094407,94.47163582920312,91.0851970200465,89.63728100105506,84.66510210720809,77.02910644821115,70.6574815459901,65.66210618337449,58.885937231570466,46.761383011191946,31.008891228364202,16.62987461817335,4.37423225034809,-8.18482078570222,-23.30452293299926,-39.285494340723865,-53.169912679106666,-67.80274217848304,-85.40144911185546,-101.8384117672708,-114.03239948334456,-126.71253365106969,-146.16830799327934,-160.34658208949048,-139.1021819491876,-76.87102675386926,-12.777651225257308,20.42205046887145,32.25017717152748,45.09499103831871,63.359242028055895,78.31094270439786,85.12100600117942,86.4398352629998,84.79047345804223,80.99500705241927,77.4874577323743,76.12738115900869,74.40234155743423,67.44836940797009,56.51610659199341,47.11925844950922,39.62854823918211,29.20350176454792,14.793488531941929,1.0802055643086097,-9.567201762589741,-19.23798141075066,-31.697935627257486,-48.63973854523574,-66.67079678367169,-83.48228653334138,-98.65798870817643,-112.5951473810436,-130.81752957786608,-150.44368199843902,-144.05767295982545,-93.29265706087591,-26.5908458917649,17.951369559190308,36.68319921991004,47.39310280615648,62.242969561819734,79.85774661528083,90.46651354755814,87.743341096306,77.0275340957249,69.24553341556526,69.27113796640967,72.74994485965361,72.5607785816685,67.06476764126032,59.60025884047749,51.036569902657604,39.57792977503173,27.07893466910529,15.095820133152108,0.34593535103620326,-16.43922308380101,-30.177270395178095,-40.7137800967808,-53.581693556672306,-70.12905053186476,-85.98201072779749,-99.34233691837937,-112.3731039502915,-132.3710633456413,-157.36068815554998,-160.06474387182814,-115.24261294864586,-44.35443346038589,6.988900480911318,27.529122820506817,37.88925961863483,54.289657736270854,76.34036870971185,93.10771130090183,96.85926434545101,91.60609896852445,85.50952256485462,82.57538486662445,82.64979714922825,83.4077393094091,82.0487269493833,77.83660380770941,71.81354462511025,61.500677580669816,45.904773362448104,29.777016865648022,16.528467629974312,5.102591647109457,-7.504476134784978,-23.224730940837787,-41.29634071636202,-59.32465145053812,-76.67726236223359,-94.05889986751066,-111.04972675936114,-125.74302240779652,-139.17748173546374,-158.42713845609813,-175.88430872772648,-159.85969416142953,-98.0964468908601,-26.876393277663418,16.70363815983617,34.56324813462551,47.528478897538186,66.1399422386914,85.5235094725429,97.28293472202718,99.1610485878402,95.92449854451023,92.79272952221804,92.30076712077185,93.38246543255568,53.0,95.0,63.0
-28.844223505350968,-41.933282815285054,-56.90182099713093,-68.50428810553862,-77.57575347191018,-89.99550548134518,-107.70886659505385,-127.81421907030818,-139.0048029236857,-119.34663662493007,-64.51591465190855,-5.884930342375123,27.432832972909175,40.037889119393476,51.5295251811536,68.63835031659757,84.35709089533238,92.0625868276926,90.43752729030979,82.74028780941227,75.92987879040253,74.35767738864071,75.01743228114093,73.18290128356202,68.07432615810174,61.41594599683343,52.91703441726728,42.00103725988121,29.15978669068746,15.581537817834095,-0.1316639950942442,-18.571790238428843,-33.024307492302526,-42.14332310394934,-55.86146799488377,-75.86419448022616,-91.73038959482575,-101.72704975749583,-112.77077624224057,-128.740116927041,-150.09582122404595,-164.22385700151972,-144.50010269480745,-87.52330518820305,-27.56736229132522,9.06848467480832,29.201052676974385,47.77941930922918,67.2207327467514,84.41909758351993,97.2295035208848,102.15672632130129,98.77000541755181,93.05357079820595,90.73894448594933,88.68448806604562,82.52477829742828,74.96740858106347,69.16921583319427,64.07654433430064,56.00086205072405,42.33617066894735,26.578123903602076,12.951104726086369,0.9080162084961271,-12.26087885428645,-28.028698760667844,-43.50130188786309,-57.10311756944719,-72.6756802707196,-90.51503504994649,-105.75097093458636,-117.25404674631663,-131.64983025606224,-152.03688083343945,-159.01769021517867,-124.21960769684205,-56.38383008875531,0.29969509737235,24.881886046216657,35.24549860384666,50.11567041451498,68.41382077660973,81.08291691868983,85.89246994346202,86.23805619925871,83.84248208196438,79.81902546250251,76.88052335402813,75.90845447404716,73.04262665985873,64.4452905797675,53.473703047554174,44.938817993672416,37.11454629372441,25.29105246471983,10.549388050335287,-2.27583378135128,-12.31015491607769,-22.381866501501662,-36.21523221293877,-53.916680067880826,-71.66545255601216,-88.0743425090683,-102.66572637566941,-117.14195203856738,-137.14124398962025,-152.78737399017103,-133.55913862327458,-73.56577840797348,-10.552886859811267,25.3430486961185,39.81295860405266,51.075307026667296,67.40660810760495,84.10013148131816,91.04363261188095,84.97339947309773,74.07948330073908,68.49176286481772,70.27218033856798,73.29058943157384,71.40363554371034,64.97152604231802,57.32850756443049,48.03719924895645,35.90369709634876,23.66299370102135,11.244280789952048,-4.522579911135887,-20.880252121143595,-33.35419351198927,-43.959303522723715,-58.15363481037837,-74.94239445573488,-90.08730004145319,-102.89635323032104,-117.11376812563108,-139.8237592810891,-162.06614465287726,-152.10543363409914,-95.28315891147318,-26.07122444160166,15.428653028460658,30.543923104017278,41.730947389675286,60.455746818643185,82.26845302700833,95.55725899589325,95.87676595583775,89.65422683185018,84.28307525686228,82.36493518605926,82.92860823489649,83.33251902278798,81.06245795719185,76.3115454381189,69.43860733131872,57.39496404773769,41.06150437051928,25.624681785151687,13.170572017075536,1.7013546853351684,-11.697825863071909,-28.314290324858565,-46.58655382898809,-64.37747496394455,-81.68138976733319,-99.07146709601751,-115.6199218197514,-129.48331754614068,-143.93337389613853,-164.7856993394036,-176.1398519206596,-145.86363492348354,-76.26246225107323,-10.796367959380444,23.622096818190368,37.99852763977139,52.33323591273407,72.07229558034538,89.97507471768934,98.71157681698791,98.4781028388823,94.84559398207215,92.33732864352262,92.6306146482422,93.29089921905572,89.92845485622405,84.06573442580284,78.03079699068815,68.742594793461,54.86722186406318,39.42049946748798,25.69954627934395,14.092127718282455,1.3990195985898324,-13.889525861454866,-29.254315326464447,-43.723566191364085,-59.843746016008645,-79.40324609296627,-99.65465059195985,-115.04285972612227,-124.47256251965885,-136.71987150854977,-158.193023194128,-167.06395880578282,-128.9815514641934,-55.87704828377678,3.123919391468921,30.591325055240457,46.86039969017745,66.56487872797385,83.42767324563202,89.31614990018126,86.09938002909833,80.42086691509782,76.04836749539727,74.11875922016466,74.00546130511286,72.30079273813774,68.77055676959354,65.45320717739357,60.03572059347087,48.738131920881884,33.51511820008115,20.231024938070764,9.39020789690524,-5.879588157456827,-26.69158668365702,-44.809070513164194,-57.35545012692453,-70.87317098134035,-87.6273285157387,-101.70269649038775,-114.04310348180175,-134.45099036746066,-151.28993297310194,-129.65098509321027,-66.49035299323022,-5.851692003725386,23.157555276505438,34.88393322498789,49.88500049435339,69.81701267631333,86.54265163878232,91.95148673297919,85.96822295613201,78.11446261048725,53.0,95.0,63.0
22.366276550073586,9.415495689862759,-2.6565276970918856,-16.593729452168184,-32.719244688319336,-47.507114525991895,-61.23532166521279,-77.78164352676522,-95.38199416640525,-109.28936967044615,-120.7245588954576,-137.26376164728967,-156.8884420425568,-153.91339374687124,-106.27837974483562,-37.03395162288223,10.38996961147324,28.178922837449477,38.774789349336686,55.47455322082223,72.93618327948838,83.15677749673276,86.31387466969862,85.81186755578649,82.74075762746126,78.74659475116967,76.47463275704563,75.53789256472781,71.14051733068038,61.233854939974144,50.68951830419053,42.84332325256621,34.215773109957844,21.104341652570614,6.502694772571664,-5.375796417362438,-15.048176817100675,-25.86418468977408,-41.09340638708875,-59.16684765281017,-76.54760983365158,-92.50869057200495,-106.60799168491403,-122.25735772613582,-143.29950002502162,-152.03835244855208,-119.28526186181058,-53.67562465748248,2.9369606820552163,30.876642440459694,42.75872484563708,55.26915716886654,72.64127760245621,87.47805227243356,90.44481691545205,81.79034015020476,71.63460350633093,68.41448739226855,71.37438917191437,73.36984413695791,69.84368037956278,62.81326925793642,54.927782965022296,44.75800330129149,32.247408485793244,20.267134568060925,7.0543393165447466,-9.452901338019377,-24.944928211558306,-36.34122084531613,-47.565179587691766,-62.96543820625094,-79.5841640954157,-93.97898906969182,-106.51699998353999,-122.67711688100667,-147.43533950479127,-163.97734785898575,-139.82488922306723,-74.2518857045047,-10.451998197647317,21.532353585825653,33.33249232336163,46.30875273906042,66.9351075492598,87.42699436272456,96.83942976920417,94.34890827096454,87.81075891415136,83.36767797276907,82.37157261563306,83.19518854148373,83.01264535527424,79.86120009498367,74.6503037411172,66.59650805688193,52.892909326532525,36.32312526399575,21.750477196496,9.898879904090283,-1.8706405794423144,-16.182815201154543,-33.546208089742336,-51.817982019258324,-69.38529990452375,-86.70463200424425,-104.02577349407392,-119.93158019970538,-133.22032447408907,-149.39407166304892,-170.51482345879612,-172.65237152571584,-128.23868533454592,-54.933898489360296,2.3983580114764727,28.823902759807687,41.54829140152282,57.678587681721346,77.84643538391401,93.60312502427999,99.35316590559584,97.52430572500344,93.87802675475156,92.14244090805494,93.01711222312659,92.8045144445273,88.29452303962437,82.40204736875239,75.84706121206962,65.12202655441547,50.39185976756505,35.18389272919866,22.225215157773224,10.695426540396058,-2.819042615874485,-18.447094549556127,-33.45514281595438,-48.0716623046435,-65.16692541705987,-85.42038363303065,-104.81275575810812,-118.1714994520704,-127.16457896081276,-142.24656445948037,-163.83703564962443,-161.61580486262548,-109.37123073763321,-35.58167223692364,13.754667891820256,35.35905876412094,52.1862285922354,72.24902488978674,86.35630611415921,89.03474923672852,84.45961447020127,78.95421417669407,75.21035516237323,74.02438885707465,73.80295462926412,71.34528833441874,67.78713118683766,64.32067804004372,57.428236676403536,44.48897232110894,29.272530577999717,17.08315970759352,5.727103477636144,-11.612197663954243,-32.55894590174124,-48.813531104661614,-60.84891069271377,-75.5770564343525,-92.208942667625,-105.00887173094033,-118.91709204285935,-141.14259201758406,-150.24624465958752,-114.23673460569293,-46.54258416094789,5.775302939907018,27.132562136179295,38.4585355608591,55.43884711987578,75.38497279434144,89.50949637122964,91.06770350738091,83.43722313324473,76.64422396711748,74.34277853879432,73.75824520640248,72.07751210104838,67.34670969309613,60.25539383622685,52.38351549664507,43.723525997159676,31.93350536913631,16.247356772637385,0.02286613680505947,-14.177733982881476,-27.850374782590116,-44.47431636848243,-64.26725257675137,-82.15039399398921,-94.39465058387623,-104.82864609586082,-121.00035377092672,-144.22836041489322,-159.88347594476878,-139.80912228878546,-80.27857279527555,-19.88371745706118,12.024795441304143,25.718602250911484,40.65125779927581,60.15610815686525,78.26709441931443,89.03825630600151,88.94013561271888,83.02735624758307,79.75661505250936,80.69684285753485,81.1586267340285,77.76360042617306,71.69550280797532,65.28582224486348,58.143242957163224,48.9084751222357,37.14642594883493,23.814301485343226,10.209522204250527,-3.75210389943794,-18.450490670146593,-33.66427378043922,-49.442430656563886,-64.52153208798157,-78.11714708836689,-90.94406984199495,-104.44378960492138,-123.08930352597969,-145.20165895323447,-147.20203345724514,-107.51208104874749,-48.557415098271676,-9.103265984531197,7.894371475946307,22.255328842527067,40.06057027193281,56.11990164727955,66.73603529320447,68.98441571933611,53.0,95.0,63.0
52.32348743386804,41.24890424938582,28.683598563532044,16.77412056458487,2.527981264068581,-14.2852740208047,-28.611654338315738,-39.305204644246636,-51.58925294249664,-67.87278360879978,-84.01449440641332,-97.6829642224931,-110.41487564072682,-129.1262219239266,-154.51318160205292,-162.2548167694009,-123.71728840224823,-53.49265608777162,2.173607467971632,25.911124221422003,36.3392625793031,51.61984426054691,73.43082369647001,91.57737731985765,97.06387470719325,92.50510067404119,86.17498586187226,82.75901867123211,82.53754913694407,83.3745749372959,82.41707304150516,78.50297253595834,72.77732787858861,63.23046242553062,48.138129894537016,31.784718148393328,18.127940677602812,6.630315262362262,-5.666787261520276,-20.945626053243373,-38.84743277717129,-56.97339818590257,-74.37556778980593,-91.73905035410318,-108.87036154707702,-123.96607149087072,-137.1944530150045,-155.48559293860856,-174.72435936727837,-164.90717064498418,-107.98196177879012,-35.203806338663114,12.78031368544153,32.902254852110566,45.51316797099374,63.41754232109613,83.23104344115227,96.33148220976584,99.3427702912906,96.4374167663152,93.08542053185838,92.20031533668487,93.31615078204206,91.89739927513118,86.56875258995218,80.7252789513892,73.27691900648004,61.14408703560629,45.88378992347368,31.158935260510123,18.89537236908161,7.103395420972234,-7.238723356029388,-22.924758991814226,-37.60359871646054,-52.642295707048795,-70.7896019684677,-91.378230916483,-109.41975781229533,-120.85890547006663,-130.41495721089507,-148.57650431954235,-167.49985521494827,-151.53154366834744,-87.82417252844802,-17.699395743278558,21.88665914180436,39.86972292412507,57.915424164209966,77.38863616882509,88.26012638274291,88.13463319178518,82.77638419429678,77.64188524347534,74.59969309808187,74.03363933932744,73.36792123313363,70.29985596251697,66.85320817397223,62.89581348557415,54.26415536480898,40.03456566282089,25.342140346852165,14.051567950774547,1.48279903291426,-17.696475367627446,-37.95883325037671,-52.40862250228511,-64.6381757494346,-80.48734525188802,-96.37924021110709,-108.35441260271774,-124.72746378589898,-146.85749727399323,-145.06761227995162,-95.89455907524552,-28.16035509127815,14.536883192463398,30.345288041246206,42.64699859956103,61.26446502622878,80.46275890571505,91.34871685096482,89.36269916955226,81.03272211243448,75.59706006011719,74.1381898398768,73.4972878715629,71.05228807147857,65.45437534124827,58.01878205686278,50.0308781787503,40.75745083320556,27.70670271661437,11.435276597535703,-4.299705865572187,-18.02601211050409,-32.232366793670785,-50.01731131244139,-69.90321862945677,-86.2547227619576,-97.2470586338668,-108.65385663277841,-127.24737968860359,-150.7020374096689,-158.8223977931837,-125.50461730822418,-60.88138072104526,-7.565540875283307,16.804115371255048,29.42237841779895,46.04024721458481,65.80551572950584,82.38819101305549,90.08934347828543,87.40781677081569,81.56243123691793,79.75094933073566,81.10716269870865,80.60502120367292,76.14557132141866,69.84804365087543,63.3616000758287,55.73414150427119,45.75536919394842,33.38136807654458,19.88899856155001,6.241527585872803,-7.930731889014971,-22.791100980670464,-38.18553695716985,-53.95090585413468,-68.5761335582634,-81.87328689618089,-94.63666575274978,-109.08232902717744,-129.71690671530996,-149.31403826044482,-139.9788452849616,-90.4476371783278,-34.167501119675194,-2.7405790509653567,11.641834198545766,27.239020414431288,45.086745614783425,59.88422314587734,68.32206073742755,68.12342039930557,63.58635368308568,63.21005650425348,67.40269319893443,68.70643031450165,65.0616625772759,60.645834537258146,56.492860450982135,50.211884101114265,40.55818719842555,28.55300428570708,18.28350479450287,12.063458753260443,5.8134838710623225,-6.716022756992731,-23.46338146353452,-38.23780632961949,-50.71327776330577,-61.77386699119525,-72.70661005127613,-87.01966515381007,-103.26836168188416,-106.46875362956834,-81.41531520190702,-39.82765658271324,-7.839954016538366,7.565990223193922,15.903627435039937,24.6381626398499,34.84876654695997,42.98706005586209,46.43738487816636,46.24075141039318,44.25783523479726,42.56576943146091,43.83129861253367,46.26545395943065,44.001049667977256,37.091409102434945,32.10425819985759,30.950952010050678,27.956116359685968,20.16885970174339,12.604518134102644,6.841439703381407,-4.0666680239559945,-20.08262881885616,-33.91506837299146,-44.75512477218155,-54.166885074373496,-62.044435757653,-71.64714427719447,-85.03039275045046,-92.62247641754291,-78.40960878807091,-44.38226777515443,-13.44533443497629,0.7802038612820565,6.0956153487381615,14.093274477836117,25.57123162109981,35.76569627035249,43.176916316134,53.0,95.0,63.0
93.37779086202248,90.61725821757672,84.84556413076473,78.93152559956636,70.27401535939173,56.89272679596557,41.43219117386806,27.368997558354536,15.61642018477322,3.260289769412795,-11.780054113010944,-27.284819013314138,-41.77209595088888,-57.49823134936774,-76.64865885887667,-97.12189116710346,-113.41109374284152,-123.32814713161827,-134.50391454079292,-155.22582068510982,-168.09050653085015,-136.9989104781999,-65.80010635719083,-2.746005341488927,28.144160062538955,44.56250089227382,63.84393247497786,81.73720200648013,89.18791409170959,86.80578895463255,81.14139808184675,76.50635135121681,74.22073419104244,74.03752322107387,72.68753088842334,69.24426039969543,65.91391582716741,61.05333713044776,50.58399745698929,35.54770649308162,21.767030201451682,10.926042082129475,-3.412060951516361,-23.880284978525548,-42.7835972449915,-55.79847709835201,-68.81512936648674,-85.41066906172344,-100.10867431465199,-112.09240740899934,-131.29459955903056,-150.5536142844237,-135.49571653409188,-75.88864176988143,-12.226776043719783,20.87713470658436,33.39924340326295,47.47083640109213,67.14681028362102,84.82802759412064,92.02049627932954,87.11002099012755,78.94125056039412,74.90521526938988,73.99311321171372,73.0831724421021,69.73764733573802,63.413727879164725,55.74748410711303,47.590212453575774,37.45027034891116,23.183278057441832,6.688549524249093,-8.425182998274604,-21.908222234058943,-36.94669253023754,-55.77317147799959,-75.21386160862608,-89.85167932770212,-100.12705727953303,-113.13567689691655,-134.0271699882067,-155.98183037831222,-154.01982294505098,-108.30722894455789,-42.65476744070647,2.0665204419378465,20.64278545318091,33.594112860793615,51.71408466668263,71.18243804315367,85.74948840945682,90.19751232579786,85.61467463244526,80.49918005957525,80.03818539126225,81.3378590094312,79.68730453060722,74.38107754199461,68.005421690086,61.34294281984496,53.11992101363257,42.391901144337794,29.52588039696012,15.961936083191645,2.227300401107742,-12.171664294242113,-27.170271978478976,-42.755860510126325,-58.34833921306847,-72.51547377028643,-85.58027387591873,-98.43690272751772,-114.30749649017268,-136.44912969471758,-150.90515665054878,-129.01430647913816,-72.84988766835976,-22.18429517357346,2.142460856764858,15.650063489781976,32.4373670517807,49.83429862141479,63.12491005190251,69.13409871745567,66.86115364579706,62.789681022181085,64.24457279100262,68.35990029064142,68.0087066742329,63.70373943963075,59.51428582374647,54.98616473171588,47.783152111762945,37.19148756512754,25.210014046557493,16.1211634357453,10.589619165227418,2.9634436704516465,-11.45418001906666,-28.06131851983031,-42.00236604293257,-54.05034408347887,-64.80577556202803,-76.36424817442979,-91.90436374409853,-106.47330009351681,-102.2471041973136,-69.8586352917136,-28.77749276863778,-1.9943018014610818,10.244553109615797,18.22554938340264,27.537071603421772,37.604283340067404,44.469696594190424,46.665961571511914,45.77811099564553,43.61193374582592,42.56532751513504,44.67637462697013,46.277063422401035,42.23675022889254,35.18359921965376,31.546198128971763,30.56395988315609,26.084482705245684,17.683514299265507,10.9937807008564,4.4845679420472075,-8.503997911723093,-24.506381639226014,-37.22807873351441,-47.644086108141124,-56.53505086274906,-64.42883792005378,-75.2694516345533,-88.58092971127103,-91.21928500546184,-69.78517188963657,-34.087583279782194,-7.643954335361452,2.59017607346984,7.8676252214403055,17.26703476252484,28.802633904827083,38.170080069322104,44.80436736242666,47.474185175834585,44.48589235780365,39.03874814747281,36.860975269771856,39.3168307755658,42.243778661042505,42.5477381061039,40.45730561165329,36.31785097707975,30.455013057187017,23.999542875287496,17.826709285913118,11.422839012712751,3.694517156206747,-4.130464916560057,-11.239011910925841,-19.445119724679948,-29.35821488771879,-39.7583608374988,-48.06885912202216,-53.37536630364252,-59.37214365699287,-70.99834962072916,-83.84532968673253,-80.35631839341856,-51.91043392748535,-16.716117013042048,4.258267352518838,11.082977591662571,13.952708944912485,18.859948649736328,27.046888735857515,34.84242350469683,37.432375312532706,36.15519267722555,36.1957266435718,38.23886807226394,39.58413547283811,39.67940607085975,37.58242602543215,33.053972069234305,30.277613942734288,29.971325245661063,27.052929286022874,18.645705001661796,8.25428952553307,2.400884502976665,1.3442456217983187,-4.418328630509303,-17.18878352793497,-27.758016235551903,-32.61013375554213,-35.919512205083834,-40.59664010039259,-46.970644311257665,-55.86837792937946,-69.00945861099929,-78.75197878641377,-68.46740544359109,-36.168372575000674,-3.2382228736247356,12.594323399168605,53.0,95.0,63.0
77.26707859150645,74.47705883782173,73.84437269601305,72.45428417696985,68.15497339700767,61.26920288652628,53.45162364846521,44.99450753514258,33.762748506422106,18.46071699500747,2.083895560396602,-12.388378864261425,-25.925670629748208,-42.019099925536246,-61.60131410703177,-80.07899322063247,-93.03027078500301,-103.25061015473345,-118.34846747051773,-141.0389663534408,-159.26748060998295,-145.20329115359326,-89.30414673623385,-26.485115856956067,9.332090846295536,24.112429218853666,38.30669358399163,57.49880796778123,76.1515674137052,88.22223996821894,89.48904783637566,83.80600577154358,79.88895374754905,80.48087734779742,81.29186130781983,78.4361464982435,72.54799194403296,66.15184346459826,59.19062508070231,50.2883858188539,38.83914586105832,25.62176267916205,12.028546238965184,-1.8491455907031524,-16.46057531392923,-31.600900780535273,-47.33908500512783,-62.60685747138211,-76.36580454304321,-89.25363406327781,-102.46704441584177,-120.17903670195729,-142.69510148093872,-149.2251466934725,-114.8631879431504,-55.88694601598091,-12.695967913155455,6.167373548882117,20.073424240654017,37.676254957590686,54.229651275572536,65.75423470674828,69.19029965198588,65.43676010222521,62.54071263698985,65.53533044393636,68.87421950701044,66.95551883532733,62.39873655676291,58.364542788113006,53.24228414661298,45.05589428167822,33.68579240396571,22.135538918083864,14.305027201833179,8.941647820772305,-0.5390186455402987,-16.37015032096987,-32.3833453517421,-45.62644595300323,-57.26413426758971,-67.8896268452512,-80.4050058289948,-96.82061259949162,-108.06379021209065,-95.42879701320508,-57.55686936955519,-19.114500874594412,2.5751548119600756,12.613025588448282,20.697181479912484,30.5276789239531,40.06834949705362,45.53987144232223,46.64004162575807,45.205309604029694,43.05229613538502,42.87813714594265,45.49450414012743,45.752632334233034,40.187133867977586,33.62353240690673,31.25346204855004,29.83796287500446,23.828212341026113,15.40446870643601,9.452222415911585,1.4880080948727243,-13.212154941850546,-28.583302684519087,-40.36564914140029,-50.41074443047606,-58.784568887543365,-67.08444702227713,-79.2005793698999,-91.26067488643663,-87.6189255257104,-59.85755432751035,-24.707290476888957,-3.3341012823493066,4.014947454706421,10.074782973268315,20.627873932584404,31.816132355788323,40.35798321200779,46.11069297266137,47.16008346531083,42.8968653959755,37.88431966710034,37.21158932259956,40.3357527960963,42.621398233885024,42.162615913937984,39.467043891542296,34.7670120021375,28.59093258863183,22.17992630699617,16.061323531456765,9.329958493816722,1.3403301991274366,-6.192545908594332,-13.43073448351091,-22.15222174280634,-32.418480588993056,-42.47858904370509,-49.844865589111684,-54.76770351726553,-62.065546359252146,-75.19321816959612,-85.3564955858345,-74.34934962851835,-41.22332014237552,-8.780705187787646,7.232181748889913,11.940332996994105,15.030148226506647,20.948438104701193,29.6121402981938,36.210775579578986,37.22826610268986,35.86700776046688,36.7080174190153,38.76904499945507,39.73605456969953,39.38987441431148,36.38895746417313,31.892008182921053,30.10468845596842,29.636768383801858,25.147404518760702,15.560450422209401,5.8626199375943635,1.9227127343353785,0.5788823512457808,-7.715997770282385,-20.8489790294938,-29.619073095429595,-33.525653631356946,-37.08919546939292,-42.269638287488,-49.17494120162419,-59.27853415530333,-72.89123326877089,-78.4304544823033,-60.763806035947994,-25.55383442154724,3.2577528794977795,14.35383727506379,17.92937839665869,25.623888155734097,37.84574479470937,46.652163274194756,46.9278582979648,42.01030940057703,37.2695765346354,35.22344066383127,34.52748877846895,32.84234656235157,30.80738941865392,29.94263194303143,29.437760562126453,26.61623176381767,21.46099554710779,16.292110898636064,9.985809066062934,-0.8354664462818067,-13.635483586285988,-22.280018605458736,-27.465496668923798,-32.893994733966224,-37.912026104668264,-41.8918217554182,-47.98146922560658,-58.383292225774554,-71.45816869646617,-82.98514583121504,-83.91068275396084,-64.94227846251853,-32.83672819737173,-3.887827386195678,16.620961832892927,30.11607806363884,37.668925893686826,42.954929505570426,48.16989122256868,49.60470042300502,46.334688749290024,45.1617365825125,48.04888257818769,50.58580695652667,49.532561396562535,45.73718745436143,42.04551632961821,38.79278306213725,33.53352374910647,26.953874166143844,22.071607386532442,16.245657319868414,5.654639128124759,-6.904825470435288,-15.282252227539892,-18.75927414394368,-23.08273996242945,-30.759738923529483,-39.404290770567286,-49.09454281776793,-61.44196710498066,-72.38076839651923,-78.00459248473874,-85.5563199441852,53.0,95.0,63.0
