3.587728156099697,-1196.901511353633,-1594.2966559882082,-1396.2433243917098,-1186.6372716838532,-1117.9236485103056,-1058.56147041309,-955.8653086954511,-853.7220160493349,-773.658085553003,-694.1957941754042,-596.3552341428792,-488.0367279766588,-389.7287749847551,-310.0432958680932,-240.5656970974472,-173.73634096652398,-112.10696169149,-60.076887275494784,-16.026012807461544,26.099842978765277,67.63498484746717,104.97910838408629,135.80025989092957,161.32908484733085,182.35777499998744,195.21251493488873,197.7556039324683,195.78838966832154,200.49430133921663,219.6788298374222,245.9711634265227,263.00146478651703,263.5499428998356,254.55700863925532,245.4035676460456,237.33160450883815,227.26193497784647,212.97936498274703,194.60868539702986,175.1382953710269,155.46607957530625,133.56096601528273,109.38393170438876,84.60622179230789,58.70666852504507,29.802336416514336,0.5397920556121159,-18.78747532770853,-20.278763998064836,-10.553739848483271,-4.611789554649568,-10.789000508327744,-24.184853524187226,-36.30044199807789,-44.45164299964674,-51.9998610090088,-60.638998876049016,-67.90514020282315,-71.44736350485364,-71.5446972796554,-72.37621126471696,-78.20208722129892,-86.28611395735334,-92.11870353678913,-97.42438695200458,-104.82504222920596,-107.77426967808785,-95.51902145368811,-71.12936836792053,-47.948899813607845,-30.995022535084768,-18.985472272432354,-12.496329123043333,-10.98808666267313,-12.004508058692979,-14.088281943088813,-16.25172750083073,-16.275833469213026,-11.962671971392378,-4.615538499488894,-0.2217732583662564,-2.6514158819657614,-9.084493426525404,-17.99525189856058,-28.063282028704123,-30.356979014503576,-15.9282318429997,8.64504020427223,26.951515360762187,34.64952022496615,40.09870891304724,47.51629458113983,51.460297410762294,47.999619224515946,40.62101646217832,34.25868128348897,31.35154567356729,30.718245987456996,27.82576266370535,20.23355901268227,11.885460884910273,5.389667309717476,-3.805496643266579,-17.02475534624138,-23.497173449001863,-11.593355471386708,12.008891783540284,28.77018239396164,31.72295527842621,28.381914409781054,26.162742315860136,24.609645689556277,19.742351099514412,13.277590333666463,9.088510527184376,7.089987549964368,5.518134961455122,1.414713887064715,-6.992887353815472,-15.843817025234463,-21.441961476032674,-26.997710590500173,-37.00097949741243,-46.14893846513899,-40.5143055565653,-18.14142021301992,3.8001816901012853,12.174029441030253,13.27875345979408,16.20536458960738,18.01691809188711,12.654093220088901,2.0527136851622614,-5.845687441231467,-6.533634125542862,-3.4511724162870827,-2.7279861757634793,-5.755518408505975,-10.713637800795333,-15.68352918789906,-20.510916200271083,-28.961937601202482,-38.86470031669144,-37.24983963126878,-16.865611487795263,9.446437495823105,23.10270532884571,21.451937842380918,16.530735523741413,17.898013025006467,20.831270952854595,17.073918881491252,10.459822245639492,8.732076204121146,10.040509617800783,8.453418223056437,3.5503766333691624,-2.4534349808724443,-8.781956989322007,-13.690995553821182,-18.684400868586085,-28.55790973144561,-36.04007639309122,-24.26477814308137,3.7014743899032414,24.54376687737428,28.269482980634322,26.235309004448517,28.681570336913918,31.825402872303176,27.34366526870574,17.798250316835876,11.762327268450738,8.071667289221928,1.87300091158755,-6.249208592895809,-12.181392693446691,-14.678568600778535,-17.52605152233389,-24.756921464242026,-36.78588165951951,-44.19946847478926,-33.47051680658481,-8.055322544857782,12.044075354375432,17.585130488922516,16.339840761679714,17.49815861412263,21.765485569432883,22.58117762095695,16.452794702886376,9.039447667644641,5.713916945893779,4.640009806165308,2.2626065838553706,-2.064384193228034,-7.374154821760432,-12.632877597697844,-20.83563078598759,-33.34646953536011,-41.751183931280934,-34.556392813428424,-12.637905327301706,9.72909810426122,22.33400201040443,25.123237954760135,22.47153594420385,19.745055588236138,18.664322220700907,15.674875230592516,10.4724330485905,8.350516325041788,9.955727348129194,9.88911192816678,5.403975909355057,-1.303457559021355,-7.371016823667694,-12.512284680076286,-20.780583408757355,-34.03511508629727,-41.342201477388684,-28.263222826968413,-0.8577555742549962,19.25909223401647,24.1389311648648,22.817496830109956,22.95260891659849,22.943799099832706,18.488298301033325,10.78228838904306,5.303990499800129,2.1021882510579664,-1.8246255294892544,-4.8309008673403495,-6.82513230190902,-10.093155783808422,-14.337031127067677,-19.766490734575164,-30.127890933696765,-42.94235258891702,-43.880572232555316,-23.96158128194085,3.5223566887560778,20.5893501195974,25.607846578641546,25.89665958238293,25.52651602891497,24.174726636614,19.99225990484271,92.0,109.0,68.0
-80.57885649985307,-88.25263293970117,-93.50449503936458,-99.41220255851023,-106.68784322542784,-106.03381827742992,-89.13089337151276,-63.84585358452107,-42.46268537789127,-27.031587384932482,-16.501471134935404,-11.6569567628441,-11.112143143185463,-12.532688876972223,-14.773512776550504,-16.604531980048048,-15.513009165315296,-9.955713396835304,-2.735915504817176,-0.2637365675915146,-4.262196741627703,-11.368841004496042,-21.02492458329716,-30.06958468227592,-27.994565378021058,-9.125713115319263,15.12791979871174,30.002629298507713,36.056456005534585,42.15566905916361,49.33495453662338,51.171458907862544,46.025328311995175,38.510505781573,33.03945368110169,31.093095330408065,30.335291644579467,26.040136827903517,17.653451790181965,9.914746322065113,3.2689514440332785,-7.470616158488773,-20.27756167263447,-22.091604075606718,-5.158741751450244,18.224125013599064,30.873428134445604,30.954638128182435,27.489296376633288,25.84909908333181,23.61189059181061,17.81615867182043,11.764902028964812,8.357761269862817,6.688355717330536,4.751829849939461,-0.6370236826897052,-9.769289631550393,-17.782465554193426,-22.7796654233874,-29.400386805953044,-40.31458719389335,-46.551970671672464,-35.25126985939866,-10.846784791810911,7.666249995614449,12.658502897108825,13.85091164456411,17.185612890711713,17.310294355517968,9.811854048712629,-0.8428882450871487,-6.780025422846683,-5.721142289165973,-2.8259002234504362,-3.2839731468368774,-7.073614693826774,-12.230196135126823,-16.969638437171746,-22.437639365778924,-32.115130326568085,-40.21506798024289,-33.10021631097329,-8.912609788889775,15.199180016864924,23.82366088768888,19.7304869694782,16.212730460158387,19.076541048794226,20.525809399966356,15.01623857663835,9.33095456249113,9.102776614905638,10.026802008173904,7.258924989764307,1.8828260924833606,-4.30057751325092,-10.413670104498468,-14.875204358439737,-20.993220753147796,-31.751228985034125,-35.08857945549244,-16.92989905577301,11.39918186047628,27.13448622555697,27.589062209807633,26.39544148487109,29.955710222795723,31.48620050146952,24.660398705575417,15.51947525228685,10.729696269655344,6.631858587650081,-0.442492363620322,-8.352735124186122,-13.151425599784119,-15.25530001331141,-19.033349216776596,-27.9266807104409,-40.08650695517034,-43.29687793323589,-26.849434408247927,-0.8874490730152027,15.005870595373,17.406752142346562,16.20939597727453,18.622018082439194,22.682663300262945,21.4121811090968,14.08317917655253,7.619661184082204,5.368492674990003,4.166327814231338,1.1943946865007549,-3.5786874075978945,-8.853918574462359,-14.501222572843977,-24.184733704188822,-36.77819562701999,-41.58532203748003,-29.23093432303108,-5.551821702385221,14.520970023775797,24.00055414416191,24.668375131996267,21.498814978658697,19.358327297799566,18.169683007814875,14.191702869036206,9.351622160535804,8.616776094361505,10.353407085913645,9.003374123632504,3.553347940793264,-3.2157271613661758,-8.840546317619912,-14.349681754827564,-24.293421179625632,-37.55413671543944,-39.917668422036506,-20.899585608161473,6.505592650325896,22.00256646431576,23.89228521275258,22.618237646846406,23.197432794038836,22.20238487468081,16.360517414371245,8.798052506719669,4.33510658175554,1.0421964153060959,-2.89168162584259,-5.393044690930976,-7.59510616706045,-11.281056672387638,-15.651570637723845,-22.121740785781206,-34.043680257783734,-45.17230702373362,-40.093021128843745,-15.807982180381051,9.935507174651486,22.975894609861253,25.88782571433248,25.817111099969967,25.30808678649835,23.339114614620172,18.090177877253943,10.286829049216578,4.70820548826766,4.986383729719322,8.514164961281763,8.998252446415266,3.4884172028834484,-4.834781621676423,-12.577629934840262,-21.131923632990194,-32.51905239680204,-41.44018479943649,-33.97317717004629,-7.174009450254881,19.171642935038072,28.203921059817112,24.797873750974727,21.174580607016072,20.731034153615344,19.385276730282346,14.642125388011403,8.656932965820522,5.184341379510937,4.3415707673794985,2.731448105649518,-2.2875005194118025,-8.902270161949389,-13.734545276063567,-18.330592034961082,-27.990784685443646,-41.18157322031888,-44.96042812193049,-29.109840890648623,-1.90357227754878,18.598207188765855,25.249626375584953,24.13527985874641,22.97428814175919,22.403717579922766,18.735451914018352,13.268224553226801,9.480950594061065,7.829141326805014,6.859551961181957,4.6240524565878545,0.11831609027258015,-5.758989385027047,-12.331530146653868,-19.311157852220216,-27.367945539365966,-34.27731502975771,-30.178448648504517,-9.830957314310892,13.821004121389823,23.90462408374501,21.05918357164737,16.746579722889496,16.88171538341294,17.786426952369776,13.53573860915221,5.2997342217354895,-1.2524309094135455,-3.6075363290427327,92.0,109.0,68.0
-45.353071134804416,-28.77379928956818,-4.138736826555262,10.257874899684325,12.872071895761339,14.693465246368099,17.885492767328074,15.896136076639632,6.681547682282277,-3.302152943836909,-7.071610207057322,-4.758743383307107,-2.5246030390186256,-4.125886061329121,-8.506460276106312,-13.694107422159803,-18.2823489488033,-24.79172859873932,-35.207586658882825,-40.208292950598526,-27.36971433415841,-0.985498846310555,19.518379240312303,23.406247544533816,18.114686780057134,16.541340866549376,20.11625181958717,19.53054270220596,12.95929658329499,8.743118829847555,9.567477328723072,9.652158575129882,5.848622129899666,0.1604264404135221,-6.161142081498064,-11.862825114712678,-16.182993075963875,-23.818596630555124,-34.361358865687556,-32.126739295321784,-8.654384707411648,17.874646385129004,28.324896285247522,26.839834057234167,27.054446664391445,31.05928525704641,30.34008837136513,21.78016377747963,13.701206111201278,9.741342426335835,4.898607729697301,-2.840939800943167,-10.162235963538738,-13.865102313940811,-15.983300928038762,-20.992780793243607,-31.455443593561824,-42.64402346514735,-40.58356553631673,-19.35539910934493,5.298507987982705,16.74668333379517,16.957956438485525,16.445838179766255,19.925924816653314,23.10349083623979,19.672729088848556,11.820463853059445,6.6032015896642875,5.102692948552604,3.5218056734546925,-0.02979090065916462,-5.133838444653185,-10.322641786842551,-16.74251735959009,-27.854813842175215,-39.55646730158062,-39.86777063866021,-22.88773749741049,1.1592631086702758,18.369326191868296,24.91592837927358,23.88991121872673,20.648193975425784,19.088004178254238,17.38900745265333,12.609345247554863,8.630744463999672,9.122064092791264,10.450023056795505,7.75123457926416,1.5949777762940092,-5.008924065527089,-10.26833812996033,-16.589223498869536,-28.197641294046868,-40.14646993996959,-36.51446082236112,-12.777213346128296,12.713749559126533,23.526312422743317,23.43188718049608,22.639857548004787,23.305465119400015,21.00643774352985,14.068342411021383,7.1400072927637765,3.457008924200327,-0.11267620133171141,-3.80136625267589,-5.928204428232383,-8.51460863352403,-12.508579948415015,-17.111458221328437,-25.00725858736105,-37.97686784964471,-45.95864333050639,-34.5266580225473,-7.573661900307365,15.152281016604581,24.496694885306407,25.95844379657107,25.72289708945218,24.973980658310847,22.21343306965368,15.940215783920054,8.200853445344041,4.171030433122848,5.939827734831716,9.216341719882744,7.976855709242122,1.1489225698761165,-7.154643346620734,-14.824287270737079,-24.155057400656496,-35.884412382757176,-41.548235239077634,-27.665669696142107,1.5905512290245085,23.726165898579886,27.89324889304163,23.40335492391412,20.840970105908703,20.6348799459555,18.34776360631305,12.856435639183298,7.290922571975436,4.786834467532383,4.128835602314246,1.6460506100891357,-4.217674118179458,-10.544183214834774,-14.853115929697838,-20.43800632991764,-31.843789954149294,-43.93672637696971,-42.42283768225135,-21.60066478324378,5.350621313442085,21.835083905416003,25.3129878041201,23.6053834556593,22.92732345339957,21.73463262162073,17.149665535396817,11.923881424208108,8.82688063130205,7.564998681161628,6.425927769506669,3.536619559998706,-1.483703250062979,-7.605366185624784,-14.299625919960043,-21.492589575517364,-29.80179728859284,-34.72448809582292,-25.749974437231895,-2.405774524697722,18.49032776763403,23.93706944860299,19.507338597783853,16.33803093136263,17.386381902210672,17.2057903772596,11.319812495996098,3.0235533826023735,-2.3500102027004623,-3.660565776285586,-3.261813838154335,-5.434994966302878,-12.263830184289754,-20.38131184959798,-26.44839608915027,-32.68622897607091,-38.89199470928969,-34.31023295808813,-12.164659205569926,14.375422307701683,28.142051685488788,29.47617364065836,28.583689914605053,27.33904856887178,22.807078484683014,16.888178901058932,14.357743245367425,14.33404921360634,11.815431171532396,7.135156303807137,3.766514606811232,0.03717580150095224,-7.343657877873182,-16.11639741674535,-25.109795432358865,-35.96771124778775,-41.44082266305066,-29.37848198011993,-3.658020183373577,17.18383872872148,24.252378037968146,24.69820081554701,26.316793473944568,26.710803025429186,21.06159471218078,10.81948080944854,3.4931677010521516,2.2788201072703655,1.817109193238344,-0.7495474972125371,-5.242118640308764,-11.871866442325782,-20.047166480275152,-29.320643738608478,-38.84779194607867,-45.45599618296487,-41.49951730882083,-21.38889621611662,5.297883941515316,22.951784652930993,28.245381538222304,27.20801804801239,23.842325575335607,19.739223360819558,15.11698210779525,10.482065494917636,8.395336131697999,9.35558771157752,8.99885939144218,6.12249299099876,2.2786704990321245,-3.1417146078134315,92.0,109.0,68.0
16.49751971420691,17.080292347387072,21.225548183871563,22.900553813847804,17.524498686822724,9.832200753516949,5.932501744843913,4.808887982254723,2.6997116317845826,-1.3948493798413732,-6.676904592185946,-11.864711057775787,-19.435727759957317,-31.638887563926843,-41.34437389191112,-36.5752890059014,-15.931927396123923,7.213362848712549,21.287546787024556,25.184500072321114,22.933548201729373,19.983444010312656,18.82204753491956,16.284692361717838,11.098422074990694,8.34386375036732,9.706891688903172,10.16139731716943,6.199271314637306,-0.39511550110450916,-6.657882538590237,-11.7636434680633,-19.333019720589196,-32.232411677372575,-41.35621984269278,-31.241036627122796,-4.530443651321423,17.52819127450993,24.10483997929616,22.97963908424358,22.83328802670497,23.14178008316437,19.37153441629825,11.785021792678013,5.817200127509301,2.551459364332165,-1.2947679093736766,-4.539929265529448,-6.517317491868768,-9.570011951801533,-13.754030221328973,-18.840963852403217,-28.41202328163923,-41.54329964875937,-44.97839297380109,-27.532216625776396,0.20792787366937854,19.141511491286355,25.367706962235346,25.926855777731607,25.60018162003713,24.475021535917566,20.767840918348504,13.641225339091589,6.446835142368181,4.167873714960928,7.031457706352016,9.504378490317258,6.446312899760924,-1.2946093579975664,-9.384888927404704,-17.218274719856872,-27.444701746181753,-38.80310213272605,-39.88785295506514,-19.91761262135087,9.65685342403296,26.62205740946155,26.86493168006675,22.25040176321138,20.73750520595621,20.33482499128286,17.012378502574414,11.062257702569905,6.217691230070032,4.559149021396791,3.7503287666185985,0.24045689662172184,-6.184221870177621,-11.970764374485432,-16.061764528911404,-23.104023853808936,-35.83357466303623,-45.4940816027334,-38.12309237042397,-13.556545550633494,11.615253290791225,23.915918026845695,24.958365529850248,23.224698514821373,22.848199157570484,20.727619026085105,15.51787077498219,10.780425470477448,8.334638620310608,7.31135126892327,5.8368487283661565,2.258175524991053,-3.169798626733478,-9.500485758770774,-16.296091383852517,-23.802372304977816,-32.01332214989252,-33.94015350687572,-19.975524619963494,4.781535862132239,21.717911309058458,23.114267451836206,18.12611004471014,16.34336480923925,17.782093912515794,16.082684404160087,8.891235464698195,1.0275547478857856,-3.0888225377014904,-3.5545918800967415,-3.435392352250384,-6.9894593607524,-14.70435290058697,-22.34620834850403,-28.0656844308054,-34.784040200599726,-39.27495763203741,-29.508156272783054,-4.000067678802795,20.04332350110108,29.337299248592586,29.139788364086606,28.41958872840326,26.40562295502637,21.010644869488566,15.683328770783511,14.33143943557055,13.993706336405927,10.502776373814811,5.971993602314631,2.935594391411888,-1.7140856154982567,-9.909642263122073,-18.575535550442968,-28.133481820390724,-38.71289525870632,-40.042044567371846,-22.60457255937648,3.6177946930638543,20.539951811958364,24.56284033887343,24.968456791486425,26.835526656738153,25.785330792999055,18.30824590848815,8.05749692971793,2.6706950565712817,2.317349465324309,1.2795243716746083,-1.8351146730102843,-6.9510950416164095,-14.105720338660579,-22.626976293729577,-32.123361194187865,-41.30256417326271,-45.822488365712836,-37.25421074414073,-13.575958988004977,11.782228991274973,25.52970571833869,28.342807077828226,26.378755444259923,22.69983172948731,18.46668914223066,13.700622164966179,9.487536058661828,8.506505070959609,9.568193802294628,8.333278760076144,5.1075206153285295,0.9119995762756344,-5.0612137205701435,-12.841658883552151,-23.06656352074657,-35.12582463463005,-40.36647429907116,-27.304740941072566,-1.464096651467118,18.53620580871268,25.818286870769594,25.808126501891525,23.611136670785445,21.35159310409155,18.79379385705462,14.511878107736331,9.959242417439082,6.946432616275816,4.633290825719154,1.0228746065949446,-3.528188403333076,-7.782100972966428,-12.60271336563891,-20.1867078404266,-32.18576059796121,-44.616903910668405,-43.841113364124226,-22.324726540919972,6.2644817081057145,23.840081919812565,27.283858538543846,24.14209554610178,22.011159342199022,21.986735622796466,19.37189904739003,13.34485668590605,7.6858889135683395,4.835523075369467,3.106835002778143,-0.8357548716177264,-7.386413812814377,-13.046459654316642,-16.239851643846546,-22.088714146694414,-33.37335018439927,-39.308530822595124,-25.656136708283768,1.7669481327507717,20.573250387037962,22.88044439476061,21.57458199930519,23.719105397209773,23.031792389003606,16.18162612574624,8.562437349509057,4.873072957932116,3.8186957458145634,2.7754575870285354,0.20859436832565306,-5.11322448452705,-12.175081547257015,-18.609386177690777,-25.6272685323241,-36.76383914629912,-48.05255734385813,92.0,109.0,68.0
19.00246454677795,11.32252634277763,5.138771803477747,4.638665813699993,8.087161614270792,9.284395612597288,4.495904388622591,-3.733119592057246,-11.567975702151756,-19.8350190924379,-30.909456458654667,-40.881359813827224,-36.28601634980008,-11.278482545448,16.515417388465696,28.003833678947956,25.474326702167218,21.433204351738937,20.735794677184632,19.75669210586207,15.431777185570931,9.37241981471298,5.446060557427141,4.410727658503865,3.122201613014233,-1.4409281398112528,-8.078576637040443,-13.207747299334187,-17.525503929530043,-26.33396743405899,-39.61680183068548,-45.524411158864744,-32.253826705491534,-5.492755318346917,16.686135481538514,25.0143866438238,24.405055015039633,23.019771593509255,22.603933391762336,19.418219268275912,13.947804085339484,9.844749515509925,7.96794408861291,7.019948665205171,5.055092761764925,0.822763387578047,-4.927117074043217,-11.431924184918943,-18.341929928181358,-26.228653764829524,-33.73415012240869,-31.716476802357587,-13.181928387364225,11.220481658590536,23.51652424516178,21.76729707092481,17.084774518500854,16.66614515424863,17.88262695919911,14.44256868713641,6.414345661517701,-0.6195298384755467,-3.5077026791197654,-3.3852121190716904,-3.944504266247801,-8.930867767208447,-17.120234802509675,-24.101594789972268,-29.813675522936137,-36.780256012027195,-38.3899183815136,-23.232896024947753,4.004712138466499,24.32844841833842,29.71875069476423,28.85166140937863,28.147775555271913,25.14395302056176,19.21197277347337,14.871809356822837,14.399174860319146,13.333435938085364,9.09960371864272,4.986821955348532,1.9602111556614035,-3.8140803530119936,-12.473520961000455,-21.102379749440843,-31.332993120695267,-40.695738022237215,-36.91155821260731,-15.035946993351109,9.99561156624877,22.723032830022113,24.61084352419643,25.440255649499584,27.095372531269454,24.272984823723675,15.284291786245685,5.7659151353217135,2.3186292325915328,2.248786516038295,0.566890901066586,-3.085583662485652,-8.838168126338317,-16.447874626050854,-25.29515953038158,-34.91636645034148,-43.407524161188654,-45.06078429327775,-31.61468406249065,-5.627733703197461,17.18070289166564,27.163300723906758,28.074097894019978,25.41343976207111,21.52169491814038,17.14178629827675,12.312022253151317,8.793511898337476,8.821859140838527,9.53885675584528,7.502985539104536,4.029835577217089,-0.6153928356009944,-7.124340553696441,-15.488534529518835,-26.55237756504282,-37.949829047796584,-38.69428220234341,-20.334990331706244,5.572190203798913,21.81379870454222,26.26241855493225,25.268794151361107,22.917192624317494,20.729166633014678,17.730587625229578,13.108126160698108,8.91168874105138,6.3085906958455675,3.7658011397183526,-0.2711283074038321,-4.79756405607371,-9.024082765825192,-14.412852788271271,-23.189677642534846,-36.19670326110015,-46.42526320839282,-39.52827242359336,-13.822053002987634,12.936907231007192,26.044858869151934,26.651837979190354,23.206950120348843,21.962460444363813,21.672364655991174,17.846771321787475,11.495621290083754,6.572281910080862,4.378752376914293,2.2999561867631773,-2.5637560810576123,-9.2983697521632,-14.103707363815397,-17.351559265206316,-24.986266079630994,-36.417883504321516,-37.64308502039589,-18.2326395957388,8.959725032015,22.56790811111018,22.232855386099963,21.979057227173943,24.154846108200204,21.55507577021192,13.744692592338296,7.054252013738973,4.4401518692591315,3.5928820788789024,2.253435984033861,-1.0214876824512906,-7.103650731462008,-14.137500805745594,-20.40776626001089,-28.349717473401387,-40.54180357878246,-49.2672560301853,-39.54694793862383,-11.393223980526932,16.787105859945274,30.506483973751127,31.193747249788615,29.8068509520088,31.433720286012342,30.76189925332547,24.530270436128248,17.878066560857835,14.780133105680045,13.095617905758587,11.07307654198267,7.4501126991763735,-0.5575979847732212,-10.479606574816858,-17.39777289832128,-22.881193936983088,-33.709294244884084,-45.90071269639866,-41.98045451000731,-16.78412121773049,11.05469137555853,24.160363236297112,25.304040996307933,24.256174243694375,22.244340948074072,15.739401262262122,6.429246203348963,0.46185216790624584,1.2508702063501154,5.430334215398107,5.767892666387834,-0.43860398225044256,-9.68783378549792,-17.26314944735696,-22.361302643961782,-29.561439398683945,-40.839173024735175,-46.189372501680054,-33.23144140689142,-6.4633942912141995,16.258525358713403,25.95096655763599,27.04623097548446,26.387351136616843,25.599569970743275,23.17679899731448,19.876112087110414,16.637472025424525,11.930747336944409,7.765489805460949,7.735703908093487,7.691988986991289,1.8356219189155651,-6.3280828709841686,-12.028616111564256,-18.848301511269785,-31.6279750267759,-40.76347591806705,-28.948756267082594,-0.2776419107214133,92.0,109.0,68.0
-3.660924715201949,-3.265964942114556,-4.863508074650308,-11.167045645212292,-19.398771059321867,-25.7191837215839,-31.74240332357556,-38.38290428918919,-35.97614446798942,-15.82869445438353,11.337639074236218,27.231281292290635,29.61003187988504,28.654407293463564,27.660045786990946,23.594868641329395,17.561130250880396,14.44493900096326,14.398036560052951,12.356696707568313,7.728208548045883,4.137227292635502,0.7212790858582018,-6.188000220037275,-14.979735341628182,-23.79396571685344,-34.54864449340992,-41.53466469822145,-32.10070963971211,-7.206989026241238,15.208774061083624,23.941134419985143,24.641313519414677,26.036873223203965,26.947884916705636,22.192693799359766,12.198806011941915,4.066898985432784,2.2599032981002316,1.9996603410593161,-0.30021811674260557,-4.517800173852937,-10.882702405870763,-18.889289073127046,-28.037696080295575,-37.63895139949274,-44.97568577627332,-42.95868157052521,-24.8165205169474,2.0005936762831924,21.399592151028337,28.04249345757722,27.531631424068436,24.35342937489849,20.310430114857507,15.765179320644018,11.02107602121572,8.442599806983814,9.200950329343856,9.230720714562116,6.572859658492058,2.859403565341209,-2.3076488906771977,-9.330070315010907,-18.376761310816637,-30.138082264200758,-39.88441126391896,-35.256207818419966,-12.693913268345616,11.670224278567293,24.053280687081877,26.281240002265545,24.628012434757586,22.256449065798748,20.039915784495097,16.503333690329818,11.750148215056127,8.018203588027086,5.677215979214278,2.7491466020801174,-1.6023077980938156,-6.0233507635213295,-10.360541963464525,-16.507349779939208,-26.59954607579399,-40.04870874389938,-46.710303816029885,-33.484134088185314,-5.266594415840645,18.345093364549037,27.163938397791135,25.697213620230208,22.512036430819492,22.022717744835646,21.010790416561967,16.092487217834393,9.785732485221681,5.71670476920034,3.93418820890767,1.231386230989121,-4.473818025760223,-11.017885278737166,-14.97947146662871,-18.87479939299916,-28.31280945408513,-38.5950326614871,-34.06581384477235,-10.086226367848253,14.840362927856582,23.2840523016199,21.704761931507775,22.660399128985745,24.12698827761317,19.591463702951895,11.43244428345904,5.929228601328873,4.145502610327863,3.321399105222409,1.5709852738844043,-2.511676416589323,-9.172853727946425,-16.002938246444206,-22.33497954038288,-31.504962889875866,-44.10315562042248,-48.82434484036806,-32.67757277044231,-2.3501650048480416,22.477230294857534,31.617636592483823,30.543264152482273,30.078009847396974,31.785136955393583,29.4232318640896,22.345794755989026,16.636594712634125,14.288619840814082,12.551834104028243,10.334859609492028,5.616718852454083,-3.4876203841463296,-12.893526137821178,-18.829198625938837,-25.279878637947633,-37.757305455619786,-47.1492624289812,-36.39436467116818,-7.930175504394601,16.600603632497204,25.219435057584157,24.97028422452812,23.9475864897587,20.89598723646244,13.087564610167147,4.106499439480403,0.0023495016854166474,2.4319357890325124,6.181913073903287,4.579047844741866,-3.036772773078964,-12.191496020449744,-18.869558842979348,-23.96773655101628,-32.605815942480056,-43.683075389943795,-44.555405146753515,-26.185184206674002,1.229629187014478,20.37594462131854,26.793677079787777,26.845630763090437,26.238420711765286,25.098966000530773,22.216261444696748,18.988721529438372,15.457482199997964,10.446493399338456,7.3334852342622625,8.09527741466366,6.622949030451394,-0.6056251814007221,-8.240315648018072,-13.548159114883832,-21.985298042450655,-35.509716845902915,-39.91601106119489,-21.472488637370574,7.774198969340492,24.79193635604866,24.13455318412537,19.814478295427822,22.186643740636427,24.26701445246694,18.568858899235632,9.619216124216841,4.58572265347131,3.6822587582618063,2.5066517842197595,-2.395014897835202,-9.473337962820217,-15.107326818327254,-20.44720026772419,-29.587357963514332,-40.61649646560018,-41.23491400867143,-22.95126626060281,2.9780198951978463,18.929344635638557,22.27899027003559,21.397864824391476,20.423333359681735,18.009692261593955,13.968010766965186,7.6033572970502235,-0.8924835034026793,-6.041552434239758,-5.090711160073653,-3.551532337307787,-7.578110978030096,-14.96318713588411,-19.530427894745063,-23.665580407955265,-31.83755807926166,-35.644270852531854,-20.387489477988336,9.707821430537487,31.060252127621617,32.68230840451957,26.827832984413597,25.65854816969288,26.408626206275965,22.874304439542243,15.531200764542511,9.767067429635299,8.563501362833879,7.502966927990987,1.1543360261005513,-8.047544363372925,-14.123293667910884,-17.30145459875803,-23.99958822688482,-35.07155995204375,-39.23190015674803,-25.594625898468603,-0.8640387136254849,18.333665064273234,25.278854176769066,24.78259421668549,23.261302910050738,21.57593950066367,92.0,109.0,68.0
-4.157933490956784,-11.69221874542042,-21.52806088591313,-33.62545268820774,-40.564333240811266,-30.14755604820101,-4.935443968504091,16.641120096745794,25.42527062353095,26.00623603056452,23.935694307128514,21.63262199294484,19.22450098533068,15.155917232671944,10.493454838889281,7.260549872840068,4.987016226349403,1.593671839190709,-2.927790667373427,-7.225568344564752,-11.849504504356387,-18.93873287295264,-30.364476089016595,-43.3749568636276,-45.18972959604687,-26.0703645845698,2.8177072009790587,22.41031614564117,27.405500076012448,24.625359408787663,22.105477327432713,22.037863004897947,19.971896587697895,14.218131319748343,8.289928849331652,5.076609706485727,3.404626135717962,-0.1201262575173043,-6.469269905352678,-12.472170578381183,-15.817063057640006,-20.93920141101021,-31.80628378493488,-39.457974560443866,-28.67370046963577,-1.86667055080802,19.140698255545004,23.12489455217139,21.519331103389774,23.413406165859705,23.51834030483044,17.298435823756982,9.387842426586868,5.142358101522766,3.917289996331124,2.9717997306196278,0.6909943413269586,-4.245033478297255,-11.24047205694781,-17.7937406941424,-24.509900993277622,-35.04329227645595,-47.036084920874586,-46.47704188937618,-24.52637467279551,6.15204810282756,26.745015387807058,31.834735790006807,30.02168923142077,30.59357599207852,31.747025722659693,27.632118227526153,20.316240487853545,15.714615258627552,13.822946571556011,11.979394556799118,9.396770734143205,3.36055487219253,-6.439923451379668,-14.957177780363045,-20.276353205330352,-28.300730049778384,-41.62709111729397,-46.55712420138541,-29.175113865454726,0.5093234332183383,20.66551151763027,25.544477009104405,24.65109124927945,23.477346676955104,19.096885331401594,10.32050884674015,2.2230991271409657,0.13982320530266945,3.7353466861458235,6.438263292826654,2.8516863362840548,-5.75831001548558,-14.454940790756574,-20.30450810422005,-25.91309644377634,-35.95055504174662,-45.65524198277008,-41.15969362609575,-18.32943523686023,8.121649363739696,23.355677700995617,27.115826496114227,26.63574555672716,26.05350296497148,24.42497733224843,21.24065091893242,18.09405488510104,14.108364225008126,9.126719731143165,7.300387046393534,8.246819644348065,4.9926735176040244,-3.0546473825387923,-9.888769823086704,-15.346045948798624,-25.68276970012675,-38.64419919799251,-36.94447475391204,-13.013673111982042,14.663409922830446,26.031875295098,22.488026413233847,19.853776098605316,23.346262609102883,23.42552359258069,15.919996457072108,7.604335148494084,4.061277696808466,3.5830175807563958,1.5184903509448913,-4.41291631336153,-11.315595867910625,-16.49239765514096,-22.58011987192369,-32.9659455735039,-42.52021771829844,-37.78733289572065,-15.339077274768389,9.089943390691504,20.876633905308147,22.11262238836909,21.15078063726069,19.927531328771813,16.990760654009797,12.44689101316012,5.204169706389402,-3.0039193984905794,-6.27604477425019,-4.34866114292589,-4.042171911105027,-9.694812416785734,-16.678813519011893,-20.44463871562747,-25.679177820386155,-34.11714113436807,-33.55686586339365,-12.311755144988757,17.772769084160846,33.32351689576008,30.97119365281252,25.881650890106194,26.031887553706273,25.95177082443871,20.945508352809323,13.457781609791592,9.003194223356273,8.578166271567857,6.270744276882243,-1.5047111353897642,-10.288431068961078,-15.100674444128947,-18.61232062652678,-27.04840526719945,-37.66495168392307,-37.216500542542306,-18.841894896755054,5.842163106754496,21.521539669076763,25.564006338978242,24.27457019544517,22.920032845841458,20.56827122537721,14.424626796390895,7.141472793478511,4.042682584245617,4.733588246119447,3.111852747276857,-2.895519685188922,-9.839613676302696,-15.03721321809788,-18.921372849067883,-25.86434204436789,-37.68457147090168,-43.53599760973016,-28.68188024127295,0.8464171864898006,23.080179968814615,28.551669592715864,26.413959694759754,25.55602917822059,22.535664935193253,15.084801516129353,8.918118984342227,6.5188826130299145,6.489255685482986,7.673147897903316,5.7436239066499954,-3.2303986817265034,-14.708395229395734,-22.59508662843681,-29.607147435749102,-38.68765972888279,-40.72251724035875,-25.06243205160756,1.9805492876251707,22.950321216177393,29.807846955392762,27.78357036447894,24.088029460329,21.23300938780784,17.997549314716604,13.530823158788658,9.370620641024653,7.362635578624321,6.60170388968767,3.698917541753676,-3.5628548816796175,-13.122734289483065,-20.272067426882863,-25.300819309200087,-31.58160880647268,-36.1912885969622,-27.064840120999992,-2.6127721066778262,17.654283421253762,21.175161708383204,19.634049334744336,22.8415099331501,24.51417424047523,19.74850937572272,13.016248486068038,9.827639996589985,9.01439164472722,6.620690463083801,92.0,109.0,68.0
-48.89251763629849,-42.164465056225026,-15.608850519763827,13.707092302868784,29.617327272951744,31.469350433639043,29.793585842279928,31.18801361677116,31.199921365554,25.542313008159336,18.56883156150688,15.036684521451742,13.334108292405846,11.373287636800193,8.1523531881727,0.7415744831001553,-9.260205683726742,-16.688691591953244,-21.96285670821364,-31.902355431297494,-44.81102583356523,-43.9044529893314,-20.836507894424155,8.015118369199165,23.338984099966094,25.43262647831476,24.377624467790632,22.719996778668673,16.879463588073637,7.611155871565786,0.8806190174186936,0.8025273871195698,4.95284558065461,6.118146054004255,0.6795911632450119,-8.47186605909756,-16.440918223737626,-21.69357981198374,-28.301479922803857,-39.34711378642194,-46.371155002146935,-36.078101574814795,-10.17891013350959,13.959680069861454,25.329803943884002,27.111576747137246,26.458208216744197,25.774457210682556,23.597450024484854,20.296097128051564,17.126369310533615,12.630840365435262,8.106552473799427,7.562596497415317,7.988950189577833,2.90601467715804,-5.35129744584088,-11.364657629166476,-17.609976601330736,-29.73510411163215,-40.48519948849825,-31.89900504633118,-4.241194945174805,20.025807022910815,25.91282805252296,21.00973540202322,20.527783417271404,24.165496017116645,21.86258651413636,13.220531329005993,6.045752691990512,3.809375604775475,3.3369709364895344,0.16309728925890393,-6.509603239427455,-12.969178964140806,-17.944189707194194,-25.133148568642415,-36.35079115437844,-43.159762057931786,-32.700941691963386,-7.576928192626934,14.009543576617602,21.90346949630012,21.822391305896975,20.905639384329042,19.26402550126166,15.859044451446639,10.679739963095505,2.6816354706676977,-4.655079460856513,-6.021258925388554,-3.759077666641165,-5.106059754051782,-11.925139069988655,-18.037790511641607,-21.504116000853397,-28.074082569871763,-35.65826683744348,-29.55103121336909,-3.399738803249598,24.454788487021705,33.9494170293731,29.101487545007416,25.48215583722355,26.366587785565066,25.030339295835294,18.786025276322484,11.669633695181401,8.635860967465955,8.414415790971153,4.516960942495215,-4.251325669461962,-12.137072931753428,-15.93578711782751,-20.4033755055719,-30.365889853002656,-39.29285069911166,-33.55278612418312,-11.539045842350543,11.690235201649045,23.68010216238075,25.4135348421434,23.81093663896305,22.51166951717997,19.196549727228547,12.174044703838398,5.671050472480082,4.084367519680686,4.750471492583878,1.7164060466564792,-4.9726089456360505,-11.5731964879092,-16.16435155903195,-20.379088698639944,-28.973861266268802,-40.789042494898204,-41.64477187536576,-20.732713462335585,8.86265033069949,26.22616280181535,28.108549352890652,25.997749736028094,25.194779506403272,20.656446795592036,12.919566441443083,7.895400033208189,6.305867459526753,6.812732287634469,7.710979320279085,3.850097372919683,-6.664762347131474,-17.41485403189909,-24.424532222297735,-32.17722370292272,-40.64402414782855,-38.13271866136415,-17.669389601245335,9.329793627459033,26.320677519633,29.75447866497331,26.67785333399923,23.1897410064592,20.418724910434207,16.803637472433522,12.19316243968186,8.53632791832135,7.149045784355667,6.1298766004308165,2.064993756076515,-6.319030466969836,-15.552103702555147,-21.78428322421808,-26.904657715653748,-33.52693989868719,-35.47408626325976,-20.99302384681831,4.697744298255328,20.221474198996408,20.485284595657728,20.142949731143347,23.893181898464462,23.7349105510012,17.686429299388926,11.635003432896085,9.560614860292569,8.57013576302312,5.50646785616328,0.2939781764039503,-7.320110480226969,-15.904989919842206,-23.686307086835107,-33.54299222047021,-45.727107130579455,-49.78652465988087,-33.977985276210276,-5.056200334339511,16.97390886912984,24.6059020694377,25.728997207116382,26.514807199754127,25.179382077474266,19.0027748034396,11.384545325555566,8.016521930975804,8.97539996615716,10.492235265341819,8.889846313552557,2.759668715596322,-5.887395829177733,-13.848825433132388,-21.322423382306198,-30.1726715344944,-36.64522736617731,-30.825801025225186,-10.164927410357201,12.234645502636443,23.420835338684064,24.24269629000866,23.000188611977862,23.27749126225149,21.451651237170207,16.338394719337757,11.571312474566982,8.091570470162903,5.048080358367978,1.6594407154174227,-3.0960576677888865,-8.741358679003225,-13.653192142678959,-18.55914289456035,-26.45260472732473,-37.62918518889113,-43.30758787080429,-30.888020640329007,-3.7448978607204877,18.435456733305948,25.450615119023766,24.030657648889026,22.403078138576262,20.843098638966566,16.978797073026428,11.643598964851062,7.625030026895852,6.583657115089346,6.30921353390297,4.203257384606909,1.8984234706620438,-1.2898382028599409,-7.553158037766625,92.0,109.0,68.0
4.177962879307903,23.68326978652933,24.830001780659767,20.03671586154399,21.62207606428776,24.3995163424214,19.707927332263633,10.684868483324196,4.9484163210456,3.7107431179817345,2.841581734025129,-1.5255105291846915,-8.565948978597927,-14.458272230374147,-19.589762230550168,-28.101352808697925,-39.41596720213701,-42.237239088512,-26.26074659522292,-0.18273413599202634,17.660038843443864,22.265284181084155,21.523625587531317,20.601220302543602,18.43842074686485,14.601110791853385,8.63608509923322,0.19307405065968353,-5.741554821075692,-5.4271819863363415,-3.5096993596516497,-6.698561646798401,-14.059964546384794,-19.101094316648613,-22.886749778883615,-30.661755558767123,-36.00299513943665,-23.66608095224716,5.668644670869029,29.40405628564685,33.29361643288916,27.446099025269767,25.531982142669733,26.4753286099307,23.650244726433648,16.546544306969423,10.267356117450491,8.552166428319005,7.896710216590807,2.3002752081052367,-6.90253004470063,-13.580485012609449,-16.820740836334274,-22.742012383612803,-33.65981976032219,-39.60481517151645,-28.395138621257853,-4.163673754413088,16.493387207412404,24.947268514230103,25.0098923666046,23.421309765096744,21.930643935919413,17.463438145690933,9.96505050202478,4.667329093035841,4.343782363845935,4.4025988005200505,-0.00755938899094874,-7.0252701416201075,-13.11892597631679,-17.22842307436744,-22.238860090961097,-32.461710057158506,-42.968411621818035,-37.73641118407647,-12.001406484398332,15.712314248814723,27.96718108365072,27.39031774410386,25.782516045307634,24.462792500204966,18.463390316393784,11.036163697245724,7.167036342898511,6.262040084800483,7.2049450725204345,7.3312480146787875,1.3262662343544707,-10.09776374568897,-19.730714187004402,-26.351537803996425,-34.909448307304764,-41.65139149927405,-33.89497879817103,-9.693560501263407,15.735526780798338,28.484014068006672,29.174574077690263,25.57318101292919,22.371463072637212,19.520712891848973,15.510288068850667,10.93886291147527,7.91691879400477,6.976714559650724,5.390370092060546,0.03354567449840082,-9.153740371958703,-17.679777181197238,-23.195452096046843,-28.69821909040114,-35.146988648312295,-33.250444736021,-13.840951686617183,11.019954929459438,21.346524222454534,19.846688711515977,21.098442354156905,24.554712784133226,22.405617204882343,15.639831100597679,10.64491742538413,9.380366711254787,7.923771357118308,4.223969747360456,-1.6620075618732466,-9.834740903972152,-18.19319004455474,-26.145189109262276,-37.0803442582235,-48.409982411584046,-47.43122059057716,-26.098344301293427,2.7455169748303017,20.4697535629944,25.157099873955318,25.95832440147831,26.5292258116377,23.882737936984782,16.647516223811703,9.842541204949645,7.991406866350014,9.537120783369472,10.476296291299525,7.554341244754034,0.36231818703190855,-8.342413050199266,-15.943527198691568,-23.744752882977266,-32.67039760688139,-36.64337341720676,-26.036192343652672,-3.1010059721722683,16.85306718888314,24.37943270654067,23.767269814732114,23.003491347715602,23.160409451345327,20.1695119969975,14.802385248098684,10.475037924009857,7.1954048812178675,4.152249318449551,0.4510810323831216,-4.714117954541767,-10.272219520512998,-14.95378430494961,-20.40692710786017,-29.52766429499842,-40.46456849102615,-41.89741201832372,-23.794804854317153,4.000074946003964,21.951685487425806,25.416041252652636,23.42964313235871,22.075526593104424,20.001966601980424,15.46953481868185,10.229284974971755,7.027850258833889,6.612892184521772,5.870767590331932,3.478623244497721,1.220969699975344,-2.804716791935671,-9.688611210826048,-17.511742082794356,-28.388122920385296,-39.63457157978109,-36.85376705327123,-14.974004975661268,9.51316449658284,21.782387883838012,23.435844083727964,21.447633589765335,19.11051436875387,16.731549857269332,13.88985336906367,10.462064539098819,7.769618519901289,6.949687534217655,5.475751659247103,1.2514218990433634,-3.5637096193622653,-7.771084638715715,-13.771334337282157,-23.430006692422413,-35.64848183621073,-41.851912173907984,-30.877764266499128,-5.793151092675062,15.992884973179372,23.770468144660875,21.42406161967574,19.467727799113664,21.698312991681522,21.365807626856558,14.994337816941334,7.814304821966722,4.410009667036317,3.81334275003308,3.1816374341485916,0.053939549451008095,-6.596188429476027,-14.296294250592839,-21.82903249059116,-30.45665011260719,-37.64601361634569,-32.737588124660945,-10.607927739938853,12.887221572534035,20.419719394285135,16.97384517149602,15.786075094504433,17.490394075036434,16.327872596206973,10.733290852050423,4.446503358355363,2.669970318074744,6.490453644511471,9.712491950449857,5.255486200327095,-5.444567859400104,-13.677176354671094,-17.686544417513705,-25.142203676895715,-36.59295385600213,-37.483315061365296,92.0,109.0,68.0
21.07605206571905,15.431662995318414,7.958458274442871,4.13968376019813,4.638282720122063,3.6205245437327767,-1.9538689023324618,-8.983381673895718,-14.472447829072863,-18.347729040514004,-24.597838601556358,-36.07511637299428,-43.75376753780503,-31.920617002224247,-3.1237566407008512,21.11319286074029,28.566530652330616,26.683375249552114,25.644100062490164,23.25664390057975,16.142949510832867,9.503214844483272,6.677117020964111,6.382158839131096,7.560261342664897,6.39209722944562,-1.7088632341575705,-13.328650530430087,-21.735769170027375,-28.51293837972665,-37.571661149313364,-41.364614955408115,-28.145839495734073,-1.6314384014594687,20.966487198423287,29.594721077478905,28.266339012559374,24.535001557062518,21.592867013755647,18.507324275207225,14.158877746433209,9.824338324972034,7.4989129280046125,6.75045829291077,4.318600919974503,-2.359423518290007,-11.913332167186471,-19.512471236700808,-24.614977196692546,-30.654592884387856,-36.089916111460965,-29.387045571152857,-6.158107099351409,15.929627101865428,21.39093459260967,19.58129486739149,22.28789294969612,24.668054865678982,20.653281241500025,13.776354753115317,10.01738324009524,9.158834284358608,7.07546038450095,2.768323414209932,-3.831975344574209,-12.357376218072945,-20.402625875870687,-28.899153567078667,-40.73423456584962,-50.04340580946994,-43.20332129974753,-17.548544447497644,9.479311975579531,22.79549330287726,25.440413792657164,26.21615855888534,26.26428498673693,22.14624104597726,14.334176142968651,8.7648835753936,8.261421998393507,10.04418458224821,10.11723650536437,5.840021737072444,-2.1642848769732512,-10.668920468034159,-18.05587729480247,-26.314038162100445,-34.79443816049252,-35.332070415731806,-20.109748849230485,3.6612997171712958,20.327633798114498,24.636437183284766,23.335247349639598,23.12810520956416,22.732622868810655,18.668155282151496,13.388299073630128,9.465326445328106,6.320230588776867,3.2045088507357824,-0.8966779759259279,-6.368854233445457,-11.704723542335215,-16.308315098357063,-22.58869324722136,-32.831075577503825,-42.51316816615879,-38.693867381847305,-15.813810231709372,10.796546036208643,24.155080763555997,24.962271303151056,22.93960856187504,21.68594652235744,18.925028901716345,13.898032715594042,8.994797322220114,6.6997861314245135,6.598429980525289,5.260194742130961,2.8090627093610987,0.38632892883414355,-4.595174255205396,-11.851323447054199,-20.207118044159863,-32.10306245401593,-40.92627442344354,-32.07108738060661,-7.2165905903999485,14.51100773608611,23.01219106223983,23.007007981837,20.761579466542656,18.44533179889662,15.97536702314448,12.939388625856479,9.509691891482651,7.383877700789309,6.757391695324026,4.507997047844628,-0.21796408096696449,-4.770338955220871,-9.202407468168474,-16.148722406655164,-26.903107205588576,-38.637283404164485,-40.70772277359895,-24.42206229415517,1.6045738241674548,19.74683647553353,23.689234441382332,20.40720376256972,19.861799365924902,22.215104020730266,20.01971619839163,12.700804681059466,6.393461586713181,4.0819549371664445,3.745257020658405,2.6385433958626514,-1.563949706958752,-8.844150991964604,-16.441469546057903,-24.181711680987885,-33.01845994573482,-38.02338407855059,-27.792315056668027,-2.9080898805292406,16.938158854006616,19.853419575137636,16.09151861411773,16.249091870112807,17.63570829908912,15.079237337304843,8.742516128916112,3.2909130576991634,3.3496649221212333,7.872597439095611,9.369137829231947,2.4571579994320536,-8.408197594125216,-15.001542171949868,-19.170734788676192,-28.447891078106633,-38.767531421705485,-33.59027250301138,-8.113592182408736,17.843862930390454,26.801196938954593,24.538006509357842,23.907615858491443,25.57638042938596,24.18981435394724,18.909451571507418,13.083052534325406,9.045469318154304,6.7035026252912076,5.926994520071097,3.6226702611951205,-4.984797119538848,-16.882900344724717,-25.503155781486623,-32.52719602432761,-40.467327439643164,-42.747353824826675,-30.548845420046277,-6.072168355848904,17.17884002414041,28.497742048249282,27.98309214238278,25.054886248886127,24.43777161296385,21.030454220136544,13.862634619484137,7.917828552874477,4.408525309725688,0.41372913686960555,-3.897410593788592,-7.180269265681413,-10.565629272593986,-15.315813343829616,-22.368507133627936,-32.96786647846797,-42.29421579080517,-37.500528780640735,-16.507680521506046,4.93230108872599,16.27464741547308,20.04837212529743,20.29029581779891,20.262965316960724,21.18086673646318,20.139630373199406,16.346349555277687,13.223432573226988,12.098944590895576,11.073089018012446,8.164373247282098,1.237606490735471,-8.399164244724659,-15.543273304697166,-19.958466359369172,-26.682579843484117,-32.95699473965332,-25.55874858265041,-2.7874054939238873,18.989547162945605,27.661570334817537,92.0,109.0,68.0
6.04135553032259,1.1224616901947904,-6.187065178699299,-14.810992528056609,-22.62444659107877,-32.00008633879501,-44.246548649418514,-50.2538921747199,-37.23314341256596,-8.912149640864957,14.921476793491598,24.19482781059126,25.636856632747083,26.444265114851124,25.622226055109337,20.051928454496945,12.237564690833869,8.153160673020867,8.725047360432523,10.402191356591338,9.370426037045771,3.7951882493070728,-4.722310265860657,-12.867857447506045,-20.259696933766584,-28.961103658723633,-36.26729971395132,-32.58129506519484,-13.40233503000099,9.742070409426692,22.68182536567567,24.42937983741394,23.06041352485265,23.256122992023815,21.939096199006833,17.072799320017214,12.114214712081841,8.515196772080781,5.45155913682003,2.1724824918077856,-2.376393937707641,-8.006136071591579,-13.051128418655683,-17.800641445866752,-25.14644270920661,-36.161175758224005,-43.39265610456543,-33.72081672732686,-7.516240766752554,16.34338275910787,25.247356697348806,24.33087328617667,22.556619632386447,21.154095800146838,17.633441459028493,12.338583080231425,7.995397493265983,6.587355894933412,6.444081249591777,4.5451663041939305,2.185785323107059,-0.693544118677241,-6.5898307822066124,-14.053661026734504,-23.273022288540687,-35.64345582146659,-40.611383883320435,-25.805005950249488,0.19031424230745103,18.292016105198268,23.535035276439952,22.42254217505894,20.083654041258608,17.76785571801372,15.170201478228076,11.94084382488743,8.675891161036532,7.155301521364857,6.409601182659821,3.3007358054694493,-1.6452770903855367,-5.9472054599562805,-10.857713683859647,-18.862402351035616,-30.52402788544253,-40.816962935226854,-37.893407206780374,-17.079845158800516,8.245727347410423,22.22368242106621,22.980216322474224,19.697196148084814,20.563227665769126,22.287906315168446,18.193921865690353,10.522130761121009,5.345420576145462,3.916597680526569,3.6121967322294095,1.8234873220504437,-3.467690980289203,-11.09112383626171,-18.58752686573627,-26.66417677669825,-35.3285312197866,-37.04316195647374,-21.457536861323824,4.305911904310377,19.38934979887744,18.74150895936836,15.651271665614285,16.819653957185473,17.411570224926784,13.483417672200602,6.824695850972217,2.6342221278438,4.455149600932044,8.987297218364231,8.247674129731276,-0.7071746053502855,-10.92933705530274,-16.072199573664975,-21.172105237723024,-31.948763791748082,-39.565959247475114,-27.79437370311031,0.47932227074632533,22.34566948570135,26.613560598560014,23.890831157613782,24.409754104267645,25.64536717394082,22.954383956575334,17.117215744749096,11.717283817537993,8.199502824066103,6.357163725058626,5.6774752166163145,1.853888429092693,-8.44711182120256,-19.817298774301264,-27.455469181605977,-34.84429091668008,-42.177135758125345,-40.90943464184292,-24.25238189399883,1.4163411028110455,21.893752044986186,29.257828743454183,26.929359666008544,24.780425966064943,23.967756014355224,19.153074264961614,11.830266433791312,6.771973395309693,3.3915722773247743,-0.9021829992797119,-4.936032038857948,-8.07220379978112,-11.769021918549699,-17.046139089189715,-25.07910231538721,-36.29916766641125,-42.866391712479945,-32.59980394259363,-9.581925758180688,9.282735209812229,17.923450888804314,20.341605931334787,20.173594530135325,20.508386422113528,21.224739012198295,19.210592033539324,15.22557285679769,12.75258323448092,11.884818644165074,10.522707692170039,6.633685544151885,-1.4842465116455155,-10.897818111269478,-16.893144309507512,-21.50829841214916,-29.05469913786825,-32.73618267251399,-20.0278611537841,4.422469546058713,22.957629105364198,27.902546241318703,25.097154695400455,21.41403210986177,18.558163923448873,14.76352029975954,8.996745645227747,3.6327936963245704,1.0353919606881499,0.6508232718664227,1.0239410864712608,-1.0127209669578519,-7.86902180517632,-17.681182343454356,-27.50289512928083,-36.398035266479354,-41.00071985947795,-32.33143598235138,-9.977815607713204,11.736929887906914,21.945605156743085,22.376590887278244,19.93212181187866,17.881152452658174,13.899616748208222,8.099741468297863,4.8153710142220865,4.3783452893791655,3.2145248599754273,0.38353250201745126,-2.5828636069776625,-6.7744404054753495,-14.195972932077568,-22.332928622401457,-30.03199156446749,-38.35653603897909,-38.35894475134058,-19.495904459128948,9.896427007807091,29.292622002336252,31.048788279564985,26.444893678712113,26.470134158079638,27.938592594876905,23.097988449421333,14.092898872321808,10.285018785908079,12.673759656163593,11.693520389345242,2.885367423694467,-6.542414617333619,-11.102642499197438,-13.632100327316277,-19.57861951638982,-31.46641147882759,-42.23420976189765,-37.26087619268615,-13.953776167232997,9.794891690000718,19.750133630770698,21.16032899845148,23.959753285433766,27.031471810271462,23.901753337684646,92.0,109.0,68.0
-8.698924427444013,-16.372173630121576,-26.708782493653832,-38.59613701894832,-38.46972530341157,-18.521198531638138,6.8110601414934155,20.919660034862286,23.55081457229433,21.762455771330195,19.416291012957323,17.066225333920553,14.307984655490477,10.924113780127604,8.011247480264894,7.012625186864266,5.831570794254304,1.9210903824697656,-2.981389985513684,-7.16969346845167,-12.783170642897446,-21.915462565920947,-34.09317728503158,-41.84731663105618,-33.43693763061925,-9.347297754165702,13.828661343049735,23.521674134725583,21.936442687137735,19.430271579494974,21.36283245886203,21.795086085870548,16.044170310869852,8.59332063855822,4.638123669976811,3.8386098739609498,3.356996539522276,0.6899259658348713,-5.578869816595954,-13.296234617339403,-20.785033763538767,-29.25039485906129,-37.10189425040147,-34.47902881546019,-14.151988026406556,10.493863514771807,20.3769857978566,17.497044038261592,15.657366329488028,17.32350207498095,16.768229723737235,11.636491799034548,5.121852662752837,2.5302258886928444,5.825234087461198,9.626571706493529,6.359159950958084,-3.975755024740458,-12.927270754023299,-17.13153164041972,-23.761274448483228,-35.259303927412034,-38.5957589916529,-20.451564707834635,8.43350400357984,25.202984823742817,25.859087011410523,23.623880057678583,24.975925977154883,25.342941182029165,21.43586723723761,15.381648239755373,10.521613089429874,7.485569791823772,6.143120727640013,5.166771633946049,-0.5356432058090054,-11.993570836909926,-22.3595926373216,-29.420112031589603,-37.22789436504068,-43.1599724349706,-37.68373822605752,-17.143396776990688,8.416420579557126,25.440065304817473,29.146859033984164,25.971352570078125,24.671823868704553,23.096312134163362,17.041887763018202,10.036033847097496,5.782723078324772,2.2577470514584554,-2.1847728238630033,-5.883330307372591,-9.017813279246498,-13.103436918185288,-19.001000510961692,-28.117414244224562,-39.296454738760985,-41.899650587330164,-26.525423339514298,-3.108699893549882,12.708622587701072,19.072499347330876,20.41361933398414,20.122144263978253,20.81580505775293,21.00438377009362,18.09363744177935,14.263517633342042,12.429594406571495,11.623211530135903,9.768984290478548,4.711246562216951,-4.335416315207826,-13.051029098958802,-18.102402529809137,-23.392590262200027,-31.167178235226565,-31.001924047273675,-13.413567951213622,11.05042421484703,25.68735549123895,27.5019725909222,23.948316457275148,20.54986916827059,17.654236064159775,13.261587126093117,7.239944827124375,2.5908238438038853,0.7436966547165865,0.7838598829217602,0.8524380885001573,-2.5022093759481594,-10.557553871521588,-20.59538907709643,-30.193248217655093,-38.5152871117365,-40.21051101831705,-26.819013036152132,-2.915868881403095,15.994939989985244,22.78121372130704,21.69129705253225,19.339967509656613,17.051770851997357,12.23180627069831,6.748321137994079,4.540089586558263,4.249842740627992,2.496389238455891,-0.48726920917048405,-3.532973039518865,-8.607364721056117,-16.64706593151568,-24.485588031546367,-32.522224798688555,-39.86231258570892,-34.92702813472144,-11.186732300317951,17.286187329248612,31.367294381657477,29.671078094170717,25.851180695205596,27.16490388314817,27.3434240371732,20.520682489574753,12.140967975887433,10.659510945708272,13.184340475065305,9.782994504359092,-0.18624386981150937,-8.355092922350375,-11.800960316494907,-14.778196890201544,-22.48357021255244,-35.306966530418244,-42.96481454692653,-31.89255792957612,-6.166061037381293,14.183007954292048,20.48247019602346,21.629102925192754,25.144775549660565,26.909934531144614,21.790575063457318,13.496185156839887,7.6110859327080735,4.58159781402217,2.2788879617289695,-1.4088455551334302,-6.790274527932983,-11.972039848538309,-16.29324057094746,-21.650519032901453,-29.560895699926018,-39.29251497873074,-41.60101063224053,-27.100722347200293,-3.153064102135711,15.791734009675467,24.069040004974674,25.86694329088184,27.349670559596586,27.810894164708586,22.25453901577452,13.310306706646077,9.177122427462301,10.29160872629196,10.35640618888597,7.4919592032526,2.6031458370119878,-3.540038551093956,-9.204686815716968,-16.03748622436238,-27.47209521207509,-40.043917813281396,-40.86721096236621,-21.660757674995345,5.286758350001044,20.378552699040245,22.05534614415091,21.51767074445377,23.608898502933673,24.042238960751906,18.320438134486185,8.05407906763897,0.34610919206325474,0.254464320596103,3.6557059276494783,2.1785216853289158,-4.215802366520201,-9.41852938861247,-14.268494292383545,-23.417924881129327,-34.39463867584778,-38.350856140243195,-27.479607078466035,-4.424743152905004,16.837650702658237,27.629014140557523,30.798972667431155,31.069757619652545,28.76451790519928,23.57486857751248,16.903340773820755,9.485110896712523,2.6872205667556606,92.0,109.0,68.0
-35.634400443267175,-12.112177789702107,15.215904094217105,26.58072835346986,24.932465530260878,23.744415804863927,25.438511066338318,24.6427741439591,19.7300157999534,13.771375996585682,9.479354947474055,6.914922569705347,5.998625633828028,4.233445174536221,-3.480054611755366,-15.404954105479266,-24.565819560103613,-31.508526787384664,-39.5107266874837,-43.150037260502565,-33.090999219050374,-9.592602599961086,14.636352509886123,27.797116858011982,28.432102415321765,25.272946300793713,24.55081746285255,21.779526138892944,14.853970712895078,8.523109717994567,4.848112329535723,1.0130204176812578,-3.381906344696098,-6.775382159900836,-10.052017226456623,-14.580926129893925,-21.232918069284846,-31.408111570607222,-41.58548404149761,-39.266031980624845,-19.73714906204563,2.604337258147306,15.31311371056927,19.81852942573494,20.345069155167824,20.188042042605577,21.092879923782874,20.48122216295657,16.895140919760006,13.503655076756754,12.19468668193496,11.274147512026692,8.745599028408638,2.409945371333821,-7.154651336727953,-14.83449681374865,-19.33581337076504,-25.59489546924967,-32.621843891436946,-27.640448096181718,-6.185034692573297,16.7451263686255,27.270793596660603,26.679086425986892,22.848706065799977,19.744025781865517,16.611709550764445,11.594535401727232,5.615148197988129,1.798554233723221,0.6114194034733583,0.9365799450685959,0.3797383702776341,-4.418413409758078,-13.405381526391448,-23.45326722788014,-32.81119972224905,-40.12310229401999,-38.05428809005116,-20.337069228379978,3.651143189481645,19.15962810681715,22.946188304322558,20.94247110703864,18.788727902637795,15.96774895262044,10.489311137529585,5.718800071141904,4.439478862155415,3.965445202208037,1.6690214531082048,-1.3340721360921781,-4.6570934918055915,-10.733034934199745,-19.040209708626485,-26.653810587226,-35.05591740881638,-40.311824378408666,-29.755648854813344,-2.444970997878953,23.334300085669664,32.00774679781773,28.174817498099248,25.79482274664514,27.757286945890527,26.07249979583657,17.784800932601883,10.85955331395596,11.428127205732006,13.121028847177854,7.248801457254516,-3.0532690566203904,-9.722052319561898,-12.457348837893337,-16.345532893360573,-25.895712575976013,-38.75837185278554,-41.99399118543968,-25.165584909963407,1.0709013980636477,17.260285596898218,20.804680481081004,22.392688827356675,26.189796789504815,26.134943458060302,19.404770913322313,11.430857681357462,6.5233038790918725,3.9471029871407066,1.4204492348276103,-2.8470921710460786,-8.401338540059111,-13.246235056120605,-17.648944871277415,-23.624181349723237,-32.39036995730111,-41.33696861631665,-39.16354032673426,-20.457134331218604,3.311671549464102,19.23491467846537,24.92745026395805,26.181813821507085,27.834666256235696,26.92347291332636,19.639440643381924,11.377231369669929,9.21740730192581,10.641598676649277,9.766374895308259,6.283955977132328,0.8684804122760621,-5.2471102900876065,-10.876782122229084,-18.813379269358855,-31.434164580441404,-42.13196684843945,-37.260686881665784,-13.662053318182755,11.374227530513593,21.793697106969926,21.68718340004197,21.934150441188738,24.179454598485872,23.08645729766762,15.573582180382289,5.211504024806107,-0.47227130448378624,1.2826615624069069,3.9662543363885496,0.5523038527599385,-5.997777511446351,-10.60265281945291,-16.39878119400356,-26.73050453158909,-36.694744294304854,-36.899653367572405,-21.56320588112052,2.5414353437537667,21.058208345114828,29.064008351626516,31.074965436044504,30.73127174845547,27.500363522080423,21.759566722771673,14.795014096063548,7.385531506965239,1.011218007501581,-4.033026377021906,-8.514286160279802,-12.038449047174183,-15.177831202269585,-19.608352976476056,-25.832094079696578,-35.16826763919944,-44.23295799432133,-40.96108527452894,-19.176889579323916,6.71109372272389,19.72035885953533,21.422070674047205,21.754571625551883,22.303094221157703,20.375202649142,16.471017169094903,12.32836610312526,9.315630767770967,8.737923906983479,8.438855824831105,4.784386523380575,-0.7955816088091814,-4.836078112480297,-8.487639764179006,-16.94924101440795,-30.479382154694658,-39.40680595526894,-31.329558619152234,-6.971295104319087,16.763308329136116,28.01964906922853,30.04849556453721,29.60279411512509,28.455648608598665,25.754273921638735,20.269224220240996,11.824413828133581,5.136103521962778,3.582951190192177,2.129167554332575,-4.411526376933828,-12.657897262600542,-17.586959209410946,-20.68429471591376,-28.021447887860724,-40.6469253304863,-46.813362880322686,-33.59801813110459,-6.54124082837426,15.426725079669039,22.954140330701048,23.66042325290654,24.865305330912093,24.195562174373084,19.02770969281504,11.632579330039388,7.648341283420462,8.57605796618382,9.600824248601443,5.577412417418025,-3.2979065974628377,92.0,109.0,68.0
27.88510850463776,25.621626261236546,21.842838849268237,18.94285120642453,15.391524070974416,9.823895805756443,4.2008500855045,1.230078325029483,0.6134577686248426,1.0283507006838228,-0.4749748504520221,-6.708691183647977,-16.32813893665545,-26.240858558033466,-35.31154540034412,-40.95570718566475,-34.458248421631396,-13.29140601434297,9.411750635228238,21.28462640321392,22.631207416246042,20.23223014290991,18.195970573325063,14.609121851043474,8.812829175192709,5.028209120259372,4.403373602954438,3.493742252876385,0.7911570253470286,-2.179382310153819,-6.036459236332776,-13.074472595011404,-21.319544854899135,-28.930533880745667,-37.41424698666135,-39.351518337522236,-23.027520500157895,6.1442842609474315,27.795320105556403,31.53377012381672,26.89497759446412,26.18702235730526,28.00062197427119,24.16083558855803,15.17612142171604,10.306656511152239,12.311890180468282,12.324248506902041,4.3074416957704855,-5.546271731215517,-10.728117619410591,-13.212336958241393,-18.42887139426531,-29.668664491075294,-41.40340805862122,-39.17599132245691,-17.579869997238088,7.323815920714764,19.182156698073065,21.02447000289203,23.42449901601344,26.882153574646566,24.732578050142884,16.9309240556112,9.662413161407036,5.635029429694054,3.3154561401943656,0.3997529046917321,-4.407422219202599,-9.932619195598164,-14.470012011137317,-19.145247503221338,-25.84295149269182,-35.3196198372016,-42.41275689701654,-35.201983447787626,-13.392789170436213,9.041231830445106,21.76620825292424,25.42232626260191,26.595145249923537,28.116550823471457,25.423845848135624,16.92658654775924,10.03721544308701,9.582597925660165,10.740514940968286,8.966692181122776,4.907518154755074,-0.9301064770994502,-6.877387730549751,-12.739365071745143,-22.047667999032264,-35.29744895046022,-42.85080309413129,-31.9200479374663,-5.554860412156217,16.072879872417566,22.28866226539407,21.428689828394496,22.566515901450586,24.45179101143372,21.546785817112546,12.555233180001721,2.7948256823158353,-0.5969199699359462,2.396366538135029,3.6807795920989426,-1.3527174331732554,-7.540586649130679,-11.887133759903463,-18.975164563620496,-30.041094933220496,-38.16148873048995,-34.05775233665084,-14.847864495041675,8.955680851709266,24.334407636267773,30.010058067738232,31.192860066516193,30.136592358519938,26.020508326046574,19.849818646715615,12.639612390065937,5.382568996425129,-0.5429654321544501,-5.37934489441271,-9.65745118203611,-12.893297429057634,-16.297077411692662,-21.17720789672083,-28.182391580205987,-38.22851323636501,-45.149948309056626,-36.30521025875151,-11.13458939466788,12.108297362282668,20.88493402857147,21.388358407217776,22.033700129565375,22.04704176419962,19.361367282596426,15.243856300786241,11.263430403592578,8.900481369598024,8.826454075650815,7.78109482391277,3.184259181242038,-2.1931241770515877,-5.721056087542443,-10.244387865383928,-20.592758799291516,-34.14753635060842,-39.173307014817084,-25.399245204120067,0.7800169769629169,21.376344312341136,29.199103189370263,29.9918129435569,29.374981941227517,27.874578323348217,24.527932890332846,18.01588044551497,9.433563459850651,4.229423569458441,3.51256658368035,0.763247936459044,-6.909911291099317,-14.507657864358274,-18.42377654844995,-22.1247342457461,-31.40082127683746,-43.85158212942797,-45.17725687861367,-26.429421592156277,1.1023697141483702,18.984186948452567,23.339413029787117,23.93651025249716,25.05607693141809,23.168038745010858,16.884541522849396,9.918745439654185,7.544972988577338,9.140440425327059,9.088014604481154,3.311467557872217,-5.95890708073578,-12.936966463738717,-17.366398999721692,-23.70090098837563,-33.20588714358761,-38.98923156181773,-31.695889101686532,-11.53027710884251,11.10965087664231,25.151409544317715,28.195884120177034,26.427892893240035,24.771180666053933,22.01984227853416,16.365966791682776,10.23797436688583,6.215926071304892,3.2225411091197267,-0.2140305343219696,-3.6238670302561133,-6.5325002170556346,-10.361211916947791,-16.411458254658765,-25.755668514431335,-36.607900601644545,-38.40858031245373,-20.60007545884889,6.5475479159940635,21.850991637208384,21.718716081918014,18.42265960795018,19.88172277536278,21.675594470050935,18.476370174439797,13.085706915306622,8.726748683291733,6.276403419922901,5.714061145804931,4.300712488217854,-0.6297796099786844,-7.953684591388302,-15.788328511434171,-25.190479968823055,-36.42231417758963,-42.81260910847783,-33.75804163085378,-8.69261524947938,17.182964199201916,28.277399356954067,25.456165252479995,20.80584424227917,21.285890880058236,22.42115534262708,16.88287976682869,7.499331650732951,1.8647772116112218,1.3783578357068778,0.9399224887501249,-4.403921423353331,-13.318981605815914,-20.661973011457892,-24.379246879951797,-28.731010781597792,92.0,109.0,68.0
22.809313178492385,14.536518295362606,8.19419420267209,4.891329579926879,2.6288200764955807,-0.798042475402484,-6.034946986192703,-11.3542108890221,-15.703829167782768,-20.814742900393533,-28.32763585865101,-38.125019000306224,-42.19833002194767,-29.906316570380902,-6.3169144193616065,13.881340619447299,23.49742205129297,25.737879328886002,27.103108429701784,28.022808746013403,23.360311086369997,14.370656894306187,9.316478209091585,10.075143675735092,10.54381699565144,7.99424701472246,3.364682611371803,-2.727478602518377,-8.466467222960368,-14.907293634430324,-25.69031208687052,-38.719827046218256,-41.9101731622012,-25.143928351447,2.0727017634530704,19.332140332151727,22.200601214740093,21.42088022640379,23.288443861305097,24.29094557950251,19.452450928979424,9.453824615095892,0.9633658349963188,-0.12190951834500723,3.341231739407047,2.7809195091689083,-3.3306330665231925,-8.860670502746236,-13.432245538532666,-21.94646496772299,-33.12032724624044,-38.57119655233711,-29.846830283251748,-7.72757667577417,14.564679035438035,26.760125914665817,30.60831644651812,31.151180322468246,29.26165189864823,24.37624859739004,17.85202852019088,10.474463047667406,3.505867651676378,-2.0035604622469663,-6.692687080183611,-10.695152514207276,-13.762722543132234,-17.549897249476423,-22.907021518203607,-30.8407183521638,-41.09055935417568,-44.665483638612535,-30.123505256265958,-3.307339461558861,16.143903187821923,21.353703958194362,21.449001461684624,22.260197129452532,21.53594398172667,18.23118160587006,14.029107681466062,10.332635477487772,8.712076657424006,8.830822206850417,6.778652192646438,1.5222827163092936,-3.393424097053725,-6.668400256991199,-12.545019464084415,-24.57131906399702,-37.10372493209294,-37.243183060611976,-18.334504765680744,7.966781562506768,24.82766571613283,29.802869811791908,29.859945762656373,29.07608478983048,27.144101278549094,23.025221791240273,15.54621509388383,7.358177647712401,3.765074536058123,3.2396712992458343,-1.079391975679828,-9.38772087478121,-15.993798766218706,-19.22380145014387,-24.08455862559304,-35.148170553847834,-46.09157858919401,-41.703530456913334,-18.473802689835964,7.823462417139491,21.30167303166474,23.470409263158725,24.318555978729513,24.97045261589895,21.73807262788309,14.66697874767476,8.63763558019016,7.809121985458325,9.555416170044165,8.051167198448823,0.7208589380131093,-8.379037136452832,-14.301965606576024,-18.821216131583764,-26.263156820992062,-35.73955589274908,-38.47023230602619,-26.855481430482634,-4.674162459860019,16.37565397050024,26.98051756284981,27.84944481214684,25.892099273418964,24.23286639210384,20.64977619313422,14.474837128701134,8.842623860136275,5.347369931983031,2.284362278892687,-1.2514521801272624,-4.482241201426384,-7.467869988554874,-11.836042063159788,-18.739491453603545,-29.01191310584374,-38.725300136142295,-35.31986707796677,-12.693615194175425,12.816149711318474,22.97850978027763,20.511386802934805,18.350471850101204,20.740108803736717,21.262064965525784,16.93275488614952,11.665780927509298,7.794186509006424,5.981846552521966,5.567327352545619,3.258258518431463,-2.6206595696699027,-10.17241759149603,-18.25434452628176,-28.379140164970664,-39.25819566548502,-42.12924078108655,-27.72381686556685,-0.42056829986219557,22.237252031960626,28.416722590956393,23.78644966785727,20.412128255904385,21.960819708081818,21.61671410913604,14.19042276714429,5.263790597959398,1.3410336172682218,1.538642621026591,-0.018110687247513718,-6.833634107997469,-15.801689883763832,-22.031382488536213,-25.284279772678723,-30.81688629299554,-38.588749288672524,-36.130268051288574,-14.882993551124295,12.943598749083343,29.253993339472668,32.13482287189192,30.240618565035927,27.94243411186107,23.34379258223247,15.320066197403216,8.123848096321822,5.524805878051806,5.733654473680582,6.502265173649311,6.822005988628302,2.2185832343505334,-8.897974190558115,-20.269906522348247,-28.371241807210733,-36.57901711134056,-43.722927437755345,-38.92830547159908,-16.469507587536487,10.47039172959455,24.938567224590006,25.854470414946157,24.840053257397255,26.97669747421572,25.862695459351674,17.98053866632441,9.197429042611535,5.773838210764518,5.749899511169409,3.3537030792769515,-2.9328121107901555,-8.739018764299043,-11.311703666513347,-15.153745241765439,-24.84216023986071,-36.09745233665347,-39.23951670086704,-28.506329796817205,-8.191524642663648,11.456720589776497,25.054925740305027,31.654020041371414,30.96095220675076,26.201526679665545,21.610210640680126,16.431139263149163,9.641704394123158,5.150910151333824,4.379663037963078,3.644671163758373,-0.5972257035129042,-8.2979197698677,-16.705799052778957,-25.10224529658569,-35.11990907241088,-43.948857523757006,-41.98595758672872,-22.386830998542447,92.0,109.0,68.0
1.767466519852054,-3.4020646431817787,-7.955948160331716,-11.632283081807042,-14.705743600600982,-18.93012579250449,-24.849058977667525,-33.763104381847086,-43.430691302145874,-42.53240497364274,-22.79864148193181,3.7936569551102934,18.86231645118514,21.43794192031324,21.635902997858192,22.338085295727076,20.788405009276268,17.034149444698272,12.85097029458792,9.586224527848797,8.70389109517209,8.628858736867548,5.46952816075211,-0.0924064636150838,-4.411513877168458,-7.833434801136783,-15.43013628421846,-28.647799258441292,-38.98925323126418,-33.57641972265702,-10.610009321440957,14.240417108208987,27.223607047636637,30.027110623147628,29.69157723568846,28.67856451655632,26.23944696010655,21.211743464774187,12.98880408386207,5.722537193883783,3.605910057525938,2.588587771801295,-3.3002585461533003,-11.68985746535841,-17.14577844877035,-20.159077965376582,-26.640872932297558,-38.96750644327566,-46.96224116547662,-36.503633288240835,-10.2638249479485,13.334905025336047,22.60873186381317,23.578560927404762,24.713219306004387,24.53092738742207,19.950131218353796,12.53846616398827,7.847103871022898,8.30868173492412,9.677495731625726,6.475348400637812,-2.027493032549763,-10.474251056725993,-15.533701771813035,-20.554905178888024,-29.060256444150905,-37.704557788848824,-36.66360172328092,-21.07966193619546,2.0726834669510152,20.69268600490039,27.950038308168967,27.301423903184357,25.424340797675352,23.518320640148367,19.03022204363912,12.642950815295785,7.655441355733538,4.502928215684055,1.294277121058582,-2.257634135153493,-5.303512156275169,-8.529153915807871,-13.517485077627116,-21.3760009807407,-32.298409745972094,-39.715253996026924,-30.43462902040598,-4.533463806904063,17.628492148110233,22.98285995458029,19.40111071294671,18.747104701847068,21.406073324348576,20.383631844289525,15.337112518401248,10.369970241720333,7.038098681593884,5.83040453993216,5.2477543330446155,1.888533635904396,-4.744309256601581,-12.40976895921563,-20.908842133394447,-31.690914627182885,-41.43756953603981,-39.901771248952485,-20.509087682596054,7.421607386164705,25.776481030192176,27.612333455853367,22.28728210668156,20.510570339916992,22.468153774295885,20.12495396957654,11.374823955604347,3.5025737019532404,1.1969806777228638,1.5361824415432803,-1.4697307641750528,-9.452573024311986,-18.0239153980889,-23.1033583052243,-26.4141781330476,-33.196866106260934,-39.611352491862974,-31.784631887698577,-6.563786939510608,19.294066053928834,31.124704693842013,31.727935386366546,29.63070210545571,26.98459886170649,21.283159017918273,12.89349870045535,6.889693768789389,5.451799788827229,5.916486541870122,6.767235527485456,6.231251149011963,-0.5024337138653986,-12.481132091144584,-22.85918682052926,-30.58469492955422,-39.09917788423608,-44.11749770692774,-34.013636564170234,-8.233035743586619,16.353321933663356,26.17457675846201,25.254571071938713,25.296739784350653,27.326558381176007,24.165736698221295,15.149465963746522,7.578297500976696,5.683488172674133,5.498811467658864,1.820600090305534,-4.902660144516267,-9.739856191404778,-11.980302101962806,-17.351796733243983,-28.340544657258466,-38.24197742211786,-37.58257351453485,-23.18217557156009,-2.052191623273494,16.062342479528283,27.725812472148515,32.14323706617233,29.77082137165701,24.777957000415665,20.3132967426963,14.520558625876808,7.923034356831718,4.650168297261564,4.367338675411199,2.858295005963881,-2.5721197939819254,-10.765639719117207,-19.05727368618148,-27.81210983060176,-38.117583249619024,-44.98890406378796,-38.08235639434223,-14.340992470168322,12.790756846624795,28.601466003609374,32.12991767185892,29.863159866224883,27.044249606722595,23.06450211437531,17.00382615966979,12.531328832315154,10.263980095102893,7.443552541577933,4.046193105088128,-0.37147594578122545,-6.71313931989735,-13.29146713762673,-20.617471203862564,-31.16184205857142,-42.95776904452144,-45.851062880983385,-30.93505846232747,-5.283606963319121,15.533913940918394,23.672727143415866,23.273997263582153,22.187796972936503,22.04872730408506,19.89545373512066,14.142200742053971,7.800687497644226,5.93836343149435,8.237049473816468,7.724197251995372,-0.12198358487829242,-11.116291220772409,-18.552940831696173,-24.26792466630055,-34.658376186010344,-45.188746458644715,-40.75752573329688,-17.28112616164736,9.583919284301526,24.9732685735202,28.920806931461787,28.801458665914545,28.421533608427247,25.881772766576866,19.77520373764712,14.120159423596862,12.478631245916098,13.28647051907792,11.957509295940364,5.793052187359514,-3.6499478453847956,-13.283109378365081,-22.484722307668054,-32.7863058211144,-43.709370578260796,-46.84703461283357,-31.214435842806804,-2.390949104968537,20.45601665274975,28.65966231310496,27.941380327852507,92.0,109.0,68.0
-4.75454798007865,-12.229927723138873,-16.763722122709442,-22.627130041791116,-31.92473966380052,-38.82480651597739,-33.55081055890407,-14.639463978759036,8.405201307684711,23.981609849295282,28.23743705996246,26.697498764109994,24.984427438256862,22.55709286139055,17.230750614559064,10.953022718508121,6.641035377996318,3.6368812224477907,0.26623504948503046,-3.207892887955331,-6.132723223779904,-9.743936235889775,-15.436800361985048,-24.313372827001356,-35.36131065835847,-39.21645880526938,-23.98570765582449,3.2467759797343003,20.870552730572214,22.22221768870659,18.625647878052696,19.48267782413101,21.698522612718907,19.138065148271863,13.777144775500096,9.211152768681137,6.472363622483615,5.751608935025032,4.6702427784855765,0.22280266468031573,-6.934544228996273,-14.700086719005528,-23.786861131721988,-34.975345801752546,-42.6553355759486,-36.05952371058708,-12.512650369660637,14.378000729578087,27.80965251849677,26.208856719037044,21.162567514644497,20.98822241385922,22.567218196078905,18.018294428994736,8.661422676291634,2.2629391697382504,1.2953819741928034,1.2224228032435944,-3.385907309389449,-12.115382821315071,-19.91273435763933,-23.990380693015894,-27.9037937665612,-35.63657881135725,-39.365795446688935,-25.821179671489595,1.7851455400344265,24.32975162839697,32.02579844935601,31.151263045229094,29.009042033593925,25.74962275452485,18.95400752951238,10.693222260403369,6.077739620341918,5.519674449663933,6.129002588994334,6.955199726353509,5.073941241544123,-3.714392268291162,-15.87699812851014,-25.186105164741754,-32.92552381966565,-41.397178390932915,-43.16788517166392,-27.643643218889107,-0.12976409340809877,20.869093271059622,26.452591882193733,24.82922118213994,25.98437730020546,27.185658565733252,21.91563860398352,12.465332627821043,6.500025321089327,5.740944416639546,4.913748443971168,-0.004801648353006477,-6.6812646817302115,-10.469136848257742,-12.934897246408413,-20.092012081392074,-31.765842949424524,-39.462410792091546,-34.70078707778604,-17.27417861633942,3.774806499549687,20.120667005587382,29.78813357361813,32.0325614301778,28.366949262828893,23.448193938317008,18.881054844320737,12.50702163868046,6.523766611344264,4.427313030062604,4.239035097239876,1.7159355814349266,-4.790450619668136,-13.214850636607945,-21.43695322908382,-30.69780553750549,-40.87530570511589,-44.83313826349652,-32.63693943869187,-6.005101108838198,18.828193548899396,30.638457466546797,31.761017711324556,29.014099002719835,26.14968722160462,21.408879898952645,15.395571726135127,11.780191842490218,9.56608463139966,6.4859420203637175,2.9559945637279528,-2.0486109679545876,-8.658008428618883,-15.201826030218243,-23.286136377953255,-34.737284967457285,-45.295534719030854,-43.404317231228084,-23.926389992838047,1.8087882704474678,19.205279722537064,24.039703776687784,22.809166630156692,22.151279883694578,21.77334690295359,18.561709686704475,12.131190239506076,6.648691083826428,6.415505522285944,8.715584418508394,6.191098517266462,-3.3379786086467873,-13.763210795562534,-20.049626456376895,-26.67746162251435,-38.293592235225404,-46.04310583623672,-35.508641813239905,-8.973920704485266,15.485966232041596,26.979023821371186,29.016801791139468,28.71585035205794,28.066287323940543,24.387586052570796,17.859442839018573,13.202105764740983,12.646761270399177,13.316972091492461,10.679288601665359,3.2523170325865514,-6.5084014989122005,-15.931816873629957,-25.281168700888234,-36.061942539796746,-46.00702649462579,-44.46017691739657,-23.437967126421487,5.561117612791031,24.251008545473173,28.96631184523555,27.261547074931002,25.24753565369819,23.301800026454682,19.63632958085159,13.929157078712661,7.337196274198861,1.647922798409128,-1.063156449136164,-0.9321400213199513,-3.1271495628854833,-9.958138232971582,-18.22929262373565,-27.231053663069076,-38.702852748842304,-46.44340779525412,-38.337825890704536,-13.61532101093886,13.174295466633419,28.351451140794794,30.98995103314861,28.423379844605794,26.045887408601153,24.807831063258565,21.492203549411776,13.411141571867262,5.723637910204409,3.381146605963089,3.1204814629204503,-0.48502239319987156,-7.385419035839315,-13.681584419106846,-20.005264499626186,-30.291693303293513,-41.64385584048318,-42.86758221058831,-25.522536419529263,1.5327932177776113,20.23468035397665,26.636413328227874,28.741109797520032,29.456799077906005,25.55371665539737,16.78245178679862,8.049546048927692,3.631617583930997,3.8584367459410087,6.085348797980961,5.706579661166847,0.47443594146539075,-7.601865416020287,-15.468110148482275,-23.483843134369582,-33.14619471129254,-41.045825167363766,-35.298208936596765,-11.327936356625207,14.105025290235371,23.769503603213998,20.9139258209521,17.69049336501902,18.570457791905692,19.038223738844284,14.295900727317276,92.0,109.0,68.0
-29.80900913997574,-37.79713976322682,-37.547890048438475,-18.55105960097434,9.626001325048922,28.00043383845679,32.21598060551117,30.52677761804701,28.31196904847593,24.183219846345256,16.473476255785307,8.839781989562008,5.631163144137077,5.657844737927245,6.377883046373925,6.939962677415845,3.2705638415579354,-7.232048868251687,-18.964433958243056,-27.373034704833824,-35.40593468738794,-43.17408373741224,-40.64809434640151,-20.16448667363142,7.348053927237876,23.966582284500326,26.11640565940737,24.746690704165857,26.700466201226295,26.431298498963645,19.27362100809919,10.122298555864504,5.910551129212137,5.780469354826732,3.9377972928885585,-1.998117010182187,-8.166973891193948,-11.049334204428275,-14.331207101532781,-23.272853169947307,-34.856858378285835,-39.58552958779807,-30.68971723870162,-11.071626662724585,9.151232448044262,23.627410166681816,31.2142493540883,31.39922815133761,26.882277689581837,22.187201986931864,17.252434872604812,10.514809746149307,5.497255385993209,4.377354960101369,3.8967187144379833,0.21171675037397944,-7.169970560552982,-15.615129758381773,-23.91212904873533,-33.71302131514423,-43.14491535605274,-43.24483029555855,-25.863321151996217,2.131333733217768,23.672372522136822,31.763046831155226,31.086832958085225,28.207364795049926,25.07304382417305,19.61573698043789,14.033439086738152,11.155012792555084,8.76459904121678,5.513076221081862,1.7348134800891313,-3.882861722378311,-10.562056436482013,-17.240423791878797,-26.274517709814184,-38.30500137529677,-46.550759546861606,-39.35353803793917,-16.38085420693165,8.128101660057858,21.74746365201192,23.903535448298147,22.450094393105715,22.154452343676212,21.241683097682117,16.9243304795452,10.193609737078665,5.991815935419038,7.140454493130046,8.751674190523207,4.007250290227408,-6.622850270746767,-15.983098509078769,-21.567608319157504,-29.61297936105523,-41.66038161290393,-45.23831111104975,-28.795499287393326,-0.9087434120643729,20.196085287911593,28.17771200067112,28.957390065264956,28.64023230635377,27.433210077420373,22.615523988317495,16.122376254736533,12.664743577444375,12.92901907601711,13.04791632864091,8.971254600296431,0.5158021443769399,-9.313640713011118,-18.56610762816924,-28.216493648424667,-39.338658693823554,-47.34201944427688,-40.28414896312286,-14.943254076705033,12.526814718874196,26.80258134622154,28.755643177622872,26.599843779585235,24.762334638640354,22.472422436063898,18.1646625931152,12.041987922780725,5.515932128436275,0.47009638956779587,-1.1552422043469068,-1.0798582562046923,-4.722597249835942,-12.339459137157595,-20.646457459862752,-30.337130803494585,-41.8804202739175,-46.114803251945695,-32.4543482191221,-5.298676583199373,19.05153628441303,30.136384833028224,30.446152867522255,27.606384959940314,25.627816037567893,24.29077930579595,19.562704962251818,10.801010859298014,4.497173797416763,3.378748258071186,2.5563469710740265,-2.3100873776534288,-9.381199213554131,-15.30590238377238,-22.500640851578986,-33.85149068064421,-43.61017930079965,-39.76939219355385,-17.847476871136692,8.35755045747602,23.0477619452099,27.372925877427292,29.19412342443403,28.93649874750836,23.364862351253677,13.99534611414537,6.251060077189396,3.27946410633733,4.492175030248581,6.423844463832458,4.677691268729204,-1.7334190163253984,-9.956560499055536,-17.676755783913485,-26.099839461248408,-36.01166321709415,-41.3595918562915,-29.856789144896926,-3.0847104959646225,18.77839611152802,23.655905940587648,19.619111238265166,17.59301978714183,19.068362235114027,18.212958081647965,12.280717248461915,6.334323079787035,4.962961419555495,7.6602134312069206,9.394127708604533,4.769897407934779,-4.687024814748424,-12.390149700942233,-18.05377937020157,-29.022861378024146,-43.35088505739325,-44.54363769161537,-23.7484164467753,4.714977388787185,22.288670508274848,26.89680104966398,26.627647819606615,25.696358174812467,22.999137974964277,17.339044330163933,10.967137845747104,7.927788296328524,7.440316782933282,5.594908430818849,2.3653251533784556,-0.764635682676043,-6.083063864678449,-15.607321361912529,-27.3181455058889,-39.04229806198992,-46.54164087199617,-40.09413399422945,-16.82933579519626,9.933427648068601,25.526921055486266,30.14388575690327,30.80588760458635,28.959080907589954,23.195158743752145,15.434060460843208,9.625292487376516,7.791739071583189,6.947814166471272,3.801115717525682,0.7252238143519889,-2.0390175924819975,-8.201130638094064,-16.64186006056558,-24.949725815246005,-33.183208831128525,-38.15890514162751,-32.56772108718402,-13.81264790707935,8.992620183732665,22.486953025124137,24.29057400746567,22.191220352961405,21.930026661261863,19.91121513017238,12.665255653019003,5.7403924377458715,4.733416013307598,6.559064003858963,92.0,109.0,68.0
-18.11662149740448,9.63706397769304,27.310757885354526,32.15021337483622,30.260691968587835,27.4195712053808,23.755889431318145,17.807077966420014,12.946069513933164,10.55551658883687,7.87440311160884,4.5196879196243165,0.33807337491169054,-5.811753654950837,-12.430332913181179,-19.490104713601482,-29.562793129121662,-41.609438993346984,-46.42940608541477,-33.86763455954802,-8.731763952320724,13.452687073554824,23.267929314068997,23.496558044648452,22.23836285533446,22.110296884813796,20.397808270644806,15.054411483494988,8.477932997297867,5.846505110484562,7.918628849569834,8.200843880597617,1.2766785509199847,-9.765036499177999,-17.81095675653976,-23.32481555558157,-32.99860946447556,-44.32226983602763,-42.597674263872584,-21.05434195734467,6.488656671897664,23.720847427096025,28.783906844841148,28.849384555794217,28.517752414431165,26.455432392186975,20.682284217327737,14.671600773042865,12.471244648275437,13.200294015432997,12.398954179743583,6.873572803504382,-2.326571159693461,-12.046216219885013,-21.23187366410114,-31.309982419992846,-42.424023627636416,-47.36358157832267,-34.41636910959784,-6.286081859696799,18.25997551092234,28.280529414474355,28.23629409706489,26.002914927536054,24.241701523545643,21.460014218621726,16.534934608363688,10.118673980765516,3.813528420554429,-0.39745848614268414,-1.0660481994100544,-1.5872415107006925,-6.678137052679332,-14.740109413327602,-23.171221866032933,-33.68116014891216,-44.46729842574131,-44.17444265299273,-25.35171674121505,2.732498143574612,23.724268968250723,30.98773609531079,29.67536326404408,26.882507492348623,25.298670187902843,23.467229877699115,17.23022555927892,8.430863883856047,3.76499686852037,3.3940160722262886,1.6047901143419956,-4.333918182197694,-11.227820250081564,-17.029424407176567,-25.411613371018866,-37.327360089254604,-44.39618019983788,-35.01120593332685,-9.799085896055571,14.076665465579188,24.95235315940406,27.96797549288268,29.500895461039313,27.930876673426138,20.829054422701642,11.364923327764398,4.8758934652015204,3.294850962638499,5.196596540453358,6.428762588947231,3.230245418945799,-4.089185360873465,-12.236687333358974,-19.948337601938594,-28.882864730587038,-38.56528111760639,-40.161986165050735,-22.981367878243578,4.677354607546467,21.869591910253735,22.7940192730711,18.563374274783886,17.84312612253484,19.347724999970197,16.895320301253278,10.277375041553833,5.389400878918928,5.478389943491654,8.553781245453795,8.820937214795945,2.251306430721809,-7.321118429138642,-13.95127017032189,-20.425222751117353,-33.381037093445585,-45.83698850931555,-40.55744201073726,-15.301014748420279,11.35731595240727,24.638062292748682,26.98846868895805,26.424658668803907,25.184138304105282,21.658542131236043,15.36290243036692,9.654522713220933,7.711071646008381,7.149081210353937,4.6988063524630475,1.4739821504464454,-1.9104191924344032,-8.437249786605248,-18.889926088407506,-30.784071129705122,-42.009014868110135,-46.53015084488229,-34.7800830957012,-8.619408090343326,15.881797320300514,27.652558671903066,30.536914470796397,30.61812560837776,27.687950387228224,20.9876334931968,13.395676926792323,8.715756112944215,7.6781782572534585,6.261718701455921,2.7507693144661687,0.07719794343810468,-3.405336547097344,-10.561374856581235,-19.07686942827517,-27.35130982730294,-35.261642483219994,-37.91862376473126,-28.33626855500418,-6.973321914869292,14.23414473636941,23.96605805949822,23.678100340081848,21.92408210645897,21.825624652445015,18.26020189953015,10.26108582716565,4.805073549442476,5.295786658830793,6.576482530591342,3.2214082330447975,-3.163990631920867,-7.315345703031801,-8.542259099924395,-13.882266036116093,-27.91365194741116,-41.80017498174254,-39.989207897210306,-17.89212261579794,9.06664805182343,23.160596343057943,25.16120082129876,25.116291663275508,24.91737537375957,20.64421296498946,12.838799936285312,7.391082394737618,8.160166932006884,11.58723725819505,10.378348376625834,2.487837535266005,-5.618941508304823,-9.873300551178602,-15.42111879674626,-27.058575211351148,-39.85730655840056,-41.58737417012381,-24.749456603105997,2.7187602676071334,21.897537742048762,25.49262408074884,23.16569112384673,22.69083933114045,21.516403933887432,16.736157667068742,11.337801983197597,9.057687453076444,8.993474132006792,6.893860969674241,0.9936866289886076,-6.775709683552102,-14.263869022135546,-21.60674247028813,-30.711403061600027,-41.736197031535035,-48.57021771086433,-39.951688505281695,-15.637658405077147,9.350941838869472,24.113324601646426,28.187745866787658,25.49567506426026,21.361743915609715,18.163461064741412,13.887628562302574,8.499447269398548,5.276974003705064,5.274557131449508,6.43962781574521,6.248676890713979,3.353168399252123,-2.049586383755478,92.0,109.0,68.0
27.577337167686576,25.474811795282655,23.62902249037373,20.255346845999775,14.775154851933234,8.204360189120065,2.2811049170342175,-0.9282695998011645,-0.9482567599295373,-2.5356028257430094,-8.886344012899897,-17.128743148789816,-25.891478225438405,-37.134011722062695,-46.10335218967283,-40.55493345897753,-17.424048575745637,10.092610159119895,27.164577008515554,31.114740823584757,28.818805889589825,26.27979052918568,24.981303747070495,22.224192480679225,14.639433419861229,6.464672081846795,3.4352689290875444,3.26593412087434,0.25781290760354375,-6.429139289677534,-12.929439027846767,-18.98916975067588,-28.689702716869938,-40.42909778995563,-43.7241150131049,-28.789484449210658,-1.9129042457555219,18.569987676812836,26.206909617132826,28.506740701170095,29.55146069359515,26.416709031665423,18.080028450868355,9.013968358356571,3.9280070890707046,3.6229573737846694,5.842573650776329,6.033771078662914,1.414718895133415,-6.49669499990379,-14.455140250228144,-22.334206635267932,-31.791003611871247,-40.48048752837886,-37.241800767474466,-15.124518091578441,11.436513159328076,23.470596412765584,21.53793199915029,17.871357943007844,18.319715221725463,19.24548619202807,15.18000927050392,8.445928032600229,4.894741363193122,6.270293830655625,9.206822553351467,7.610978991138335,-0.5370266462093916,-9.638366389671791,-15.456757430914683,-23.448337829333184,-37.78955126526415,-46.72576569181195,-34.733515531308065,-6.777016320759989,16.745136395452338,26.042422401480657,26.889902081066758,26.189075290661258,24.473637737818763,20.05374617696091,13.43511642331227,8.703505929697604,7.617096133506009,6.658073399353248,3.7436885303246545,0.6053381021644381,-3.340541609226279,-11.147192773263821,-22.277864733500927,-34.22185500541884,-44.46039864029397,-45.07326332085406,-28.146204439976145,-0.5904935800113402,20.644377167645267,29.03027311746494,30.753031987688146,30.17775102562499,26.071634127640916,18.699933276412445,11.61886654037962,8.154466092724142,7.513111771023856,5.352108220071322,1.819786236197761,-0.6269975905961546,-5.129676047000525,-13.022183661414534,-21.47199692429356,-29.766211375690677,-36.91955276997561,-36.60729382157574,-23.028082655685946,-0.14982867975408293,18.414117286390308,24.558992272436758,22.985314636142665,21.8683523070441,21.394040898262123,16.169543253517148,8.101707724039814,4.434459339915116,5.9248970220755846,6.149635190873648,1.4610977683492181,-4.7842288599521785,-7.765685857858636,-9.279146638507745,-17.155542275394357,-32.643215551161234,-43.45637460091632,-35.34392994616971,-9.60198003585212,14.823943337889855,24.50800701294809,25.057303905562332,25.24258060166706,24.21796702655051,18.54586505529609,10.736939580447128,6.988473254940795,9.198104511940363,11.984213074700987,8.61393873352581,-0.18936763422270203,-7.150698742198035,-11.010228204726767,-18.156260299882792,-31.128151523551473,-42.02734834459509,-38.63070916720955,-17.108859545049928,9.840500519805545,24.304812839367536,24.877129598385356,22.805168429938032,22.65425469894521,20.46849167390975,15.022136325285294,10.292562820322491,8.98339399285092,8.762809644855555,5.539561820239873,-1.18190243728994,-9.014331662422338,-16.328079491058364,-23.9776458895072,-33.81278395566821,-44.62643639067895,-48.05928312023374,-34.02463966951829,-7.771612138830369,14.829042415514166,26.262571300139705,27.87180951561577,24.241942825349888,20.38253694140319,17.142551990906192,12.309735037063664,7.227183759388135,4.995305364334217,5.616650856844194,6.612296405659845,5.706357949280342,2.0196881545924668,-4.029339290651861,-12.827902506073698,-24.837959606076144,-36.11220315683604,-36.653693477305666,-19.577057619403917,6.068132341126628,22.82744249961336,25.434032097835832,24.80572651454433,28.500613141607765,29.820684023517632,22.90047905305003,12.787304714940216,7.0496996384504325,5.786333910013903,4.04061503691906,-0.7310988657665889,-6.080981750473618,-10.023884991229396,-15.694276977856228,-26.01294419951836,-39.61415508496811,-48.93633328800113,-41.98031207595015,-17.009603151230046,9.969153519530416,23.464100376098795,23.88842638975051,21.600776744350128,22.189961707728983,21.56247296038852,15.512019464978506,8.72190889422767,7.114994879881748,7.346161927373995,3.6638465375863563,-2.1528662346301783,-6.767246889518997,-11.660654493410215,-18.71575458075894,-28.418292270189546,-37.54443887553294,-34.95181657744942,-15.27606179653815,9.048539666218595,23.771584291824173,27.54122933859328,26.68142152024129,25.593916699602126,23.36986213744792,17.28394100170111,8.945852312492486,2.7773897435682384,0.215441767007456,-1.6667929013617548,-5.46939892585869,-11.367171187085178,-17.880730787762857,-24.04724497541305,-30.467298161537204,-33.76310065580449,-25.511953561464708,92.0,109.0,68.0
13.218905530074847,6.91378556104667,4.84579778848015,7.214209984129732,9.455200197396854,5.790142348795549,-3.3974937743064686,-11.5966016514356,-17.145897430704107,-27.1336770032419,-41.78699952313495,-45.702479044058926,-27.4540172256201,1.2812585845508366,20.82766328302562,26.743661019967202,26.716262508412818,25.87879041171903,23.52496607489348,18.230499499504376,11.684176954055184,8.102776707830179,7.518679667568765,5.968883617600611,2.7916519905895467,-0.30513876796002154,-5.12807242331382,-14.147926249106865,-25.72138961419483,-37.56436386512215,-46.12252336205894,-42.03436747377696,-20.541683308814633,6.821203840838547,24.23473372450585,29.878139924506133,30.825456569091557,29.42392968863339,24.15774016724865,16.438651575370024,10.170410927945284,7.865344363934136,7.179588784006536,4.301499773626618,1.0413671093748478,-1.5263291976084505,-7.17291549259154,-15.504844511804526,-23.85042727383951,-32.136082879008015,-37.950906913388685,-34.12118709289344,-16.861347944767896,6.267305221691368,21.458922335789975,24.483319955247506,22.395158830300502,21.91705665766273,20.499333584872943,13.79721724693352,6.364620840625579,4.552046818369508,6.422324433952737,5.25935899239968,-0.4417915053596281,-6.081866626339578,-8.041345792890475,-10.592602755258564,-21.17347044060404,-36.99805001622157,-43.42268581528682,-29.08222240925625,-1.4678070346776972,19.192312302239717,25.080733262999505,25.00749169776016,25.283381325617764,23.080581152855927,16.24047404103474,9.00669879679048,7.138600381688732,10.296260293022833,11.810861536105799,6.338194784787669,-2.6598530149533293,-8.360747029962539,-12.452995856487528,-21.456603368325226,-35.05743276357629,-42.94820514403938,-34.03666485905917,-8.965343746804418,15.782384974095722,25.455575813916067,24.10623869227581,22.672356003214446,22.418500557693008,19.10657901459644,13.379970197369865,9.571099762505698,9.015197490798451,8.250297581138977,3.872705572708391,-3.443017451502902,-11.191175441840402,-18.411426086955927,-26.550140240587623,-37.0469483880047,-46.933066992715354,-45.96329536414925,-26.992732050914636,-0.29121781034833155,19.31700107042988,27.57620548108908,27.110911616885218,23.00191312485761,19.482677854109287,15.95351782154063,10.69883959198683,6.217737765586243,4.9703398774229255,5.98564799657327,6.617582737975888,4.920554004159815,0.49728477747415945,-6.234498324636416,-16.01954581930295,-28.522199840747618,-37.87737435998727,-33.473822145281666,-12.251341135129373,12.429968027257113,24.752593603703374,24.975659712632368,25.518993085305027,29.5752797571927,28.628098193667046,19.90288480177425,10.498083077113524,6.427080630842293,5.532806198596343,2.95058141398215,-2.39841210031175,-7.300300770452382,-11.292866097518477,-18.16682699437554,-29.798715255601024,-43.26983125006116,-49.035462969300525,-36.16532848853511,-8.51062292129887,15.55821365585441,24.53063739305487,23.059306156533697,21.51617989946009,22.434669893379574,20.346029151034955,13.243315698573943,7.687880169579734,7.331086635159524,6.759847292806677,1.9780365511446398,-3.619532520221023,-8.030784785197515,-13.442949271549582,-21.251951020504016,-31.487902081209874,-38.54376165086393,-30.768786455857395,-7.914991536828801,14.603697124547725,25.75432216289471,27.478842872258955,26.33422710928306,25.216633784655386,22.047444193144738,14.90846217648227,6.782014608945566,1.7395150388045166,-0.23323567518679095,-2.5222648304985698,-6.999204658526918,-13.269674141329558,-19.67455803194929,-25.890784234082382,-32.07289240547833,-32.91451786221511,-20.28726927124053,3.4933647528684233,22.97883968771491,27.91900979210218,24.20522417800929,21.912212755809964,20.537649756062148,15.951222151547848,9.811819267805829,3.7389879035042632,-1.4344428300761047,-5.250276247200747,-7.422710826884689,-7.951189000152742,-10.6121434376183,-19.69216548908333,-32.79652364457656,-39.45424380336899,-29.70585191186107,-7.893905200579923,11.497391659995172,22.203907340426383,26.900929998149916,27.272073603615407,23.622266918121806,17.773490127897553,11.130091120341568,4.275031870512884,-0.6743067212641362,-3.1383871937849683,-5.021710795452795,-6.378717880531513,-7.304072650170876,-11.777062752688616,-23.66622330730234,-35.824075830049665,-31.57105702802623,-7.726945194954838,17.71150653709343,28.944080509661614,27.414357598373478,23.115858513275654,20.100963333116315,14.62382178173022,6.327880444619908,2.029019242388918,2.8866952167213413,3.3037192394137125,1.6131778970554873,-1.1967220075018261,-5.515816378533899,-11.91149457427951,-21.273826299854903,-33.81039494892537,-40.56042286905333,-28.084830386248296,-0.7477634797747967,20.71917176825694,25.543248112565355,21.02833510308891,17.91658351465181,17.487496572271677,13.897548996159424,92.0,109.0,68.0
6.62007044225783,3.946136578769896,-2.3355561183771734,-7.008977466309101,-8.336765660467217,-12.65319751457834,-25.722546192185742,-40.54869803076596,-41.51429673619311,-21.606122008521037,5.981713049888712,22.193577409329436,25.189878017196175,25.062689861395626,25.106389856517243,21.504605453882128,13.88946445996823,7.771883366957944,7.755355731621844,11.25085704620223,10.983884935126554,3.736228769498712,-4.779222353246549,-9.399655112781677,-14.35775669151269,-25.2186380667235,-38.5153419037782,-42.388364556476596,-27.966094717213682,-0.8582216967281164,20.30913864917702,25.639566216086614,23.41579977347859,22.67787265263021,21.881248402913194,17.51558221824868,11.922680617007536,9.158280202549443,9.028327280792514,7.402885764465818,1.9486820277104862,-5.728019745925899,-13.305402633620698,-20.57002801194367,-29.346990935267794,-40.28905285076773,-48.3267707005077,-42.21422282602519,-19.288236316061866,6.505015108170309,22.819305114561455,28.146085503128777,26.04798279010777,21.851777127018664,18.593020653820663,14.577752964538577,9.158746828387969,5.504108271675399,5.145361129090789,6.316340050542106,6.417627781237345,3.8989783285478032,-1.2038829777884534,-8.70048931669105,-19.476676160176982,-31.98666227735082,-38.445989420242,-28.757737836141494,-4.616622463392227,17.635129063747897,25.567219110502847,24.62657763544425,26.624381085676525,30.175724808517128,26.708933290553144,16.85934211121542,8.722379010059171,6.083681136991486,5.111442588245021,1.5905948182049865,-4.0026032452115965,-8.407675533325671,-12.821528404415309,-21.065299850982836,-33.78498637515523,-46.30836933017577,-47.46662228290398,-28.996573034410947,-0.372527054124412,19.764998171611822,24.686034361225982,22.28847538564363,21.700154544699604,22.40151389503204,18.633366681029784,11.131769855785986,7.164074000510486,7.5154250250020755,5.754619078132134,0.2433994703176689,-4.950466241838549,-9.392493207677136,-15.42776325752338,-24.025451016616426,-34.35754245569995,-38.21780084008219,-25.19402394067316,-0.6293815511732367,19.111009484807383,26.92280463053189,27.20772063130102,26.026377721066584,24.668453640275086,20.350607339105398,12.44430844390189,4.905975973625883,0.9867432758917812,-0.7259426777369337,-3.573687760368562,-8.690159686060769,-15.171922501658623,-21.4407862433071,-27.777005435765602,-33.26306042022669,-30.86592901979477,-14.020042284702074,10.301297108315458,25.920849843205485,27.186557191975652,23.18482529333045,21.68390564495055,19.559124938129482,14.211637483005259,8.026575369892575,2.108183434603686,-2.671130650612013,-6.086258783069324,-7.659276068087879,-8.252368608452668,-12.510300635737721,-23.405072429614634,-35.95877368026366,-38.48486127623958,-24.019957058035093,-1.5064243263660544,15.434951135691703,24.034205438473627,27.45620732053039,26.575398293504414,22.06379157580576,15.917384605810476,9.112181174182204,2.5425112025284626,-1.5585946079548578,-3.689888592611118,-5.512228028628361,-6.595890695312191,-7.973246286664909,-14.470676349403634,-27.85460878760212,-36.8981124733693,-26.164206856857053,0.4359287365558892,22.672260547059466,29.38961469195328,26.079387491488937,22.198230850929136,18.96581977725543,12.27197945116728,4.403913253426864,1.9755231287577601,3.247084595449065,2.9747023506965786,0.910675415909293,-2.2556548963095127,-7.133386362914318,-14.239474336662719,-24.716518211900524,-37.050386499876694,-39.22903159756039,-20.896004640339854,6.923322664390091,23.75888465757227,24.628491018801302,19.70886804706608,17.723455616508854,17.04732259335302,11.635176971009447,1.6240704284431906,-3.424454450926741,-0.14917294897969377,2.646847733208191,0.4311058398757106,-2.7753523892370096,-6.447214639890772,-14.569703518289272,-27.334063634829064,-35.5107642807741,-26.152552213436696,-1.5062230546300055,20.453434580464403,27.452969970113454,23.240089061871526,19.13355700540463,19.80458358038694,20.26506017375803,15.784354132062136,8.840178741920488,4.11813121393451,0.9944345666804428,-2.887274121056849,-8.087961216135401,-14.08259121084881,-20.250742140522956,-29.119209934176027,-40.64808322220375,-43.534547236521355,-28.21382224250304,-4.73394007944541,10.99502271166453,16.454964198374967,18.027197850495867,20.25725533645261,21.82959959551009,19.972802881457387,15.964359341338467,12.876554020872574,9.926810292197864,4.25021667791461,-2.6441133507354384,-6.141274336457258,-6.825677536279532,-10.009095252232719,-19.40279957090111,-31.83931010057028,-35.47298705812129,-20.270963145977102,5.863109183518653,23.852248804761437,28.24370197969429,27.544022691379308,26.131110762634325,21.89032940107827,15.224640135239609,10.079720500837043,7.4792960683921725,4.558590348631782,0.14857480210376456,-4.568592053001136,-9.318512176969906,92.0,109.0,68.0
-3.090682633312059,-11.45598788930471,-23.124657554483743,-34.97476599491303,-37.57985968535196,-22.716956503860192,2.829303214942711,21.504852189587137,25.588004621471303,24.639632652042987,27.916047163307827,30.10806687651982,24.201142548063395,13.994724158084212,7.46790215646647,5.875467345265995,4.44417144236842,0.029081584516566384,-5.464720694789812,-9.496610287048993,-14.696514145483468,-24.367839220303523,-37.807232589037625,-48.391431585231075,-44.117196109957774,-20.90767078566548,6.958284400270962,22.593567862186543,24.22491186092271,21.74702706251903,22.032038065349376,21.94382380457813,16.547322982303587,9.374367770009979,7.061958050994605,7.478378455696921,4.386675758841911,-1.4260313997447578,-6.198931438223409,-10.904005748342415,-17.62625277843412,-27.002122673498768,-36.721109278356046,-36.35382705223905,-18.566475864116494,6.169159260779917,22.53986509702862,27.456974704503665,26.850763502275562,25.736545111342416,23.855491322010323,18.315326448488804,10.018266208074577,3.368106569007945,0.43245003708067176,-1.3338233144457492,-4.825913350099544,-10.503382039401288,-17.037703424985995,-23.215801665459168,-29.64417047639521,-33.802189775783894,-27.505821375503455,-7.050301228692159,16.296396724723536,27.54932291035104,26.028667047921136,22.470753745366896,21.388483564481668,18.26359371885729,12.428249635991618,6.2554446567767545,0.5821701626559629,-3.799162964565944,-6.7631441389614055,-7.779451717447433,-8.869746685766378,-15.020030890303307,-27.308901081323768,-38.25912368153678,-35.966593438662635,-17.62809619679808,4.3207216730443285,18.63707490589601,25.460810402287297,27.650648025906968,25.562159992890262,20.380053895348404,14.009237308651397,7.093982004639398,1.0441449968458179,-2.270301289921593,-4.237544811172175,-5.9302142249181236,-6.80405044535856,-9.082953510013605,-17.84113468319388,-31.729760118304597,-36.16541201515045,-19.303004103451578,8.152979684157573,26.212919341440116,28.972778325754426,24.765677253333564,21.379684405454093,17.48540208729586,9.777888733064241,3.0137652555589556,2.254960354945689,3.428851584696581,2.496712276781699,0.12731792396417335,-3.4614053177760375,-8.930404020280658,-16.853217280119164,-28.40687816606897,-39.444573563999455,-36.00967951664585,-12.840659312630503,13.54643144556303,25.355666026608162,23.24787567838307,18.716952370097783,17.668574935068502,16.171137016659834,8.90170006414436,-0.7873021359105131,-3.0653435229458763,1.1326208184702748,2.4140523039526536,-0.5708298876736623,-3.6224195961783914,-8.195585505093689,-17.98287064191232,-30.81984300573656,-34.93780422754813,-19.94530595873929,5.944776481627319,24.12944436810536,26.903665244029202,21.608723334698546,18.940345811849504,20.267641284525233,19.516572163734363,13.764235850108612,7.169673656266521,3.181407425472424,0.004061956633033853,-4.257023648274765,-9.792101129984236,-15.805818740152,-22.372536554472802,-32.46660403208089,-43.051439277534485,-40.92967319623868,-21.423332689469994,1.0116808444140681,13.403458196369595,17.004470843582563,18.561042955424707,20.939713748723907,21.682159738653574,18.875493852265272,14.913927026375557,12.157641037907629,8.621608833153166,2.1665168966712707,-4.128139283039457,-6.4210120975097675,-7.250045909514305,-12.050545524913277,-23.07067788681667,-34.43385008326151,-33.08450310280686,-12.993004080545601,12.557267848425337,26.233467292428593,28.186899497501347,27.253643582775062,25.290349315506074,20.053314598407788,13.432848197583777,9.160780911907361,6.7970261463423425,3.389887790774794,-1.2140170976631701,-5.946318525256891,-10.620691501527393,-14.705868982943857,-19.914095476534644,-29.15283107947567,-39.296318417554005,-38.40240182141922,-20.4459564491932,2.5862065807732826,18.61204621604944,26.868397010410398,28.48205961757746,25.34770117314324,21.109660895268576,15.952899566564259,9.584295913277101,5.210493069752057,3.6570130605517064,1.1663521578373115,-2.688900179481005,-5.563658652102516,-8.935898872312059,-16.35713039823322,-27.198602135709116,-36.54179618581116,-36.48341781990587,-21.831353653298937,0.5820988319352519,17.18014287572154,21.281614290265136,19.126439645826643,20.60695986335121,23.49855697362691,19.502634566184078,10.136608643880802,4.175080709171136,4.811173849645143,6.797556663439267,3.9910553641777455,-3.126582119716084,-9.794084861912609,-15.05665825629481,-21.93057376420515,-29.88369768653308,-29.962986359188392,-15.994357483187391,4.179811727738075,19.171614136229593,25.99142977618885,27.721890634812986,27.365924608039858,25.176234124432074,19.41135245805026,10.834146821760694,4.240951623670276,1.5636635753512185,-1.1384895097118972,-6.258319538247046,-11.822496078458084,-18.24814319113351,-27.18078640335533,-36.79531577112756,-44.36291216245957,-42.372393494266426,92.0,109.0,68.0
-22.8416573111001,0.1916679402413501,21.167227951816056,28.021740851272835,24.757694702877668,22.042142918646046,20.87580809777248,16.720355067560007,10.636896799237258,4.51938635592834,-0.8256765590429009,-4.81926527325123,-7.257626646024755,-7.878490506009252,-9.937852506393682,-18.103788522762486,-31.13932381798709,-39.39341302033117,-31.980034242043093,-10.953555424874933,9.415964090961506,21.20391969555238,26.526699432636416,27.47591096108053,24.284250901006246,18.610869305670214,12.049547652978752,5.136258468196369,-0.1912825739715876,-2.877224791803326,-4.779456186610068,-6.257565093541619,-7.101585410426758,-10.77305787371344,-21.750674497515845,-34.80768844706183,-33.46868582908339,-11.490503150965168,14.96789734959793,28.37359368507037,27.984251262895803,23.594474470590193,20.537414946312943,15.612310454198877,7.356905973527498,2.210942109615016,2.685269385403277,3.3926060102303004,1.911421214070141,-0.7527047863016073,-4.828563204893185,-10.921245761925915,-19.797986513443334,-32.14891535939053,-40.57084617378484,-30.96157286349017,-4.512393988715868,18.803147478139504,25.71585663276224,21.713711843360798,18.0915975989979,17.58472027033842,14.750194322319807,5.899616954907623,-2.483579419650519,-2.09527469387908,2.094652230038715,1.7793273229151945,-1.5203904646516895,-4.5826255021939035,-10.417130838918283,-21.72689979304125,-33.58156061822297,-32.61878532493441,-12.74850676061116,12.661409439788798,26.409524154275772,25.65636499478157,20.273755970056342,19.135780905146987,20.531014897380768,18.29085896952793,11.683165618350085,5.762344322016996,2.306721684704983,-1.089402903134581,-5.738773953158005,-11.535602164391392,-17.541001758338712,-24.829096387140773,-35.949294227301515,-44.33421795338858,-36.70805719456434,-14.414242231865547,5.804424037782973,15.04748721789471,17.414323416033408,19.20541153021387,21.480197108308083,21.201478809690112,17.68109075269108,14.002235271729692,11.376339687449706,7.028384270855986,0.0863151465562745,-5.221374894943443,-6.562490348365119,-8.024908640568679,-14.667397863391765,-26.82775335356983,-35.92515588675931,-28.975230047194238,-5.223004998738541,18.107164956543237,27.578452271018257,27.95546348731809,26.908562137278736,24.135608251007472,18.08626640045768,11.87278216722553,8.421792905311694,5.999994349109751,2.1131949349208807,-2.5747480134659115,-7.329563420302047,-11.854459335492358,-15.937236136571627,-22.126630337261794,-32.395080563945754,-40.75819697379131,-34.72313173736536,-13.554942515732998,8.123576879449427,21.709114437765965,27.99718553042192,27.888126837779488,24.14345323075057,19.78543930774222,14.145825462196658,7.957670598943134,4.607940020590447,3.1740936127931376,0.06906721651101344,-3.6542641302758194,-6.3058349372427465,-10.585471091585152,-19.29148325762623,-30.356502636001807,-37.86835451367501,-33.70965685368545,-15.552032750939816,6.495390285329976,19.611917271206107,20.765764255085827,18.98708752974988,21.72195531324389,23.23903978735743,16.976984316266538,7.737663249644577,3.792478071611708,5.589191685261156,6.611631776357177,2.1709993722241836,-5.2594698898962395,-11.352676707030476,-16.752853047579062,-24.37585037492078,-31.209438107317695,-27.275652106471426,-10.210394391345405,9.362789904014498,21.894203441137268,26.845777576475943,27.759254535506845,26.990495398969724,23.936926002880995,17.052100021811107,8.510780334590926,3.1667055379397997,1.0002419623486523,-2.423013268044843,-7.894578545774968,-13.470234166702042,-20.597198684177215,-30.002379521202496,-39.37210227681831,-45.27152957180363,-38.596208631147384,-15.825126110805705,7.938242768341535,18.755830677524102,20.73322693718645,21.367990527569617,19.943755733760312,16.101910783597727,12.561774003718764,9.088103594165686,6.086281736262023,5.030944743319967,3.5412434044872656,0.009657920723118203,-4.271642498572235,-8.732398985542916,-16.129955265959673,-27.500972373671956,-34.88087750723362,-27.36211847853699,-5.5041655387254504,16.359508596056816,26.513761128967168,29.152544008907956,32.648928011585795,34.078766496597275,27.098038755274548,15.496276782868378,7.458036444543984,4.7152510154647205,4.410831937750962,2.6261184443136454,-3.2314211322194897,-11.439846233923332,-17.889908541004928,-22.78964442588311,-32.07658970504087,-44.049316567784906,-42.90277859927619,-21.467189521424462,5.155571060612053,20.185904885596823,23.354726135907462,22.183952374142933,21.075308110609114,19.30474846891034,15.549121788417237,10.40015285575748,3.9512215816598872,-0.9531928158215747,-1.279366133019189,0.9751091812716879,0.3037934707427098,-5.300593371171251,-13.028995132455401,-22.644697206608278,-35.033305473725186,-41.15158026841867,-28.650062713645465,-2.502536061363566,19.265524762511486,27.658413710345968,27.881959410545992,92.0,109.0,68.0
12.745301533597484,2.910621194554337,-3.3272694044116524,-0.785350442486471,2.590601556360903,0.8865233784193217,-2.391030545389534,-5.781396123149529,-13.14482145469584,-25.5911715007955,-35.22646393782644,-28.562017482206947,-5.065397123804529,18.2910589937806,27.38875173036134,24.03017284307756,19.380441960592016,19.571748402667275,20.44881109876761,16.64942930207311,9.69366586853755,4.593074806959648,1.4216535480245411,-2.2939170198026795,-7.325527400435743,-13.282660268657807,-19.35808793910073,-27.677147192518255,-39.272003339992814,-44.16407842974037,-31.13134908429,-7.656204023614967,9.58377791753223,16.10904552004703,17.817710157919063,19.922072969886067,21.78698267156569,20.418317783524067,16.489272559781803,13.213224689602313,10.43654529805116,5.173587935283638,-1.8430227534522772,-5.928475324728693,-6.712658481373993,-9.260583851667565,-17.808731889287685,-30.372627348176735,-35.990622013664705,-23.31485523545079,2.481235936684443,22.344041010076076,28.15764385156987,27.67470846030443,26.42554731011426,22.664043354885475,16.10794100983159,10.583351213620826,7.7738070972495406,5.0499583745453736,0.7748863129677599,-3.9373761581763844,-8.69909119355935,-13.02568529839105,-17.344065599980404,-24.73543521858211,-35.544417999199126,-40.92761951570823,-29.64685224074861,-6.689475309130442,12.91278201930247,24.215834007536987,28.57168316061139,26.984247168271928,22.92584041037759,18.340076866543388,12.263796376883729,6.607511661261303,4.190942408973885,2.504498698436339,-1.0824833408691974,-4.492253968888159,-7.181453923508572,-12.645836547280025,-22.443004948713863,-33.239558309169006,-38.18683620547232,-29.665291781242853,-8.931889192747148,11.592916424249513,20.95095736951122,20.013294978567185,19.339955854895752,22.737965765256792,22.23421324899871,14.17878931703221,5.843977720761174,3.9412421509811946,6.287417475231144,5.91246575889999,0.0874708512208095,-7.2375992139841605,-12.834421153980095,-18.67622926203687,-26.821664545762854,-31.5767225605334,-23.384565680395138,-4.234393460142827,13.88652314434183,23.96065820318816,27.37332088171763,27.67840025801464,26.433443596051312,22.349247202501434,14.527787445961314,6.495616263426884,2.3953723841732026,0.29750204535512276,-3.9037495492533183,-9.50202211940538,-15.255703545051356,-23.16552561182495,-32.810161531022786,-41.718551446779045,-45.102820924394756,-33.312013302688506,-8.146713704864743,12.518497665268084,19.771249227721956,20.957868118876352,21.291112943969683,18.953705176036607,14.990055911997118,11.608527293049702,8.059956984819783,5.621835793093177,4.788195492883451,2.7026464271640243,-1.2234939678052459,-5.483746101104911,-10.398591668736797,-19.1751930143089,-30.59546225539964,-34.53470760333547,-22.060481391195413,1.5682313129942795,20.61310210354909,27.55654390104421,29.962827457831608,33.65223665762298,32.987810652661096,23.806413368710285,12.583302062242451,6.2103290349892175,4.540169844582594,4.221771686818288,1.366769194871928,-5.54800830996857,-13.61393014917548,-19.25664417791098,-24.784422728685648,-35.79935785710664,-45.80305127669299,-38.477060075772236,-13.330698642838707,11.016162503723994,21.99662698217416,23.16878900694571,21.801996974209796,20.745921296326305,18.396846055338738,14.20615976918211,8.617732266124047,2.184460231068012,-1.5464658696971616,-0.6614255525889844,1.2944513783712155,-0.892141604991221,-7.43394582061097,-15.495941217141617,-26.089048747294065,-38.125045299038625,-39.67263868272706,-21.744316936751886,4.947247265889459,23.03600959448643,28.14244933218147,27.650862078024957,26.78323468208655,22.319847049629804,13.512836947745967,7.63804349401964,7.139163319413844,5.30673535410614,-0.5626860844203102,-5.729483031614944,-7.189289963275231,-7.54064549252265,-12.123389710692685,-22.552273978164276,-34.615442545101054,-38.56302075780979,-25.914454310960476,-2.3064152216230442,16.084319196820257,22.27659498802872,23.42410989383476,26.262638011592227,27.182133209622428,21.016159892040385,12.078260270222188,7.248310448482028,6.901961716986714,6.875633801812438,4.074748581427195,-1.8430468088727001,-9.062209653251442,-15.580856296898768,-21.770421702923592,-30.389470268009706,-38.89685111987584,-35.97148744768341,-16.402234508852256,8.718750750429324,25.53045696297001,30.758776188147607,28.886573212373335,24.775026123359552,20.462801329377918,14.459307785155316,6.278165477547175,-0.8949581770217571,-4.02460285720546,-4.477090457463951,-6.899742340306386,-11.33827815140409,-14.8089186598819,-19.384843219573412,-30.07442601304961,-41.330872611567564,-37.946644007392386,-16.654275937242602,7.987814179008259,22.693502913131898,26.885457455485174,27.02760113554929,26.48277085234871,23.30848017470243,15.820116307883339,8.296151722410244,92.0,109.0,68.0
